Aktueller Finger,timestamp_ms,sensor_0,sensor_1,sensor_2,sensor_3
0,64553,0.4256753921508789,-1.7439155578613281,1.6618666648864746,-4.58891487121582
0,64554,1.0701755285263062,0.39375990629196167,-1.841965913772583,0.8538167476654053
0,64557,0.6603657007217407,1.0560486316680908,0.5666477084159851,3.343480110168457
0,64558,0.3107074797153473,0.3576009273529053,0.5823089480400085,-4.264114856719971
0,64561,-1.8555822372436523,-1.5528206825256348,-0.9995570182800293,4.0660176277160645
0,64562,-0.5804734230041504,0.14110954105854034,-0.22885778546333313,-6.616531848907471
0,64565,1.7141661643981934,1.3139737844467163,-0.32509347796440125,-6.419443130493164
0,64566,-0.08157680183649063,-1.0149786472320557,-0.049586668610572815,16.35904312133789
0,64569,-0.5740156173706055,-0.15573690831661224,-0.3898409903049469,1.083338975906372
0,64570,0.604430615901947,1.7205440998077393,1.02692449092865,-7.515752792358398
0,64573,-0.14463497698307037,-0.36181244254112244,0.8076481223106384,2.8701977729797363
0,64574,-1.1152873039245605,-0.8431958556175232,-0.7608280181884766,-0.9093489050865173
0,64577,-0.26583245396614075,0.3556976616382599,0.963229775428772,0.21506617963314056
0,64578,1.190783977508545,-0.34693849086761475,0.32807013392448425,-0.16771869361400604
0,64581,0.31280776858329773,0.057891663163900375,-1.2472844123840332,-2.908825159072876
0,64582,-0.9827147722244263,0.3621613085269928,0.78668612241745,1.7543983459472656
0,64585,-0.3064750134944916,-0.4346267282962799,-0.0021657897159457207,2.1081302165985107
0,64586,0.7824652791023254,0.6635660529136658,-1.6953449249267578,-2.5441043376922607
0,64589,0.5070685148239136,-1.2419871091842651,-0.14340652525424957,-2.1844170093536377
0,64590,-2.3896872997283936,-1.3260425329208374,-0.016058621928095818,0.04216356202960014
0,64593,-0.26471397280693054,3.384697914123535,-0.22585304081439972,-1.805564284324646
0,64594,3.501960039138794,3.0352418422698975,0.9619958400726318,1.3087044954299927
0,64597,0.823481023311615,-2.0933566093444824,0.9880515336990356,5.115149974822998
0,64598,-0.22004075348377228,-3.7975311279296875,-0.7312589883804321,-1.7601534128189087
0,64601,-2.0414650440216064,0.7555272579193115,1.239789366722107,0.19291290640830994
0,64602,1.3760876655578613,1.2150005102157593,0.3837151825428009,1.0299396514892578
0,64605,1.59852933883667,-0.009178780019283295,-3.5379674434661865,-4.6695451736450195
0,64606,-4.479123592376709,-1.2060097455978394,1.3227362632751465,2.896890878677368
0,64609,0.5869590640068054,-0.8037099242210388,2.692656993865967,1.9238258600234985
0,64610,0.8936071991920471,1.5296868085861206,-1.8885427713394165,-3.0814263820648193
0,64613,-1.3426481485366821,0.20278941094875336,-0.5771636962890625,-0.7418259978294373
0,64614,1.3038080930709839,0.26008468866348267,0.7628474235534668,1.4998475313186646
0,64617,-0.6656022071838379,0.11226824671030045,-0.027912644669413567,2.4402546882629395
0,64618,-1.8985978364944458,-0.36056026816368103,-0.8667842745780945,-0.36496517062187195
0,64622,2.6915199756622314,-0.9745053648948669,-1.3224295377731323,-1.9879149198532104
0,64623,1.8300894498825073,-0.1166839525103569,0.8332386612892151,0.5289464592933655
0,64624,-3.3472557067871094,2.0169646739959717,1.4229487180709839,2.2345807552337646
0,64627,0.1511632204055786,0.010907791554927826,0.3486122786998749,-0.37953391671180725
0,64628,1.7296514511108398,-0.7027176022529602,-1.108654260635376,-0.2735976576805115
0,64631,-0.5087077021598816,-0.23365630209445953,-0.10904994606971741,-0.8381470441818237
0,64632,0.8763446807861328,-0.3832251727581024,1.7050641775131226,-2.501803159713745
0,64635,0.599926233291626,0.17937056720256805,-0.003915673121809959,-0.6913411617279053
0,64636,-1.4967701435089111,-1.2205123901367188,-1.0633875131607056,1.0581239461898804
0,64639,-1.3324376344680786,-1.7982993125915527,-0.960951030254364,1.394072413444519
0,64640,0.7661567330360413,1.5563085079193115,0.2936117947101593,-4.1667633056640625
0,64643,1.2023202180862427,3.419304132461548,0.014035164378583431,3.775951385498047
0,64644,-0.5433631539344788,0.10071440786123276,-0.243336021900177,8.828145980834961
0,64647,-0.3353560268878937,-0.7572280764579773,0.775621235370636,-6.87022066116333
0,64648,0.7736663818359375,-0.6890376806259155,0.08673729747533798,-9.35926342010498
0,64651,0.18034136295318604,-2.4352285861968994,0.4330815374851227,1.849412441253662
0,64652,-0.24686592817306519,1.098855972290039,0.09060715138912201,9.5010347366333
0,64655,-0.5781508684158325,2.317702531814575,-1.1144810914993286,-0.5822407007217407
0,64656,-0.27547818422317505,-1.986796498298645,0.9141550660133362,-4.2778000831604
0,64659,-0.6407738924026489,-0.2603791654109955,1.388114333152771,4.5034565925598145
0,64660,0.5965295433998108,2.3022520542144775,-1.8860201835632324,-1.4242795705795288
0,64663,0.9776758551597595,-0.858609139919281,-1.22689688205719,-3.2616679668426514
0,64664,-0.8694732785224915,-2.2723753452301025,0.3331741690635681,0.6929295659065247
0,64667,1.6201413869857788,1.3058440685272217,-0.14328108727931976,-1.475502848625183
0,64668,-0.21715666353702545,1.0793746709823608,0.46015211939811707,1.776189923286438
0,64671,-2.478217601776123,-2.139967918395996,0.43107396364212036,2.0910210609436035
0,64672,1.3991365432739258,1.1336445808410645,1.236698031425476,-0.19994105398654938
0,64675,1.7302316427230835,2.639418840408325,0.7784433960914612,1.6611802577972412
0,64677,-0.6890019178390503,-2.285975217819214,-2.7570202350616455,-5.254716396331787
0,64679,-1.2239569425582886,-1.5143119096755981,-0.9315186142921448,-2.3831050395965576
0,64680,-0.7497262954711914,1.180343747138977,3.6482093334198,6.9760260581970215
0,64683,-0.014383567497134209,-0.4796740412712097,-0.014179528690874577,-0.7888227701187134
0,64684,1.2457408905029297,0.7874129414558411,-1.618211030960083,-4.012165546417236
0,64687,-0.10385124385356903,1.0702656507492065,0.178470641374588,1.1067107915878296
0,64688,-0.7491097450256348,-0.9928565621376038,-1.8956748247146606,0.3804815411567688
0,64691,0.9651779532432556,-0.8640393614768982,0.3801547586917877,1.861974835395813
0,64692,0.0992695689201355,0.15109817683696747,1.1100395917892456,1.1977033615112305
0,64695,-0.48920661211013794,0.9565578699111938,-0.02898063324391842,-0.8191672563552856
0,64696,0.37592750787734985,0.33845219016075134,-0.5629693865776062,-5.661708831787109
0,64699,-0.11633604019880295,-1.7181086540222168,-1.091127634048462,-1.5864336490631104
0,64700,-0.6627981066703796,0.20840075612068176,2.750088691711426,9.977631568908691
0,64703,0.5389325022697449,1.215903878211975,1.113952398300171,-2.6959762573242188
0,64704,-0.004529361613094807,-1.8889163732528687,-2.5970284938812256,-5.244971752166748
0,64707,-0.9445245265960693,0.36083531379699707,0.2217424213886261,5.385017395019531
0,64708,0.18566849827766418,1.301774263381958,1.4109482765197754,1.9429386854171753
0,64711,0.15210409462451935,-0.18876871466636658,0.07378783077001572,-2.9843244552612305
0,64712,0.7328372597694397,0.13896434009075165,-1.1595301628112793,-2.594684362411499
0,64715,0.42364802956581116,-2.014152765274048,-2.1107475757598877,3.8740508556365967
0,64716,-1.0620553493499756,-0.057462844997644424,2.064908027648926,3.779703378677368
0,64719,0.6391836404800415,3.174536943435669,1.8709276914596558,-4.922309398651123
0,64720,0.3749580681324005,0.23424071073532104,-3.6852009296417236,-2.418508291244507
0,64723,-1.2321171760559082,-1.4119654893875122,0.6338393688201904,-0.9914473295211792
0,64724,1.8226083517074585,1.5365712642669678,4.287687301635742,-3.9111506938934326
0,64727,0.8940651416778564,-0.3742119371891022,0.6573078632354736,7.842850685119629
0,64728,-2.05324649810791,-2.8670907020568848,-3.4277467727661133,4.423617839813232
0,64731,-0.9045983552932739,1.0141099691390991,-2.84256649017334,-6.145744800567627
0,64732,0.5462303757667542,1.2216836214065552,1.9337732791900635,-2.273414134979248
0,64735,1.7101190090179443,-0.41652151942253113,0.33615702390670776,-0.570121169090271
0,64736,-0.909669816493988,-0.071344293653965,-1.3363250494003296,1.1124184131622314
0,64739,-1.4623174667358398,-0.10292956978082657,-0.8599351048469543,3.780596971511841
0,64740,0.6975631713867188,0.3857027590274811,-0.6609714031219482,-1.0148526430130005
0,64743,0.5145986676216125,-0.4062187075614929,3.273624897003174,-2.0333268642425537
0,64744,0.6612579226493835,-1.2996962070465088,2.6108360290527344,6.904960632324219
0,64747,-1.1499135494232178,0.4369564950466156,-2.806011199951172,-2.49916934967041
0,64749,-1.2779054641723633,1.6999672651290894,0.07980327308177948,-7.574230194091797
0,64750,1.4603558778762817,-0.44590386748313904,1.1964912414550781,7.06201171875
0,64753,1.085157871246338,-0.47434383630752563,-2.569101572036743,-1.935402274131775
0,64754,-0.400546669960022,0.6295887231826782,1.7113289833068848,-6.354342937469482
0,64757,-1.2137783765792847,-0.0044227056205272675,2.1823272705078125,6.84966516494751
0,64758,0.24561968445777893,-0.17820335924625397,-2.4162039756774902,-0.6234035491943359
0,64761,1.2557061910629272,-0.7638387680053711,-1.0637530088424683,-1.8876370191574097
0,64762,-0.450420081615448,0.18899987637996674,0.6318293213844299,1.827231764793396
0,64765,0.09406621009111404,-0.17333535850048065,-0.5287542939186096,-1.5107508897781372
0,64766,0.33989250659942627,0.44134560227394104,0.6664614081382751,1.6442543268203735
0,64769,-0.6115121245384216,0.019012179225683212,1.1571491956710815,1.744177222251892
0,64770,-0.6183455586433411,-1.220824122428894,-0.16381032764911652,2.170106887817383
0,64773,-0.4783152639865875,0.3972742557525635,-1.2435808181762695,-0.2920866906642914
0,64774,0.3053945302963257,-0.8622927069664001,0.08267024159431458,-5.638024806976318
0,64777,0.1739347279071808,1.451776385307312,0.8383126854896545,-0.9536260962486267
0,64778,0.3867529034614563,1.2900924682617188,-0.46235421299934387,6.500166893005371
0,64781,-0.051849979907274246,-1.8998996019363403,0.534228503704071,-3.3981354236602783
0,64782,-0.4493372142314911,0.7308952808380127,-1.2470768690109253,-7.541720867156982
0,64785,4.497097492218018,0.7124247550964355,-0.6266661286354065,6.584105968475342
0,64786,-0.4999296963214874,-1.9209823608398438,1.3502548933029175,3.472287178039551
0,64789,-6.210986137390137,0.5498195886611938,0.4277498722076416,-2.0151031017303467
0,64790,1.8762729167938232,1.6918175220489502,0.18060147762298584,-0.20910395681858063
0,64793,1.515914797782898,-1.2416929006576538,-0.6048036813735962,-4.285316467285156
0,64794,-0.8569376468658447,0.5675978660583496,0.7199687361717224,-3.37072491645813
0,64797,0.7325647473335266,0.40354853868484497,0.6378347873687744,4.324016094207764
0,64798,-2.182706594467163,-1.9774696826934814,-2.1489758491516113,4.617018222808838
0,64801,-0.8089683055877686,0.5165985226631165,-0.760776937007904,0.5634133815765381
0,64802,2.1721744537353516,2.0145657062530518,0.4142710864543915,5.066598415374756
0,64805,-0.052941322326660156,-0.6833439469337463,0.010323947295546532,-4.880821704864502
0,64806,0.55398029088974,-1.0897585153579712,1.6699270009994507,-9.714853286743164
0,64809,1.480332851409912,1.5721222162246704,-0.27123314142227173,2.1449990272521973
0,64810,-2.567427158355713,0.1769551783800125,-1.040287733078003,3.877472162246704
0,64813,-0.20582857728004456,-1.1783722639083862,1.2436771392822266,3.4086949825286865
0,64814,1.9159743785858154,0.6338853240013123,1.1309117078781128,3.0008468627929688
0,64817,-0.5887514352798462,-0.729335367679596,-1.8328248262405396,-6.492031097412109
0,64818,0.6391105055809021,-1.9056825637817383,-2.013946056365967,-5.61594295501709
0,64821,-0.36821281909942627,0.9610953330993652,2.2751102447509766,8.415873527526855
0,64822,-0.7991864085197449,0.2672556936740875,2.105743169784546,1.68099045753479
0,64826,-0.4743220806121826,-0.010047934018075466,-2.4322526454925537,-5.994738578796387
0,64827,-1.0584819316864014,1.2235757112503052,-2.006427526473999,-0.5059674978256226
0,64828,1.7718985080718994,-0.6181734204292297,1.784185767173767,1.8147002458572388
0,64831,2.327636957168579,0.135833740234375,0.2770845592021942,3.1226789951324463
0,64832,-1.4327198266983032,-0.8519948124885559,-0.7146742343902588,1.4291332960128784
0,64835,-1.1468489170074463,-0.013477583415806293,0.6039569973945618,-6.401266098022461
0,64836,2.1264796257019043,2.249876022338867,1.335652470588684,-1.2085174322128296
0,64839,-0.8271152973175049,-0.10169916599988937,0.10003366321325302,8.150866508483887
0,64840,-3.202408790588379,-0.6213935017585754,-0.6965306401252747,-1.6486856937408447
0,64843,1.0874279737472534,-0.30574026703834534,0.61036217212677,-4.924354553222656
0,64844,1.538155436515808,-0.7887304425239563,-0.5899584293365479,0.8639634251594543
0,64847,-1.088664174079895,-0.6364693641662598,-1.5482747554779053,-0.291309654712677
0,64848,0.14874497056007385,1.3172862529754639,-0.4150991141796112,0.38173165917396545
0,64851,0.9346489310264587,-0.2559718191623688,1.3125808238983154,4.154225826263428
0,64852,0.5776956677436829,-1.4193109273910522,-0.22069121897220612,2.3755650520324707
0,64855,-0.30864381790161133,0.6624751091003418,0.047983717173337936,-2.131997585296631
0,64856,-1.480705976486206,-0.7545061111450195,0.9186317920684814,-5.371277332305908
0,64859,-0.468032568693161,0.8429071307182312,-0.5662575960159302,-2.902759552001953
0,64860,2.1773600578308105,1.0480905771255493,0.7439104914665222,5.1739182472229
0,64863,0.7671269178390503,-1.0156787633895874,-0.49495813250541687,7.874298572540283
0,64864,-1.3460086584091187,1.0193331241607666,-1.134155511856079,-3.5096919536590576
0,64867,-0.45098456740379333,0.22019511461257935,1.4995360374450684,-9.336628913879395
0,64868,-0.5054804086685181,-0.7657214403152466,-0.15826310217380524,0.7216167449951172
0,64871,0.615166962146759,-0.18058915436267853,-0.5558664202690125,4.895721912384033
0,64872,0.8140735030174255,-0.0010632791090756655,0.3220125436782837,0.8381343483924866
0,64875,-0.8086149096488953,0.5997082591056824,-1.5670037269592285,-0.5229304432868958
0,64876,-0.8450518846511841,-0.06940196454524994,1.1364119052886963,0.7882072925567627
0,64879,0.6988850831985474,-0.21337300539016724,1.1627122163772583,-2.3056118488311768
0,64880,0.9758539199829102,0.47103843092918396,-1.7259889841079712,-1.4157977104187012
0,64883,-0.25294607877731323,-0.06840066611766815,-0.05352993309497833,3.7749056816101074
0,64884,-0.44542548060417175,0.0006334614590741694,0.13924913108348846,1.618747353553772
0,64887,-0.7121146321296692,-0.33253663778305054,0.8105976581573486,-7.697187900543213
0,64888,-0.4852962791919708,-2.3806798458099365,0.7492761611938477,-4.144435882568359
0,64891,1.3834878206253052,1.1886792182922363,-1.8484472036361694,9.017992973327637
0,64892,0.7197922468185425,2.8463246822357178,-0.07763582468032837,3.9097132682800293
0,64895,-3.488125801086426,-1.2966810464859009,0.17056551575660706,-4.755477428436279
0,64896,-0.1793898642063141,-1.8481945991516113,0.41658681631088257,-1.1493585109710693
0,64899,4.309510231018066,-0.46517443656921387,3.037083387374878,3.3451876640319824
0,64900,-0.4915328621864319,2.2396585941314697,-0.4350888729095459,-0.5925577282905579
0,64903,-2.039879560470581,1.162013292312622,-1.9857172966003418,-0.6209285259246826
0,64905,0.5665523409843445,-1.968156099319458,-0.13838091492652893,1.7371176481246948
0,64907,0.423446387052536,-0.29296642541885376,-1.014487624168396,-2.5585453510284424
0,64908,0.03418982774019241,1.4410653114318848,0.7948285937309265,0.351508766412735
0,64911,-0.043206751346588135,-0.11273051053285599,1.4835213422775269,2.1324808597564697
0,64912,0.19113287329673767,-1.3513771295547485,-0.6038622260093689,-2.233093023300171
0,64915,1.258018970489502,0.27579179406166077,-1.0831403732299805,-1.6378546953201294
0,64916,-0.031953923404216766,0.13033972680568695,-0.9659028053283691,-1.294043779373169
0,64919,-1.7970424890518188,0.44398367404937744,0.6156485676765442,5.711001396179199
0,64920,1.2178031206130981,0.93337482213974,1.8603850603103638,2.532320737838745
0,64923,1.0141617059707642,-1.3703516721725464,-1.0212888717651367,-10.131573677062988
0,64924,-2.829509735107422,-0.27727973461151123,-1.6500545740127563,0.5901395678520203
0,64927,-0.2613022029399872,1.468754768371582,1.2717806100845337,3.5841691493988037
0,64928,1.7804079055786133,0.7520853877067566,0.2973056733608246,-0.9427725076675415
0,64931,0.4956837594509125,-1.301063895225525,-0.3441457748413086,5.856354713439941
0,64932,-1.1125845909118652,-2.599130392074585,-0.1350770741701126,3.114144802093506
0,64935,-0.7999948263168335,0.9463751316070557,-0.25637373328208923,-6.335178375244141
0,64936,0.19355036318302155,1.321412444114685,1.4695918560028076,-7.777309894561768
0,64939,-0.4734785258769989,-0.3389749526977539,1.1320363283157349,2.855043888092041
0,64940,0.14242494106292725,0.012971768155694008,-2.1297435760498047,4.310977458953857
0,64943,0.6210839152336121,-0.6122739911079407,-1.0480306148529053,-3.1157660484313965
0,64944,1.0560600757598877,0.7888144850730896,1.86646568775177,3.125513792037964
0,64947,-0.15041780471801758,0.6772094964981079,-0.349557489156723,0.09639997780323029
0,64948,-0.8541094064712524,-0.1273183971643448,-0.6860678791999817,-4.13281774520874
0,64951,-0.20054973661899567,-0.19315242767333984,0.6363404393196106,3.001765727996826
0,64952,0.385372519493103,0.36602023243904114,0.7749365568161011,1.0413610935211182
0,64955,0.7663295269012451,0.3645094335079193,0.7998191714286804,2.7945313453674316
0,64956,-0.9837537407875061,-1.146635890007019,-2.8881707191467285,0.1840241402387619
0,64959,0.3349674344062805,-0.012545355595648289,-1.7466340065002441,-3.0546510219573975
0,64960,0.7674036026000977,0.3142920732498169,2.684671401977539,-0.7418752312660217
0,64963,-1.6180012226104736,0.23018424212932587,0.16423961520195007,-0.2771703004837036
0,64964,-0.001694979378953576,-0.18467293679714203,-0.4509541094303131,2.5968494415283203
0,64967,1.1274497509002686,-0.9043214917182922,0.82515549659729,-0.44895291328430176
0,64968,-0.10107127577066422,0.3013570010662079,-0.45629608631134033,-0.3032764494419098
0,64971,-0.41779327392578125,0.7638404369354248,0.5200749635696411,-1.3158042430877686
0,64972,-0.06449068337678909,0.3738490641117096,1.065773367881775,-2.1980903148651123
0,64975,0.961459755897522,-0.16173280775547028,-0.2487163245677948,1.2607530355453491
0,64976,0.3449767529964447,-0.1560511738061905,-1.1088049411773682,-1.245194673538208
0,64979,-0.8122157454490662,-0.372126042842865,-0.5201534032821655,2.6864302158355713
0,64980,-0.19555021822452545,-0.1672111600637436,1.6184405088424683,9.259215354919434
0,64983,-0.6915501952171326,-0.2443663775920868,-0.48624199628829956,-8.387006759643555
0,64984,0.022484544664621353,-0.8725265860557556,-2.147810459136963,-13.59467887878418
0,64987,0.30136796832084656,0.30808934569358826,0.9527865052223206,14.097149848937988
0,64988,-0.38775911927223206,0.5106073021888733,0.656542181968689,11.661669731140137
0,64992,1.101317048072815,0.25772443413734436,-1.0678589344024658,-14.323095321655273
0,64993,0.5048144459724426,0.4924401342868805,-0.14297431707382202,-8.764679908752441
0,64994,-0.7273597717285156,0.19336265325546265,1.192154884338379,8.4236478805542
0,64997,-0.11511171609163284,-0.45404431223869324,0.48327502608299255,0.9335536360740662
0,64998,-0.2995144724845886,-0.08329795300960541,-1.0012362003326416,-1.667303442955017
0,65001,-0.007569575682282448,1.0737454891204834,-0.8771679401397705,4.632864952087402
0,65002,-0.003931218758225441,-1.5670204162597656,0.8951250314712524,2.2682878971099854
0,65005,0.01575334742665291,-0.13878655433654785,1.6184475421905518,-5.307615280151367
0,65006,1.021471381187439,2.5803496837615967,-0.6287604570388794,-4.08280086517334
0,65009,0.19133082032203674,-1.969938039779663,-0.956841230392456,4.8056559562683105
0,65010,-0.9697663187980652,-2.0061326026916504,-0.11935515701770782,-0.5870006680488586
0,65013,0.24276739358901978,2.036262273788452,0.8464850187301636,-1.6576541662216187
0,65014,0.26301801204681396,1.4233388900756836,0.5293988585472107,2.7987592220306396
0,65017,-0.7824850678443909,-0.22499792277812958,-1.6758763790130615,2.2526111602783203
0,65018,0.4975646138191223,0.16315016150474548,-0.027064982801675797,0.7697300910949707
0,65021,-0.41602325439453125,-0.6412425637245178,0.9871711730957031,-8.313087463378906
0,65022,-1.025657057762146,-0.7695573568344116,0.6958760023117065,-3.629934072494507
0,65025,1.399750828742981,0.09353603422641754,-0.5434410572052002,14.548185348510742
0,65026,0.596267580986023,-1.2468153238296509,-2.8383326530456543,-2.9531288146972656
0,65029,-0.4943971335887909,-0.15284691751003265,0.11162447184324265,-4.308420658111572
0,65030,-0.42678171396255493,0.9239856600761414,2.552828073501587,-0.3845059275627136
0,65033,-1.1764873266220093,-0.27767086029052734,0.544623851776123,-14.148247718811035
0,65034,0.4830780029296875,0.8490388989448547,-0.12430407106876373,14.092623710632324
0,65037,0.840177595615387,0.279349684715271,0.16847752034664154,8.7010498046875
0,65038,0.16763904690742493,-1.4526973962783813,-1.1502217054367065,-11.172151565551758
0,65041,0.7723261713981628,0.6727032661437988,-0.2594020962715149,-0.1441144347190857
0,65042,0.3704819977283478,0.9266789555549622,0.8308928608894348,4.63742733001709
0,65045,-0.9362040758132935,-1.2505528926849365,-0.6376375555992126,5.7433881759643555
0,65046,-0.3884320855140686,0.4067785143852234,0.357440322637558,-0.556710422039032
0,65049,0.08697940409183502,0.5057687759399414,1.5824470520019531,-3.854978084564209
0,65050,-1.1225459575653076,0.879528820514679,-0.15639187395572662,-4.689997673034668
0,65053,1.0869576930999756,1.965118408203125,-1.0185524225234985,0.2784520387649536
0,65054,0.694616973400116,-1.9744681119918823,-1.629209280014038,6.02808952331543
0,65057,-0.5729011297225952,-1.7489725351333618,0.2355107218027115,-2.1646087169647217
0,65058,2.164891004562378,-0.13211311399936676,2.103428363800049,-5.223732948303223
0,65061,-0.5708647966384888,0.3240036368370056,-0.6103169918060303,3.4996237754821777
0,65062,-3.7411868572235107,0.9276071190834045,-0.9456806182861328,-0.08952215313911438
0,65065,0.46354448795318604,-0.7786717414855957,-0.14207690954208374,-5.848422050476074
0,65066,1.70138680934906,-0.6452562808990479,0.4291829466819763,3.729966640472412
0,65069,-0.9931560754776001,0.3906102180480957,-0.0021290951408445835,4.1361494064331055
0,65070,0.11466290056705475,1.3824864625930786,0.09418582916259766,-0.9271165132522583
0,65073,0.5799795389175415,-1.2455428838729858,0.5919803380966187,0.21696482598781586
0,65074,0.6441780924797058,-1.4153658151626587,-0.5622262954711914,1.4893962144851685
0,65077,-0.5366557836532593,1.8307055234909058,1.021347999572754,2.947002649307251
0,65079,-0.7762795686721802,1.305403470993042,-0.2691895067691803,3.7215161323547363
0,65080,2.0590922832489014,0.31177663803100586,-2.3205018043518066,-14.89681339263916
0,65083,-0.7184770107269287,-0.9842751622200012,0.8763034343719482,-10.266519546508789
0,65084,-1.1507341861724854,-1.7913241386413574,2.1867411136627197,19.53843879699707
0,65087,2.5865232944488525,0.41110363602638245,-0.7229177355766296,2.522900342941284
0,65088,-0.7456998825073242,1.264905333518982,-0.518814206123352,-7.06724214553833
0,65091,-2.3381783962249756,-0.5820798873901367,0.022988950833678246,3.3559765815734863
0,65092,1.552140712738037,0.4019947648048401,-1.57864511013031,-1.4398972988128662
0,65095,0.21287129819393158,-0.5118846893310547,0.9422096014022827,-2.1529572010040283
0,65096,-1.8490512371063232,-0.8719027638435364,1.2547687292099,-0.23029029369354248
0,65099,0.2231098860502243,1.1123133897781372,-0.4378625750541687,-1.8861643075942993
0,65100,1.256827473640442,0.5655266642570496,0.5263261795043945,-0.7870786786079407
0,65103,-0.5190812945365906,-0.27798208594322205,-0.4249992072582245,7.355007648468018
0,65104,-1.2782388925552368,-2.579395055770874,-2.4123473167419434,2.3373777866363525
0,65107,0.501708447933197,0.3273424804210663,-0.915615439414978,-8.43765926361084
0,65108,-0.47175857424736023,3.6716413497924805,2.3076884746551514,-1.7974501848220825
0,65111,-0.16978682577610016,-0.9872763156890869,1.607245683670044,2.7270278930664062
0,65112,3.1560914516448975,-2.0507442951202393,-0.08730974793434143,-0.631506621837616
0,65115,-0.3494545519351959,1.7893856763839722,-0.4459685981273651,1.5671560764312744
0,65116,-1.4741328954696655,1.419339895248413,-0.3982312083244324,3.9524147510528564
0,65119,3.360877275466919,-0.46583762764930725,0.06723792850971222,-0.7060210704803467
0,65120,0.5189945697784424,0.05630145221948624,-0.25411897897720337,-1.6996543407440186
0,65123,-4.1532673835754395,-0.8467007875442505,0.020316412672400475,10.962902069091797
0,65124,-1.2841641902923584,-1.2620735168457031,-0.43381866812705994,-0.9385190606117249
0,65127,1.8153836727142334,-0.7706117033958435,0.4033260941505432,-20.808855056762695
0,65128,1.300671100616455,0.5967629551887512,1.4977452754974365,2.6975903511047363
0,65131,0.19785229861736298,2.1563384532928467,-0.8006537556648254,9.515762329101562
0,65132,-0.7133253812789917,-0.5045148730278015,-0.09851869195699692,-8.457695007324219
0,65135,-1.9483729600906372,-3.1856436729431152,-0.442242830991745,5.9643120765686035
0,65136,-1.1031057834625244,-1.7080934047698975,-1.7057524919509888,16.091501235961914
0,65139,1.5949746370315552,2.0463619232177734,-0.1471758335828781,-16.191741943359375
0,65140,1.1632723808288574,4.949432373046875,0.9555546045303345,-18.084135055541992
0,65143,0.06483534723520279,1.7524276971817017,2.2572689056396484,16.950801849365234
0,65144,-0.8520390391349792,-3.6001317501068115,-0.1293441206216812,9.832612991333008
0,65147,-0.3747539520263672,-3.122255802154541,-1.6737991571426392,-10.995908737182617
0,65148,1.6795055866241455,0.9005679488182068,0.857223391532898,-1.6261080503463745
0,65151,1.371175765991211,2.6479897499084473,-0.6104354858398438,8.326552391052246
0,65152,-0.48935237526893616,-1.5044562816619873,-2.9336423873901367,-8.617992401123047
0,65155,-2.6508522033691406,-2.214374303817749,1.9337226152420044,-7.332000732421875
0,65157,-0.6658133864402771,1.7921745777130127,3.431248188018799,13.333612442016602
0,65158,1.1894259452819824,1.4522417783737183,-1.0383037328720093,5.732006072998047
0,65161,-1.0546058416366577,-0.9757161140441895,-1.3691761493682861,-3.4368772506713867
0,65162,-0.016086425632238388,-1.9708291292190552,0.11932499706745148,6.127586364746094
0,65165,0.5121209025382996,0.7247256636619568,0.3756113648414612,-7.86034631729126
0,65166,0.8339037895202637,3.781956672668457,-0.12013908475637436,-9.160099983215332
0,65169,2.11673903465271,-0.6178274154663086,-0.8513412475585938,18.008182525634766
0,65170,-0.28591522574424744,-3.1635067462921143,-0.54061359167099,-6.936427593231201
0,65172,-1.3700364828109741,1.0157866477966309,1.7340569496154785,-17.940563201904297
0,65175,-1.1464662551879883,1.07051420211792,0.6589742302894592,16.16775894165039
0,65176,-1.0945395231246948,-2.21732497215271,-3.958160877227783,-1.500941276550293
0,65179,1.0724860429763794,-2.084453821182251,-1.4968510866165161,-11.200483322143555
0,65180,1.3669794797897339,1.3659647703170776,3.8737518787384033,14.701603889465332
0,65183,0.38830146193504333,2.368252754211426,2.7309465408325195,-6.1964287757873535
0,65184,-1.02964186668396,0.17339925467967987,-0.013782043009996414,-12.134607315063477
0,65187,-0.9189847111701965,-0.05726601183414459,-0.9448612332344055,16.134801864624023
0,65188,1.5532172918319702,1.5807182788848877,-0.5975501537322998,10.357880592346191
0,65191,0.5173351168632507,0.3096311688423157,-0.8992657661437988,-5.557309150695801
0,65192,-1.2861676216125488,-1.2288997173309326,-0.6708031296730042,-1.5894006490707397
0,65195,-1.0272150039672852,-0.3053540587425232,0.7561482191085815,3.7739064693450928
0,65196,1.106756567955017,-0.7019235491752625,0.7024813890457153,-10.002777099609375
0,65199,0.8300573825836182,-0.8427257537841797,-0.3869883120059967,-9.30989933013916
0,65200,0.5536665320396423,0.8319578170776367,-0.7080788016319275,13.263470649719238
0,65203,0.6922632455825806,-1.5103342533111572,-0.42700833082199097,5.874064922332764
0,65204,-1.0989935398101807,-1.4768122434616089,-0.3815050423145294,-11.6378755569458
0,65207,-1.5928053855895996,2.193092107772827,-0.8813703060150146,-10.389228820800781
0,65208,-1.3204059600830078,-0.13990531861782074,1.1566190719604492,-1.6202917098999023
0,65211,1.498504400253296,1.2898952960968018,2.8852226734161377,10.117210388183594
0,65212,0.7772912979125977,1.908478856086731,-1.159157395362854,13.989221572875977
0,65215,-1.4844532012939453,-2.029083728790283,-1.4122754335403442,5.79652214050293
0,65216,1.820886492729187,0.11107344925403595,0.35608330368995667,-4.546726703643799
0,65219,1.5239633321762085,-0.12655200064182281,0.769942581653595,-11.75585651397705
0,65220,-1.0932601690292358,-1.5780023336410522,1.069640874862671,-3.9573230743408203
0,65223,-1.4281564950942993,1.7750823497772217,-1.8561186790466309,-2.431175947189331
0,65224,-2.607645273208618,2.2995638847351074,-0.5311038494110107,1.6282449960708618
0,65227,0.09867001324892044,-1.5096625089645386,1.5151729583740234,11.230817794799805
0,65228,2.0469112396240234,-2.2673120498657227,-0.4923110008239746,-4.367020130157471
0,65231,2.147256374359131,-0.49411624670028687,-0.6616578698158264,6.531126022338867
0,65232,0.9537495970726013,-0.32821959257125854,-2.1304514408111572,7.965798854827881
0,65235,1.6322174072265625,0.518680989742279,0.05063030496239662,-17.095781326293945
0,65236,0.11322275549173355,0.7663670778274536,3.784900426864624,-11.605897903442383
0,65239,-6.607525825500488,0.8945708274841309,0.49533048272132874,3.416520357131958
0,65240,-0.014270327985286713,1.2301416397094727,-0.3576735854148865,8.827739715576172
0,65243,4.214025974273682,-0.9237516522407532,-0.6749302744865417,4.864922523498535
0,65244,-0.6484837532043457,-1.051764726638794,-2.478557825088501,-0.45982006192207336
0,65247,-2.485858917236328,-0.2595366835594177,0.6407315731048584,-3.742281675338745
0,65248,-0.306185781955719,-0.9879204034805298,2.099271297454834,-4.655246257781982
0,65251,3.0372157096862793,1.8378664255142212,0.10470036417245865,2.6238882541656494
0,65252,-1.4186547994613647,1.5824564695358276,-0.9230170249938965,6.208099365234375
0,65255,-1.8202214241027832,-2.469635486602783,-3.349637031555176,10.3327054977417
0,65256,3.2499449253082275,0.11058617383241653,-1.1789286136627197,-2.91467022895813
0,65259,-0.5158299803733826,0.8108598589897156,4.044568061828613,-26.17273712158203
0,65260,-3.348078966140747,-1.6035219430923462,3.154839277267456,-6.03628396987915
0,65263,1.4116582870483398,0.237382709980011,-1.5544379949569702,16.731225967407227
0,65264,1.3851079940795898,0.17231912910938263,-3.958514451980591,14.770060539245605
0,65269,1.4823899269104004,2.0323755741119385,1.5888196229934692,3.2158913612365723
0,65269,2.641779661178589,2.286090612411499,4.204034805297852,-8.488924980163574
0,65270,-2.3987157344818115,-2.107879400253296,0.07164847105741501,-6.408625602722168
0,65273,-3.3493740558624268,-2.1381995677948,-3.3699967861175537,-0.6049740314483643
0,65274,1.289218783378601,-0.0055802492424845695,-0.20174112915992737,-1.9327448606491089
0,65277,-0.22552691400051117,-0.15670102834701538,3.328975200653076,-4.231230735778809
0,65278,-2.362525463104248,-0.5547338724136353,-1.0138968229293823,3.062502861022949
0,65281,1.5649701356887817,0.20132353901863098,-3.7273590564727783,6.502749443054199
0,65282,1.0754199028015137,-0.8123376369476318,-3.5521132946014404,8.557172775268555
0,65285,1.3949007987976074,3.261221170425415,3.4151270389556885,-7.4629902839660645
0,65286,1.4205431938171387,2.8270862102508545,3.6001076698303223,-12.50075626373291
0,65289,-2.8708229064941406,-4.9449944496154785,-3.3090009689331055,10.717167854309082
0,65290,-0.3220083713531494,-1.4459317922592163,0.5225973129272461,-1.7019530534744263
0,65293,1.7551662921905518,4.116685390472412,2.0666210651397705,-5.628479480743408
0,65294,-0.030000954866409302,2.193406105041504,0.9267784357070923,9.10632610321045
0,65297,-1.5419939756393433,-2.0006561279296875,-0.6146741509437561,4.821811676025391
0,65298,-0.2398335039615631,-1.123996376991272,-1.6761367321014404,1.4601943492889404
0,65301,1.2671067714691162,-0.8019121289253235,-1.8139634132385254,1.7290327548980713
0,65302,-1.6185749769210815,-4.180157661437988,-2.784547805786133,-6.795328140258789
0,65305,1.2700175046920776,0.35772740840911865,3.7952582836151123,-8.439620971679688
0,65306,2.0087671279907227,2.859407663345337,5.123959064483643,-23.404685974121094
0,65309,-3.3831236362457275,2.172441244125366,-0.3740333616733551,4.652049541473389
0,65310,-0.255733847618103,0.10072766989469528,-3.2746691703796387,51.908164978027344
0,65313,1.5465856790542603,-2.3479599952697754,-2.989732027053833,-13.986272811889648
0,65314,-2.3257198333740234,1.6140532493591309,1.8945038318634033,-33.00904083251953
0,65317,-0.960070788860321,0.07538928091526031,2.771970272064209,14.732336044311523
0,65318,3.3805336952209473,-0.8947327733039856,-1.2074557542800903,9.428093910217285
0,65321,1.8013291358947754,3.063462972640991,-1.2372344732284546,0.9107996225357056
0,65322,-0.6559155583381653,2.8172340393066406,1.1914716958999634,-0.5952662825584412
0,65325,1.8774051666259766,-3.8668906688690186,-0.13380251824855804,-3.037872314453125
0,65326,-0.4288162291049957,-6.911629676818848,-0.8716638684272766,-5.110136032104492
0,65329,-5.101073265075684,1.0209215879440308,0.05822824314236641,-10.39013671875
0,65330,-2.5266458988189697,3.488779067993164,-0.281223326921463,2.8655591011047363
0,65333,4.459132194519043,0.432411253452301,-1.1965136528015137,15.459078788757324
0,65334,3.557246446609497,1.146095871925354,1.8158549070358276,3.546952962875366
0,65337,-1.261679768562317,0.04515742138028145,1.665063738822937,-4.172611236572266
0,65338,0.7942137718200684,-0.9069268107414246,-1.4366223812103271,-7.647725582122803
0,65341,-1.3350563049316406,1.3698705434799194,1.8287822008132935,1.4562283754348755
0,65342,-5.366028308868408,0.6019070148468018,-0.879969596862793,4.468045234680176
0,65345,2.390111207962036,-3.030792713165283,-2.399441719055176,-5.4326276779174805
0,65346,3.501080274581909,-1.1647007465362549,1.521055817604065,-0.09774763882160187
0,65349,-3.506978750228882,0.20401957631111145,-1.5619699954986572,6.61138391494751
0,65350,-0.9240810871124268,-0.4204055964946747,-1.685992956161499,1.8122467994689941
0,65353,1.5563336610794067,4.491273880004883,1.0749948024749756,-11.69302749633789
0,65354,1.751582145690918,2.5157063007354736,1.1656562089920044,-3.9772512912750244
0,65357,-0.176132470369339,-4.928279399871826,0.6709040999412537,-0.7400504946708679
0,65358,-1.7305604219436646,-3.4267611503601074,-0.3187454640865326,-5.231201171875
0,65362,1.478641152381897,3.4868667125701904,1.6663240194320679,18.948516845703125
0,65362,1.6442158222198486,4.239760398864746,0.8154153823852539,15.262791633605957
0,65365,0.2514494061470032,-0.7678599953651428,-1.2951258420944214,-9.622171401977539
0,65366,-0.6573680639266968,-0.6923264861106873,-0.5493977665901184,0.10625655949115753
0,65369,-1.349205732345581,-2.051776885986328,-1.2324912548065186,-12.012380599975586
0,65370,-1.668932557106018,-3.4367220401763916,1.1067947149276733,-31.14335060119629
0,65373,-1.6580729484558105,-0.1327282041311264,0.7155797481536865,17.66477394104004
0,65374,0.4669586718082428,-0.20455051958560944,-2.28981614112854,33.33155822753906
0,65377,2.83309268951416,2.74389386177063,-0.3931475579738617,3.7530722618103027
0,65378,1.1669931411743164,2.1739113330841064,0.3873421251773834,-1.3282983303070068
0,65381,-1.9401670694351196,-3.106106758117676,0.6405194997787476,-25.398584365844727
0,65382,-0.39243024587631226,-0.6719663739204407,0.2344595044851303,-18.174081802368164
0,65385,0.871712327003479,1.4036543369293213,-0.25559180974960327,24.278820037841797
0,65386,0.5112638473510742,1.3970377445220947,3.384399175643921,19.43756675720215
0,65389,1.0613617897033691,2.070392370223999,1.3140015602111816,-14.507935523986816
0,65390,-0.04213589429855347,-0.2696913480758667,-5.001492500305176,-8.540865898132324
0,65393,-0.4777947962284088,-1.6065932512283325,-0.28955885767936707,11.316513061523438
0,65394,0.2634076178073883,-0.48830804228782654,2.3833391666412354,-4.9623942375183105
0,65397,-1.8491356372833252,-1.1710954904556274,-2.398902416229248,-14.554603576660156
0,65398,-0.5968377590179443,0.011585630476474762,-0.44149744510650635,-0.13384853303432465
0,65401,1.261679768562317,1.37058687210083,2.0492520332336426,3.2385599613189697
0,65402,-0.9145544767379761,0.5876117944717407,-0.9635619521141052,1.2634060382843018
0,65405,0.19167059659957886,-1.214810848236084,0.44722306728363037,6.487969398498535
0,65406,-0.0774376392364502,-2.419557571411133,1.7884459495544434,-1.465280294418335
0,65409,0.9282094836235046,3.0646162033081055,-2.494966506958008,15.428702354431152
0,65410,2.1584815979003906,1.9242351055145264,-1.3423432111740112,13.298680305480957
0,65413,-2.035853862762451,-4.606042861938477,2.6998510360717773,-28.82962989807129
0,65414,-3.0952556133270264,-2.065415859222412,1.4244816303253174,-23.743820190429688
0,65417,0.3402588963508606,2.2060210704803467,-3.169559955596924,17.818073272705078
0,65418,1.1751940250396729,1.4780923128128052,-2.280740976333618,29.97963523864746
0,65421,2.4433491230010986,2.515267848968506,2.054722547531128,-13.289670944213867
0,65422,2.903496742248535,4.401043891906738,3.950582265853882,-23.70924949645996
0,65425,-2.9672720432281494,-4.070514678955078,1.5130664110183716,9.880366325378418
0,65426,-1.020270586013794,-4.7416605949401855,-2.565547466278076,11.570192337036133
0,65429,0.1205812469124794,3.104156017303467,-3.3668859004974365,3.3430957794189453
0,65430,-4.294429779052734,-0.19271180033683777,-2.5107624530792236,-2.8188116550445557
0,65433,6.7031683921813965,-1.9820303916931152,3.3513195514678955,-7.342665195465088
0,65434,5.111809253692627,1.0150659084320068,3.5787007808685303,-8.17724323272705
0,65437,-11.654020309448242,0.15823251008987427,-1.0847220420837402,-12.070054054260254
0,65438,-3.6341748237609863,-0.432375967502594,0.14448429644107819,1.85997474193573
0,65441,6.885159492492676,0.12279795855283737,-0.9451248049736023,27.07193946838379
0,65442,1.9067943096160889,-0.6417022347450256,-1.1078956127166748,13.679879188537598
0,65445,-0.3269276022911072,0.44283026456832886,1.1040581464767456,-19.54437828063965
0,65447,2.2798779010772705,2.5428671836853027,-0.7111899852752686,-12.79201889038086
0,65448,-0.8176606297492981,2.0313405990600586,-1.575211763381958,3.741147041320801
0,65451,-4.14592981338501,-2.801314353942871,-0.5005491375923157,18.747039794921875
0,65452,0.5425557494163513,-4.648408889770508,-0.8630077242851257,18.69383430480957
0,65455,3.67783784866333,2.0963327884674072,3.5139193534851074,-33.858577728271484
0,65456,0.650621771812439,3.764890670776367,4.2248640060424805,-23.300779342651367
0,65458,-4.796133041381836,-1.371104121208191,-3.090646982192993,28.68514633178711
0,65461,-1.5053943395614624,-0.9525194764137268,-2.906790256500244,6.9535088539123535
0,65462,2.243436336517334,-0.050144556909799576,0.6745973825454712,-9.269960403442383
0,65465,-1.127037763595581,-1.6603363752365112,0.28746113181114197,-4.710599899291992
0,65466,0.12918834388256073,0.5496603846549988,0.872741162776947,-5.496424674987793
0,65469,1.848978877067566,1.7558482885360718,0.7071986794471741,2.687587022781372
0,65470,0.5607725977897644,-0.479643315076828,-0.5377295613288879,9.771206855773926
0,65473,-0.5898433923721313,-0.5232027769088745,-1.4657548666000366,1.674461841583252
0,65474,-0.809817373752594,1.1017035245895386,-0.4397076964378357,-5.879745960235596
0,65477,1.6076686382293701,1.0073872804641724,2.8516149520874023,2.740475654602051
0,65478,0.8735088109970093,0.0049526020884513855,1.2863651514053345,5.780340671539307
0,65481,-1.3380693197250366,-1.8666775226593018,-4.395640850067139,5.170391082763672
0,65482,1.6809146404266357,-2.052494525909424,-3.6487832069396973,-0.6542059779167175
0,65485,0.17046840488910675,0.31201493740081787,3.9094719886779785,-14.592028617858887
0,65486,-5.373411655426025,-0.8045535683631897,2.8674769401550293,-27.42856216430664
0,65489,-1.3998337984085083,0.12241629511117935,-1.6446585655212402,10.139199256896973
0,65490,5.194033622741699,3.0281472206115723,-0.17984066903591156,46.44598388671875
0,65493,3.7986793518066406,2.8086864948272705,2.0504748821258545,-10.551755905151367
0,65494,-2.181612253189087,0.06530463695526123,0.5053635239601135,-30.911083221435547
0,65497,-1.4415463209152222,-1.8298165798187256,-1.6115046739578247,10.483819961547852
0,65498,2.034123420715332,1.1445064544677734,-0.16991598904132843,15.047041893005371
0,65501,-2.7900912761688232,-2.256845712661743,-2.096123456954956,-1.9384443759918213
0,65502,-2.4333314895629883,-2.766908884048462,0.47368985414505005,-16.01494026184082
0,65505,2.521904706954956,2.5606510639190674,0.6635065078735352,6.571892261505127
0,65506,1.1365488767623901,-0.857901930809021,-4.308628082275391,27.058134078979492
0,65509,-2.9299051761627197,-0.4759213626384735,3.335310697555542,-23.744600296020508
0,65510,-1.4054120779037476,3.905820608139038,5.7725348472595215,-38.60493087768555
0,65513,3.565917491912842,-0.9246925711631775,-3.1692049503326416,27.178634643554688
0,65514,1.3089971542358398,-2.702352285385132,-1.7098681926727295,30.513906478881836
0,65517,-2.1320958137512207,2.8287136554718018,2.630654811859131,-14.473306655883789
0,65518,-0.19838374853134155,-0.04886419326066971,-1.4516462087631226,-2.1492199897766113
0,65521,1.025160312652588,-4.998685359954834,-4.148595333099365,2.7738285064697266
0,65522,-2.0113561153411865,-0.7336275577545166,0.6384932398796082,-26.89643669128418
0,65525,0.12100439518690109,4.031469345092773,4.675713539123535,4.721375942230225
0,65526,3.0121240615844727,2.1971960067749023,1.230770230293274,28.176034927368164
0,65529,0.12193557620048523,-0.5397741794586182,-2.184802293777466,-8.481045722961426
0,65530,-0.9672970771789551,-0.06381408870220184,-2.1800315380096436,-7.469648361206055
0,65533,-0.8072851300239563,-1.2421996593475342,0.09902691096067429,0.037597667425870895
0,65534,2.069634437561035,-2.9995975494384766,1.0616044998168945,-4.681797027587891
0,65537,0.6264519691467285,-0.37189871072769165,0.917755126953125,7.565168380737305
0,65538,-2.6000123023986816,2.701704263687134,0.028326300904154778,6.333735466003418
0,65541,-0.766581654548645,0.9636975526809692,-1.9781684875488281,-1.5844875574111938
0,65542,-2.435453414916992,-0.9042422771453857,1.6516032218933105,-1.4453468322753906
0,65545,2.8701488971710205,1.2031217813491821,4.144351005554199,0.6417672634124756
0,65546,4.967239856719971,0.5403445959091187,-2.9471850395202637,3.7962143421173096
0,65549,-5.0182061195373535,-0.6743106245994568,-5.771598815917969,-1.7236824035644531
0,65550,-0.9553018808364868,1.4280710220336914,2.99192214012146,-7.987590789794922
0,65553,2.7631404399871826,-2.006791353225708,1.215322732925415,-3.140089273452759
0,65554,-0.7932257056236267,-4.203019618988037,-3.0485360622406006,1.6192082166671753
0,65557,0.13140609860420227,1.9360926151275635,2.4512219429016113,0.6304941177368164
0,65558,-2.445702314376831,2.267688035964966,0.03214164450764656,-3.3291401863098145
0,65561,0.36755871772766113,0.22929240763187408,-0.9088168144226074,2.770270347595215
0,65562,1.9186325073242188,0.6065369248390198,1.8649790287017822,11.295307159423828
0,65565,-0.7740946412086487,-1.342100977897644,-0.20762993395328522,2.1599531173706055
0,65566,0.4434814453125,0.597701907157898,0.20688191056251526,-6.801656723022461
0,65569,-0.6191815137863159,1.570406198501587,1.3672959804534912,-11.05793571472168
0,65570,-1.6438405513763428,-0.6781986951828003,-0.054854873567819595,-5.8429741859436035
0,65573,0.9643627405166626,-1.4952685832977295,-1.474332571029663,16.278432846069336
0,65574,1.582744836807251,0.4658702313899994,-1.167270541191101,9.748366355895996
0,65577,-1.196533441543579,1.2451505661010742,1.0347992181777954,-10.177042961120605
0,65578,1.8371856212615967,-0.7060064077377319,0.6927778124809265,-3.4300425052642822
0,65581,0.0015556002035737038,-2.83782958984375,-3.3991854190826416,-3.015533924102783
0,65582,-3.3189945220947266,-1.9623925685882568,-2.3806095123291016,-14.861532211303711
0,65585,2.8402371406555176,3.624528408050537,4.694041728973389,6.881791114807129
0,65586,1.6845747232437134,2.2766852378845215,3.2107291221618652,19.844552993774414
0,65589,-1.6938749551773071,-2.4447004795074463,-4.029741287231445,2.24153208732605
0,65590,-1.0790594816207886,-1.1392199993133545,-0.8433290123939514,2.902280807495117
0,65593,0.7069849371910095,1.7443000078201294,2.331491470336914,-2.0564677715301514
0,65594,0.11785080283880234,0.513868510723114,0.14363057911396027,-8.698421478271484
0,65597,0.20604941248893738,0.055211808532476425,1.7777636051177979,-8.799565315246582
0,65598,1.3656991720199585,1.59224534034729,0.26986321806907654,-5.347457408905029
0,65601,-4.183524131774902,-2.1711320877075195,-4.058224201202393,4.604080677032471
0,65602,-1.158693552017212,-2.512794017791748,-1.1454932689666748,11.04977035522461
0,65605,6.046489238739014,0.9288347959518433,1.9157350063323975,12.13744831085205
0,65606,2.230555534362793,1.5166172981262207,2.2680630683898926,-4.310607433319092
0,65609,-3.9646873474121094,2.0982134342193604,2.3506197929382324,-25.94227409362793
0,65610,-3.80965518951416,-1.776084065437317,-4.3869194984436035,-9.590262413024902
0,65613,0.8360694646835327,-1.8056535720825195,-4.402578353881836,39.68193054199219
0,65614,2.70652174949646,3.1239888668060303,2.697918176651001,30.562074661254883
0,65617,0.15589837729930878,-1.1223200559616089,2.5279533863067627,-43.43280029296875
0,65618,-1.5984402894973755,-3.3839704990386963,-0.9518219232559204,-38.78406524658203
0,65621,-1.3269940614700317,1.7023051977157593,-0.7659355998039246,15.94279956817627
0,65622,0.04577764496207237,1.839119791984558,2.8747031688690186,10.649906158447266
0,65625,1.934691071510315,-0.6908443570137024,-1.3580691814422607,18.277978897094727
0,65626,1.7921414375305176,1.0149346590042114,-3.0782318115234375,17.155149459838867
0,65629,0.8348493576049805,0.9563442468643188,3.284921169281006,-20.07964515686035
0,65630,-0.5763865113258362,-0.9868901968002319,1.7166508436203003,-14.886178970336914
0,65633,-1.9166381359100342,-1.6134231090545654,-1.9461318254470825,1.1430060863494873
0,65634,-0.33268675208091736,-1.1437394618988037,0.04053373262286186,-1.6374330520629883
0,65637,0.07984711229801178,-0.043437108397483826,-0.09151265025138855,13.223994255065918
0,65638,-0.1295507699251175,1.74795663356781,-1.479012131690979,14.196486473083496
0,65641,0.772624671459198,3.0798962116241455,1.641347050666809,-12.205645561218262
0,65642,0.09336346387863159,-1.4664684534072876,2.5891270637512207,-10.264168739318848
0,65645,-0.44616270065307617,-2.6142497062683105,-1.3381538391113281,3.9872796535491943
0,65646,-0.9468187093734741,1.6480470895767212,-2.869873046875,2.9372363090515137
0,65649,0.8564946055412292,-0.20367343723773956,-0.44691014289855957,-3.351086378097534
0,65650,0.5389684438705444,-1.9368942975997925,0.788192093372345,-5.7105793952941895
0,65653,-4.753537178039551,-0.12572316825389862,1.0942102670669556,-4.265607833862305
0,65655,0.12797053158283234,0.7307078838348389,-0.038810886442661285,0.6426764130592346
0,65656,6.980101108551025,3.201990842819214,0.5155052542686462,13.836295127868652
0,65659,1.7544455528259277,2.8535330295562744,2.1348729133605957,13.701227188110352
0,65660,-2.405379295349121,-2.1716179847717285,-1.9294546842575073,-3.6711268424987793
0,65663,-1.4795838594436646,-4.7108659744262695,-1.6805970668792725,-20.213117599487305
0,65664,-1.3354169130325317,-1.141110897064209,0.6223838329315186,-14.771868705749512
0,65667,-1.6057878732681274,1.4064799547195435,-3.0314061641693115,21.739627838134766
0,65668,1.0741697549819946,-0.6587704420089722,-0.9565756320953369,24.068477630615234
0,65671,3.537416696548462,1.878550410270691,5.3938493728637695,-23.046287536621094
0,65672,-1.250629186630249,2.1993448734283447,2.161133289337158,-18.461196899414062
0,65675,-3.941633701324463,-1.7587512731552124,-3.447336435317993,15.334528923034668
0,65676,1.3406951427459717,-0.3439442813396454,-0.4330345392227173,8.735320091247559
0,65679,1.6507773399353027,1.3300999402999878,1.4546408653259277,1.6869688034057617
0,65680,0.31011083722114563,0.9725771546363831,-2.9212594032287598,-0.7681469321250916
0,65683,2.215609312057495,-0.45549848675727844,-0.10696955025196075,-14.308085441589355
0,65684,-1.7410143613815308,-1.8261889219284058,3.7946085929870605,-7.018751621246338
0,65687,-2.4874043464660645,0.5188243389129639,0.9362960457801819,13.094051361083984
0,65688,2.0078201293945312,1.6957283020019531,-0.4575034976005554,4.6675567626953125
0,65691,0.180184006690979,-2.45318865776062,-2.063225746154785,-12.18896770477295
0,65692,-2.5560834407806396,-2.302391529083252,-2.033463954925537,-4.078195095062256
0,65695,1.2229738235473633,0.8876802325248718,0.2296489179134369,13.038637161254883
0,65696,1.9341715574264526,0.32101374864578247,1.4197183847427368,6.314075469970703
0,65699,-0.7983894348144531,0.7766213417053223,0.33883845806121826,-10.678777694702148
0,65700,1.844826102256775,2.805623769760132,0.5789629220962524,4.154331207275391
0,65703,-0.9886265993118286,-0.5168803334236145,-0.18814629316329956,12.487519264221191
0,65704,-3.009296417236328,-3.7920210361480713,-2.167158603668213,-7.631053447723389
0,65707,0.705257773399353,0.7134104371070862,1.758489966392517,-9.186667442321777
0,65708,-0.777324914932251,2.313321113586426,1.1375420093536377,-1.8087385892868042
0,65711,-0.8322879076004028,-0.732056736946106,-3.0543510913848877,3.405247926712036
0,65712,3.8286807537078857,0.024773482233285904,0.7117656469345093,13.902175903320312
0,65715,3.5066850185394287,1.52745521068573,2.4907705783843994,-7.244106292724609
0,65716,-3.136566162109375,-0.7287746667861938,-1.0216282606124878,-16.531015396118164
0,65719,-3.7455570697784424,-1.1292439699172974,0.14062267541885376,12.923134803771973
0,65720,1.178038239479065,0.3425258994102478,0.04843934625387192,2.2900173664093018
0,65723,0.5813394784927368,-1.5771583318710327,-1.0258280038833618,-15.069624900817871
0,65724,-0.2551782727241516,-0.9082344770431519,1.5641241073608398,11.216937065124512
0,65727,2.6953518390655518,3.0674350261688232,-0.485416978597641,16.903743743896484
0,65728,0.2610743045806885,2.5698814392089844,0.029371751472353935,-15.905014038085938
0,65731,-3.3061375617980957,-0.30798378586769104,1.3448021411895752,-15.476959228515625
0,65733,0.37599217891693115,-1.5785213708877563,-0.8355258703231812,9.686091423034668
0,65734,2.178954601287842,-0.24262592196464539,-0.16641859710216522,12.446467399597168
0,65737,-1.4886833429336548,-0.598698616027832,-1.021049976348877,10.302820205688477
0,65738,-0.11009110510349274,-1.218344807624817,-1.9261839389801025,6.840946674346924
0,65741,-1.0490010976791382,-1.886104941368103,-0.5898900032043457,-40.10437774658203
0,65742,-3.0874788761138916,-1.3029794692993164,0.8509773015975952,-32.662330627441406
0,65745,4.689105033874512,4.684297561645508,2.027613878250122,52.97379684448242
0,65746,3.675558090209961,2.1582143306732178,0.9102478623390198,22.0883846282959
0,65749,-4.408341884613037,-2.937021017074585,-2.365128755569458,-24.585479736328125
0,65750,-2.0290098190307617,-2.0754828453063965,-1.7079631090164185,5.51486349105835
0,65754,1.6102492809295654,-1.2455424070358276,1.4536972045898438,-2.85296893119812
0,65755,1.1688122749328613,0.8907532691955566,1.3436744213104248,-9.268421173095703
0,65756,-0.0016684860456734896,3.329305648803711,0.5650120377540588,2.2890844345092773
0,65759,-0.41602787375450134,2.3905489444732666,0.8369512557983398,-3.012087106704712
0,65760,0.05345316603779793,-1.9714897871017456,0.02413252741098404,0.668287992477417
0,65763,0.5317819118499756,-1.2817562818527222,-1.2498862743377686,9.072733879089355
0,65764,-0.4416770935058594,1.7209446430206299,-0.14988471567630768,-3.13834810256958
0,65767,-0.6115270853042603,0.1859058141708374,0.8996520042419434,-1.1519345045089722
0,65768,0.8321222066879272,-2.443857192993164,-1.8331730365753174,7.570870876312256
0,65771,-0.9873179793357849,-1.3194570541381836,-0.25173890590667725,-14.029546737670898
0,65772,-0.46048659086227417,1.530518651008606,2.3264312744140625,-14.027758598327637
0,65775,-0.056854117661714554,-0.5027519464492798,-0.9136497974395752,14.129209518432617
0,65776,-0.21292342245578766,0.3159164488315582,-0.17024007439613342,11.771899223327637
0,65779,3.5008153915405273,3.2007429599761963,0.6793083548545837,-4.394784927368164
0,65780,0.2679964303970337,-1.7096092700958252,-0.6479241847991943,-1.8963019847869873
0,65783,-2.767390727996826,-1.960539698600769,0.8018357157707214,4.7735724449157715
0,65784,0.3911952078342438,0.7771549224853516,-0.6603979468345642,3.345583438873291
0,65787,0.049726586788892746,-2.0408267974853516,-2.1386563777923584,-3.4091780185699463
0,65788,-1.7731177806854248,0.6099592447280884,0.8084173202514648,-8.38865852355957
0,65791,-0.2501290440559387,2.010849952697754,1.3930538892745972,-3.0641674995422363
0,65792,2.499467611312866,-0.38262373208999634,0.4800974428653717,6.176743507385254
0,65795,1.0638341903686523,0.8982036113739014,-0.40311241149902344,5.094137668609619
0,65796,-1.6730544567108154,0.05781255289912224,-1.861188530921936,-0.30755284428596497
0,65799,0.37105605006217957,-1.4124990701675415,1.1391876935958862,-3.001594066619873
0,65800,0.4964623749256134,0.5296913981437683,2.2839291095733643,0.6934881806373596
0,65803,-2.0519297122955322,1.6477665901184082,-0.20360346138477325,2.612698554992676
0,65804,-0.23772846162319183,0.20054736733436584,-1.724692702293396,-4.124969482421875
0,65807,2.640540838241577,-1.6732274293899536,-1.2369933128356934,-1.6997541189193726
0,65808,-0.020449617877602577,-3.039640426635742,0.25766491889953613,0.4901387691497803
0,65811,-2.394109010696411,1.0001142024993896,0.9656293392181396,-2.3431556224823
0,65812,0.7461246848106384,3.121731996536255,1.418375015258789,-4.062668323516846
0,65815,0.5856967568397522,-0.43845000863075256,-1.469627022743225,0.002273491583764553
0,65816,-0.3693089783191681,1.1206903457641602,-0.5146986246109009,14.328927040100098
0,65819,-0.1366739124059677,-1.3225393295288086,0.20059460401535034,11.192105293273926
0,65820,0.281380295753479,-4.049483299255371,-1.9701662063598633,-10.5475435256958
0,65823,0.831538200378418,1.4836941957473755,3.112213611602783,-14.410736083984375
0,65824,0.08441673219203949,2.99636173248291,2.8221826553344727,4.947983741760254
0,65827,1.2430733442306519,0.8229053020477295,-2.957770586013794,4.841381549835205
0,65828,0.3481729030609131,-1.5687681436538696,-2.0177597999572754,-4.29391622543335
0,65831,-2.955707550048828,-1.9872667789459229,1.6017214059829712,-1.1029915809631348
0,65832,-1.9150673151016235,-0.014427532441914082,0.12959396839141846,0.7474903464317322
0,65835,1.519100546836853,-0.09073184430599213,-1.9312634468078613,3.468674659729004
0,65836,1.0209126472473145,1.0769374370574951,0.6588731408119202,3.9553422927856445
0,65839,-0.5680069923400879,0.8770620226860046,0.6611469984054565,-3.7293484210968018
0,65840,0.13850773870944977,0.2997593581676483,-0.5841131210327148,-2.8694422245025635
0,65843,0.0675925761461258,1.5272454023361206,0.540067195892334,-4.683274745941162
0,65844,-0.9511271119117737,-0.5464508533477783,1.2872698307037354,-1.9769437313079834
0,65847,0.6842027902603149,-1.2247251272201538,0.2957631051540375,11.046259880065918
0,65848,1.132887840270996,-0.21219030022621155,-1.2791948318481445,1.4231626987457275
0,65852,0.7582231760025024,0.7877735495567322,0.1814289093017578,-5.868222713470459
0,65852,0.9487736225128174,1.5198251008987427,2.4174654483795166,-4.695711612701416
0,65855,-1.1366240978240967,-1.9849249124526978,-1.59402334690094,5.224335193634033
0,65856,-2.3666298389434814,-3.444058656692505,-2.621560573577881,9.494431495666504
0,65859,-0.5145127177238464,0.4668846130371094,0.5792027115821838,0.24999631941318512
0,65860,1.477506399154663,1.2523958683013916,-0.3633301258087158,2.8593525886535645
0,65863,0.13701801002025604,0.6255281567573547,2.4589297771453857,-11.442800521850586
0,65864,0.42560210824012756,1.539299726486206,0.2700437307357788,-14.488968849182129
0,65867,1.0503513813018799,0.4927205741405487,-3.644716739654541,4.860328197479248
0,65868,-1.2893457412719727,-0.44123950600624084,1.6380271911621094,5.266534805297852
0,65871,-1.1163028478622437,-0.027421720325946808,2.4446234703063965,5.9360198974609375
0,65872,1.8499267101287842,0.10354719310998917,-0.273544579744339,0.5164143443107605
0,65875,0.8615562319755554,0.3822403848171234,-1.854878544807434,-1.0059219598770142
0,65876,-1.9475429058074951,0.09506452083587646,-0.17241843044757843,-0.5935367941856384
0,65879,0.1813347488641739,-2.1977765560150146,1.500271201133728,-2.817081928253174
0,65880,0.40023231506347656,-1.0002706050872803,-1.9898228645324707,5.701945781707764
0,65883,-0.9649462103843689,3.1618337631225586,0.31327179074287415,-3.9922497272491455
0,65884,0.4092937707901001,0.6437265872955322,2.467754364013672,-7.134426593780518
0,65887,-0.3555046021938324,-2.6190743446350098,-2.1402692794799805,8.377047538757324
0,65888,-1.1131740808486938,-0.8043225407600403,-1.1804871559143066,8.573687553405762
0,65891,1.5983290672302246,0.26606979966163635,2.074453830718994,-2.8326478004455566
0,65892,0.6075453162193298,-0.7449871897697449,-0.25875210762023926,-10.148887634277344
0,65895,-1.4261177778244019,0.38542190194129944,-1.5090861320495605,-3.733788013458252
0,65896,1.024446725845337,2.078040838241577,1.027084231376648,1.566129207611084
0,65899,0.6716456413269043,0.17354772984981537,1.0876328945159912,0.49051612615585327
0,65900,-0.169905424118042,-0.7041694521903992,-0.012449383735656738,6.68751859664917
0,65903,-0.32345929741859436,-0.5792237520217896,-1.0933454036712646,20.629562377929688
0,65904,0.2844269275665283,1.4751707315444946,0.2159920185804367,-5.616520881652832
0,65907,0.7874417304992676,0.030773403123021126,0.34301111102104187,-32.008541107177734
0,65908,-2.210707664489746,-3.3138465881347656,-2.484238624572754,-1.1797771453857422
0,65911,-1.607425570487976,0.5782238841056824,0.41497960686683655,3.735391139984131
0,65912,0.8309996128082275,0.5606585741043091,1.9455163478851318,13.028321266174316
0,65915,2.562553644180298,1.7763367891311646,1.5164638757705688,17.595136642456055
0,65916,1.858249545097351,3.38545823097229,-0.17901122570037842,-12.054957389831543
0,65919,-1.9395371675491333,-3.200206995010376,-2.604459047317505,-13.54272174835205
0,65920,-1.5447605848312378,-3.263537883758545,0.26218554377555847,3.9136173725128174
0,65923,0.706866443157196,1.1299428939819336,1.342259407043457,7.091055393218994
0,65924,0.6475748419761658,2.490723133087158,0.271322101354599,-2.589909315109253
0,65927,-0.8858534097671509,0.0816246047616005,0.6016066074371338,2.885641098022461
0,65928,-0.0914086401462555,-2.090355396270752,-0.47455182671546936,2.2320497035980225
0,65931,1.33811616897583,1.4952138662338257,-0.7961416244506836,-3.4936561584472656
0,65932,-1.0717209577560425,0.7822335958480835,-0.4598325788974762,0.09426450729370117
0,65935,-1.286665678024292,-1.4731825590133667,-0.8468224406242371,-2.4079222679138184
0,65936,0.06550497561693192,-0.4094967842102051,0.6759738326072693,-4.1227946281433105
0,65939,1.015328049659729,-0.24291221797466278,2.2952098846435547,-4.495388984680176
0,65940,1.689320683479309,-0.025201944634318352,1.2678802013397217,-1.0569095611572266
0,65943,-0.7193188667297363,0.04519548639655113,-3.341966152191162,9.115191459655762
0,65944,-1.091845989227295,2.4555976390838623,-3.0589513778686523,3.244354248046875
0,65947,2.938037633895874,0.42628219723701477,2.591207265853882,0.06422538310289383
0,65948,1.442813754081726,-2.850905179977417,0.3998223543167114,3.4810566902160645
0,65950,-4.905128002166748,-0.024225203320384026,-0.6728979349136353,-3.5919816493988037
0,65953,-2.206775188446045,0.4211471378803253,1.6827452182769775,-2.0962207317352295
0,65954,2.947073459625244,0.502091646194458,-0.010222677141427994,0.12886501848697662
0,65957,1.1475797891616821,0.14189712703227997,0.14487621188163757,-2.0550944805145264
0,65958,-2.821760416030884,-0.9493043422698975,-0.5119501352310181,1.510696291923523
0,65961,-0.6968174576759338,1.2460825443267822,-1.7080721855163574,-0.7894853949546814
0,65962,3.4803876876831055,-0.16993911564350128,1.3671836853027344,-5.256876468658447
0,65965,-0.17123854160308838,-1.9254363775253296,0.5654810070991516,0.5799236297607422
0,65966,-2.541306972503662,0.4095596969127655,-1.2193784713745117,9.3306245803833
0,65969,0.9349080920219421,1.1343291997909546,1.999537706375122,6.348965167999268
0,65970,1.653144121170044,0.27433276176452637,-0.45977285504341125,1.5823699235916138
0,65973,0.30855804681777954,-0.6925793290138245,-2.4211740493774414,-9.62617301940918
0,65974,0.6549510955810547,0.5442578196525574,1.5282584428787231,-18.59089469909668
0,65977,-1.9723674058914185,-0.43812671303749084,-0.05883832648396492,10.766294479370117
0,65978,-1.6695556640625,-0.962526261806488,-2.2103676795959473,16.313417434692383
0,65981,2.6441237926483154,1.5546311140060425,1.5244957208633423,-15.164092063903809
0,65982,0.5366430878639221,0.45880454778671265,2.763481616973877,-9.352400779724121
0,65985,-1.611463189125061,-0.9404717087745667,-0.5700794458389282,8.216175079345703
0,65986,-0.7086437940597534,-1.6442937850952148,-0.8663440346717834,0.23997768759727478
0,65989,0.749696671962738,0.18530087172985077,0.9593686461448669,12.156538009643555
0,65990,0.38332322239875793,1.250396490097046,-1.4890094995498657,16.64937973022461
0,65993,-1.1458066701889038,0.0986538976430893,-1.1420247554779053,-13.492081642150879
0,65994,2.088881254196167,0.9402897953987122,1.5999425649642944,-23.666000366210938
0,65997,0.6121936440467834,-0.32949766516685486,0.5119723081588745,-4.793662071228027
0,65998,-1.9658962488174438,-1.406973958015442,-1.6934325695037842,31.0081729888916
0,66001,1.2282062768936157,0.815509557723999,-0.7650130987167358,6.363574028015137
0,66002,-0.099641352891922,2.055750608444214,2.214207172393799,-31.980815887451172
0,66005,-1.1555261611938477,-0.43300506472587585,0.5219759345054626,8.081014633178711
0,66006,-0.6553122401237488,-2.557051658630371,-2.3834874629974365,35.264991760253906
0,66009,-0.4419064223766327,0.5568618774414062,-0.5029515624046326,-16.18391990661621
0,66010,2.7638590335845947,2.8692307472229004,3.200895071029663,-50.6849365234375
0,66013,0.956352710723877,-1.2856417894363403,0.14795134961605072,-0.03723693639039993
0,66014,-3.6486153602600098,-2.2097487449645996,-2.9093575477600098,27.065019607543945
0,66017,-0.9506469964981079,-0.3334274888038635,0.8652064800262451,26.795286178588867
0,66018,2.4123482704162598,0.004101208411157131,1.2333282232284546,4.561118125915527
0,66021,0.2500983774662018,1.6936248540878296,-1.2881098985671997,-20.486555099487305
0,66022,-0.18801167607307434,0.8169333338737488,-0.2658715546131134,-1.7754818201065063
0,66025,0.014039206318557262,-1.0962554216384888,1.1213492155075073,5.692840099334717
0,66026,-0.3932276666164398,-0.055938947945833206,0.28144165873527527,-1.6768090724945068
0,66029,0.6596392393112183,0.8567740321159363,-0.17255064845085144,-3.685866355895996
0,66030,-0.16118349134922028,-0.5214957594871521,-0.30668309330940247,0.5490410923957825
0,66033,-0.4133765697479248,0.08279857039451599,0.36626920104026794,4.031538486480713
0,66034,-0.1853707730770111,0.648430585861206,-0.04508483409881592,-0.5163978934288025
0,66037,1.189454436302185,-0.5435094237327576,-1.553342342376709,-6.0208892822265625
0,66038,0.5077385902404785,-0.2971171736717224,0.053929947316646576,-4.416229724884033
0,66041,-2.311795234680176,-0.3210538923740387,-0.07180038094520569,0.2192135602235794
0,66042,0.6181761622428894,-0.3886756896972656,0.4425947070121765,3.7479166984558105
0,66045,1.091504693031311,-0.03871551901102066,1.7494114637374878,0.30274662375450134
0,66046,-0.5653729438781738,0.25112608075141907,-1.4184445142745972,-1.6883797645568848
0,66051,0.10187259316444397,0.22191500663757324,-0.0990283414721489,5.056978225708008
0,66051,-0.2942902445793152,0.9644436836242676,1.759344458580017,7.287134647369385
0,66052,0.21590717136859894,0.6027052402496338,-1.9093905687332153,3.681011199951172
0,66055,0.30959659814834595,-0.9071692824363708,-1.0714399814605713,-7.413761615753174
0,66056,0.16245432198047638,-0.6009164452552795,2.139165163040161,-14.44282341003418
0,66059,-0.550262987613678,-1.1398097276687622,-0.03321449086070061,10.849068641662598
0,66060,0.20966185629367828,0.7409155964851379,-0.6364693641662598,9.685647010803223
0,66063,0.10057195276021957,1.702764868736267,1.5305933952331543,-23.27340316772461
0,66064,-1.801735520362854,-0.7346298694610596,-0.4179805517196655,-8.174728393554688
0,66067,-0.6990964412689209,-0.4971667528152466,-1.4563467502593994,18.02361488342285
0,66068,0.3844367265701294,0.08670147508382797,-0.8430599570274353,8.484881401062012
0,66071,1.7868024110794067,0.1568378061056137,0.9562903642654419,-5.346240520477295
0,66072,2.0864341259002686,0.9379968047142029,3.084427833557129,-2.659605026245117
0,66075,-0.6981202960014343,0.03996030241250992,-0.9159646034240723,6.866849422454834
0,66076,-1.4474403858184814,-2.3837623596191406,-3.9774699211120605,11.39717960357666
0,66079,0.16464905440807343,-0.423099547624588,-0.38867783546447754,-14.307538032531738
0,66080,0.24247239530086517,1.9051330089569092,3.642523765563965,-27.37006378173828
0,66083,-0.12545834481716156,-0.3816972076892853,-0.23867838084697723,11.796541213989258
0,66084,-1.289368748664856,-0.8211794495582581,-3.806422233581543,16.083728790283203
0,66087,0.13470591604709625,1.0282703638076782,2.3047120571136475,4.050334453582764
0,66088,1.3561688661575317,0.9575719237327576,1.9126955270767212,6.783580303192139
0,66091,-0.5765901803970337,-0.15026794373989105,-1.5339019298553467,-8.453947067260742
0,66092,0.3055073320865631,-0.5780584216117859,0.783997118473053,-5.658422946929932
0,66095,-1.3839821815490723,-1.0980676412582397,-0.1894499808549881,-0.16608166694641113
0,66096,-0.46950894594192505,0.8208910822868347,-0.596584677696228,-0.9590237140655518
0,66099,2.7978954315185547,0.6301214098930359,0.7564045190811157,4.090695858001709
0,66100,-1.3466657400131226,-1.5012192726135254,0.28236860036849976,1.373846411705017
0,66103,-1.450644612312317,0.06415365636348724,-1.571218729019165,2.907331943511963
0,66104,1.8723996877670288,-0.17080749571323395,-0.7794317603111267,5.232048034667969
0,66107,0.2080078274011612,0.7165800333023071,1.8682208061218262,-10.808018684387207
0,66108,-0.19663847982883453,0.5173426270484924,0.0885075181722641,-14.171187400817871
0,66111,0.06475912779569626,-1.4207053184509277,-1.509774923324585,14.090906143188477
0,66112,-0.06877319514751434,0.5695083737373352,0.18922622501850128,12.492413520812988
0,66115,0.29000842571258545,-0.34820055961608887,1.2743171453475952,-22.283605575561523
0,66116,-1.330088496208191,0.09512285143136978,0.8289381265640259,-11.831189155578613
0,66119,1.3652349710464478,3.050856351852417,0.8057460784912109,22.38504981994629
0,66120,1.6080584526062012,-0.2550164461135864,-0.5408545136451721,9.434142112731934
0,66123,-2.4367291927337646,-2.4668490886688232,-2.689890146255493,-3.3017354011535645
0,66124,0.3262028694152832,1.4058029651641846,0.1750694066286087,2.9899494647979736
0,66127,0.2354249656200409,0.31287720799446106,1.908519983291626,-10.474480628967285
0,66128,-1.1122796535491943,-1.8457341194152832,-0.08343806862831116,-12.413172721862793
0,66131,0.8866945505142212,0.25264692306518555,-1.9546664953231812,29.580562591552734
0,66132,-1.4403125047683716,-0.7548115849494934,-1.0371366739273071,5.962311744689941
0,66135,-0.040299151092767715,0.03195735067129135,1.0707558393478394,-59.01731491088867
0,66136,2.9140119552612305,2.402009963989258,1.127309799194336,-10.512459754943848
0,66139,-1.791345238685608,-0.2735389471054077,0.8351053595542908,50.40797424316406
0,66140,-1.691956639289856,-2.415289878845215,-0.17628011107444763,21.655427932739258
0,66143,1.3219157457351685,0.5266484022140503,0.5607108473777771,-26.5168399810791
0,66144,1.0808579921722412,0.9603230953216553,-0.8799101710319519,-8.449467658996582
0,66147,1.5122706890106201,-0.5312447547912598,-0.6079351902008057,13.230046272277832
0,66149,-1.311170220375061,0.7339704036712646,2.539241313934326,-1.2790591716766357
0,66151,-1.2459520101547241,-0.34646669030189514,-1.051964521408081,1.590075969696045
0,66152,1.4967643022537231,-0.17238077521324158,-1.913746953010559,4.900796890258789
0,66155,-0.19331292808055878,1.5672950744628906,0.3725486397743225,-5.250754356384277
0,66156,-2.1111032962799072,-0.7156450748443604,-0.6029000878334045,-14.222646713256836
0,66159,0.7231230139732361,-1.3012046813964844,-0.10616272687911987,8.134367942810059
0,66160,2.782181739807129,-0.3182988166809082,-0.3657085597515106,19.36036491394043
0,66163,-0.5195316672325134,0.1318761557340622,1.9881798028945923,-9.090972900390625
0,66164,-1.9379398822784424,2.258974075317383,1.3004446029663086,-14.917093276977539
0,66167,-1.063694715499878,1.0969821214675903,-3.8120808601379395,-5.277533054351807
0,66168,-0.03976542502641678,-2.7682137489318848,0.13183318078517914,2.6805999279022217
0,66171,1.2319082021713257,-1.646641492843628,2.1942243576049805,10.110930442810059
0,66172,2.2191903591156006,1.9285492897033691,-0.30761048197746277,-0.3772539496421814
0,66175,0.04825609549880028,0.46396124362945557,0.6084072589874268,-0.3702620267868042
0,66176,-3.031233310699463,-0.9907380938529968,1.36895751953125,3.716844320297241
0,66179,-0.5853410959243774,0.8296909928321838,-0.22491197288036346,-0.08115417510271072
0,66180,2.6700599193573,-0.0847657099366188,-1.9823299646377563,0.13391460478305817
0,66183,0.727705717086792,-0.15261413156986237,-0.8505925536155701,-0.7778627276420593
0,66184,-2.9006645679473877,-0.45800599455833435,0.5517964959144592,-2.8546924591064453
0,66187,0.14495232701301575,-1.4840654134750366,1.7713117599487305,-3.0730690956115723
0,66188,1.8185468912124634,0.9998992085456848,-0.26138973236083984,-0.0327414907515049
0,66191,0.26773473620414734,2.337191343307495,-1.3428226709365845,-4.328787803649902
0,66192,0.22605910897254944,-2.679232120513916,-0.11710260063409805,0.5024243593215942
0,66195,-1.8902194499969482,-1.9009493589401245,-1.1628363132476807,12.819441795349121
0,66196,-1.3341370820999146,5.542818546295166,1.7256563901901245,10.905194282531738
0,66199,0.40525075793266296,-0.33978697657585144,1.4804579019546509,-10.45051097869873
0,66200,1.3498653173446655,-2.656435966491699,-1.9603039026260376,-14.580353736877441
0,66203,0.3699503242969513,1.7014318704605103,-0.25427770614624023,5.009498596191406
0,66204,-1.2516999244689941,-0.9902816414833069,0.8208369612693787,1.5067496299743652
0,66207,0.3244081735610962,-0.4421006739139557,-0.0606774240732193,-0.7375832796096802
0,66208,1.1869757175445557,0.3192250728607178,-1.540284514427185,7.336361408233643
0,66211,0.022039396688342094,-0.6154590845108032,-0.28018438816070557,-4.386780738830566
0,66212,-1.2006888389587402,0.5402719974517822,2.391726493835449,-13.215376853942871
0,66215,0.785949170589447,1.4573734998703003,1.391417145729065,10.128767967224121
0,66216,1.0162769556045532,0.7886799573898315,-0.2701271176338196,14.14759349822998
0,66219,-2.066694498062134,-2.1792521476745605,-2.9745945930480957,-9.80838680267334
0,66220,0.17579683661460876,-0.5980216860771179,-1.7541712522506714,-3.7430901527404785
0,66223,2.2703959941864014,1.5748330354690552,2.2106292247772217,-2.350393295288086
0,66224,-0.6205340623855591,-2.4040613174438477,0.8909355401992798,-4.613837242126465
0,66227,-0.23626616597175598,0.29782646894454956,0.2897357940673828,8.682154655456543
0,66228,0.14483091235160828,3.4385428428649902,1.6474196910858154,2.2604401111602783
0,66231,-1.7793262004852295,-1.9605686664581299,-1.6746840476989746,0.639647901058197
0,66232,0.5559753775596619,-1.766856074333191,-2.810419797897339,1.7155649662017822
0,66235,0.5160096287727356,0.28574076294898987,1.4191724061965942,-1.3470436334609985
0,66236,-0.48666661977767944,-0.3825947344303131,0.25096648931503296,-2.5392165184020996
0,66239,0.48889824748039246,1.5918149948120117,0.33649158477783203,-3.3353569507598877
0,66240,-0.07018952816724777,-0.3699961304664612,1.364938735961914,2.8158013820648193
0,66243,-0.42727071046829224,-1.6095361709594727,0.10945894569158554,-2.291330099105835
0,66244,-0.7138895988464355,2.547278881072998,1.2080618143081665,-1.7926779985427856
0,66247,0.6318233013153076,1.2625459432601929,-2.766522169113159,14.364267349243164
0,66250,1.1090977191925049,-2.1852548122406006,-2.6827938556671143,2.6804087162017822
0,66251,0.22041809558868408,-0.42013972997665405,2.027686834335327,-22.16355323791504
0,66252,-0.03608629107475281,-0.012178215198218822,0.9766656160354614,-1.5060083866119385
0,66255,-0.9499566555023193,0.9998292922973633,0.5133511424064636,16.916162490844727
0,66256,-0.9873332977294922,1.7586588859558105,0.8519778251647949,-2.7640631198883057
0,66259,0.7858630418777466,-1.7546545267105103,0.26684850454330444,-6.335796356201172
0,66260,0.9721863269805908,-0.35905319452285767,-0.9471478462219238,5.197723388671875
0,66263,0.30414336919784546,0.2442796379327774,-2.4579474925994873,-2.2939350605010986
0,66264,-0.4276221990585327,-1.8680331707000732,1.2159963846206665,-10.038853645324707
0,66267,-0.2760428786277771,1.1190909147262573,0.9191634058952332,7.068135738372803
0,66268,0.34209537506103516,-0.8243300914764404,-3.214899778366089,15.139721870422363
0,66271,-0.024775216355919838,0.06373092532157898,2.2073373794555664,-20.3304386138916
0,66272,0.20929720997810364,4.466341972351074,3.811835289001465,-13.826935768127441
0,66275,-1.4337888956069946,-1.7518022060394287,-2.682529926300049,33.17235565185547
0,66276,-0.642788827419281,-3.2981367111206055,-0.8484129309654236,8.197258949279785
0,66279,0.9467396140098572,1.7817200422286987,1.3767402172088623,-21.709142684936523
0,66280,0.4298272132873535,0.4263666272163391,-1.6165642738342285,-2.503539800643921
0,66283,0.24928522109985352,-1.055134892463684,0.7339116334915161,10.534334182739258
0,66284,0.1327783614397049,1.1026725769042969,0.6455031037330627,5.451532363891602
0,66287,0.9605976939201355,0.4394478499889374,-1.4585239887237549,-6.64872407913208
0,66288,-0.9845167994499207,-0.04840496927499771,1.633784294128418,-18.017515182495117
0,66291,-2.1413557529449463,0.10149230062961578,1.1830813884735107,-4.9264445304870605
0,66292,0.02245674841105938,-1.5709818601608276,-2.112483263015747,18.680278778076172
0,66295,1.6858985424041748,0.46427592635154724,-0.5205425024032593,11.714555740356445
0,66296,0.9189077615737915,1.2846097946166992,1.0539071559906006,-5.9409403800964355
0,66299,-1.5436753034591675,-2.0345993041992188,-2.1192758083343506,-11.089426040649414
0,66300,0.13796007633209229,-1.6558490991592407,-0.9472013115882874,-3.741414785385132
0,66303,1.6146692037582397,2.3873202800750732,3.1977691650390625,7.716562271118164
0,66304,-2.340284585952759,2.3155152797698975,0.854712724685669,4.460402965545654
0,66307,-0.2940579354763031,-0.886254072189331,-1.059495210647583,-3.966250419616699
0,66308,3.2857439517974854,-1.0224589109420776,-0.39380761981010437,0.8522583842277527
0,66311,-0.9440070986747742,-0.8019948601722717,-0.5994643568992615,7.533530235290527
0,66312,-1.2295020818710327,-0.7890530824661255,-0.783771276473999,2.3642406463623047
0,66315,1.497283697128296,0.9514912366867065,0.10798029601573944,-9.318631172180176
0,66316,-0.8899553418159485,0.8803184628486633,2.265237808227539,-10.240891456604004
0,66319,-0.43987253308296204,0.09364970028400421,0.5865350961685181,3.8829667568206787
0,66320,1.0869327783584595,-0.3366716206073761,-2.138828754425049,6.789544582366943
0,66323,-1.031157374382019,-0.7797856330871582,-0.6845616102218628,-4.021732807159424
0,66324,0.46490412950515747,1.0274977684020996,1.2326154708862305,-6.311060428619385
0,66327,1.1722151041030884,0.9376263618469238,2.1852355003356934,6.153420925140381
0,66328,-0.3812524974346161,-0.6095764636993408,0.1404823660850525,17.78328514099121
0,66331,-1.458439826965332,-1.144239068031311,-3.688962936401367,-12.07497501373291
0,66332,-0.5844535827636719,-0.07578900456428528,-0.17367993295192719,-15.649558067321777
0,66335,0.5894354581832886,0.27307531237602234,2.237774133682251,17.73813247680664
0,66336,-0.280252069234848,-0.4482664465904236,-1.4938668012619019,0.16627807915210724
0,66339,1.071887493133545,1.1198898553848267,0.3862763047218323,-7.266927242279053
0,66340,0.09461868554353714,0.5249165892601013,1.999382734298706,2.558758497238159
0,66343,-0.7669282555580139,-0.050491366535425186,-0.755350649356842,-0.7137514352798462
0,66344,0.22315450012683868,-1.2438068389892578,-1.8940318822860718,2.390735387802124
0,66347,-0.434848815202713,-0.8243228197097778,0.4934389591217041,-5.859964847564697
0,66350,-0.7490261197090149,0.27654552459716797,0.9878862500190735,0.9763199687004089
0,66350,0.5401844382286072,-0.6580336689949036,-0.8871397376060486,11.038580894470215
0,66353,0.9872772693634033,0.6026522517204285,-0.37982144951820374,-4.711706161499023
0,66354,-0.5375262498855591,0.4919995069503784,0.5558069348335266,-3.5959019660949707
0,66357,-0.444425106048584,1.2448375225067139,1.0505882501602173,-3.019869804382324
0,66358,1.2248173952102661,0.9837350845336914,-0.44628024101257324,-4.506298065185547
0,66361,0.6776716709136963,-2.1664700508117676,-0.9168149828910828,6.905361175537109
0,66362,-1.466127634048462,-0.6133450269699097,0.8661150932312012,1.5509285926818848
0,66365,-0.15399892628192902,1.2413820028305054,-0.9673342108726501,3.0812718868255615
0,66366,1.0853685140609741,-0.6639952659606934,-1.8324190378189087,5.86569881439209
0,66369,0.35469046235084534,0.07021606713533401,2.488349437713623,-8.65622615814209
0,66370,-1.2248557806015015,-0.4162628650665283,2.181152105331421,-18.71824836730957
0,66373,0.41957348585128784,1.1186312437057495,-0.6032618284225464,12.272801399230957
0,66374,1.4818390607833862,1.9063929319381714,-1.3430101871490479,25.854537963867188
0,66377,-0.6913143992424011,-1.6665246486663818,0.14639925956726074,-17.236759185791016
0,66378,-0.05519028380513191,-0.7511783838272095,0.7531076669692993,-21.0394229888916
0,66381,-1.99600088596344,-0.9135721325874329,-2.9538357257843018,11.874495506286621
0,66382,-1.2568355798721313,-0.8364056348800659,-0.6001091599464417,22.36626434326172
0,66385,2.640378952026367,2.7726099491119385,4.740356922149658,-11.31413745880127
0,66386,-0.14045783877372742,0.826439619064331,0.20865602791309357,-24.42150115966797
0,66389,-2.168794870376587,-2.1195943355560303,-5.1426262855529785,16.34874725341797
0,66390,2.2203245162963867,1.096781849861145,0.8223685622215271,10.36910629272461
0,66393,1.6397321224212646,-0.43263620138168335,4.611604690551758,-8.199370384216309
0,66394,-2.6492044925689697,-2.642472505569458,-0.9384049773216248,3.2064993381500244
0,66397,-0.46800699830055237,1.6586329936981201,-4.028465270996094,0.15679778158664703
0,66398,1.7404826879501343,1.978844165802002,1.4648377895355225,1.1065853834152222
0,66401,0.2483273148536682,-0.8988953828811646,2.281261444091797,-0.7536365389823914
0,66402,-0.9925804138183594,0.6879577040672302,-2.0521159172058105,-2.357908010482788
0,66405,0.0868203267455101,1.0414870977401733,0.2913669943809509,-7.628387928009033
0,66406,0.8555185794830322,-1.9943541288375854,0.5769100785255432,-2.2443528175354004
0,66409,-1.1964192390441895,-0.9212302565574646,-1.3392081260681152,15.108341217041016
0,66410,-1.2791367769241333,0.6295226812362671,0.6943011283874512,-0.4411373436450958
0,66413,1.091225504875183,-0.9765084385871887,0.49618789553642273,-13.952261924743652
0,66414,1.511401891708374,-0.32784542441368103,-1.613412857055664,3.1910970211029053
0,66417,1.166883945465088,2.389137029647827,1.4955482482910156,8.827831268310547
0,66418,-0.5887225866317749,-0.2857772707939148,-0.19138582050800323,-3.7121100425720215
0,66421,-2.3845319747924805,-2.8423056602478027,-1.2180465459823608,-0.9797300100326538
0,66422,-0.052265070378780365,1.1499903202056885,2.684007406234741,-2.3250229358673096
0,66425,2.28857684135437,2.2927043437957764,-0.6151489615440369,3.3302135467529297
0,66426,-0.6946097016334534,0.14539681375026703,-1.2713791131973267,9.327399253845215
0,66429,-3.836914300918579,-1.813300609588623,1.0911378860473633,-8.299362182617188
0,66430,1.3901203870773315,-0.3048112988471985,0.37050068378448486,-8.213727951049805
0,66433,3.805861473083496,1.8994472026824951,-0.7710183262825012,8.149426460266113
0,66434,0.15388086438179016,-1.4336051940917969,-0.5555130839347839,-0.47803714871406555
0,66437,-0.8769321441650391,0.6403167843818665,1.9075804948806763,-4.821390628814697
0,66438,-1.2270218133926392,2.1365904808044434,0.6243391036987305,16.443035125732422
0,66441,1.076675534248352,-3.108567953109741,-2.9605300426483154,0.539008617401123
0,66442,-0.878853440284729,-1.9784817695617676,-1.404263973236084,-19.262672424316406
0,66445,-3.604116678237915,1.770439863204956,2.4351389408111572,-17.86610221862793
0,66446,3.430426597595215,-0.2299686223268509,1.9974099397659302,11.70042896270752
0,66449,3.278421640396118,-0.08222325146198273,-3.0891923904418945,35.53386306762695
0,66450,-3.922511339187622,2.451521396636963,-1.9933345317840576,-11.830458641052246
0,66455,-1.5069289207458496,0.2341129332780838,2.934946298599243,-17.083751678466797
0,66455,2.2134599685668945,-0.28562891483306885,0.6372472643852234,8.300480842590332
0,66456,1.2547228336334229,-0.6729394197463989,0.37661927938461304,-1.1730268001556396
0,66459,-1.0277155637741089,-2.407756805419922,0.8155143857002258,-9.04521656036377
0,66460,-1.497350811958313,-0.9450204372406006,-1.9563188552856445,-3.5422463417053223
0,66463,2.0271155834198,1.6278026103973389,-0.7598421573638916,15.998934745788574
0,66464,1.0411901473999023,4.145998954772949,0.24988394975662231,10.852774620056152
0,66467,-1.5146565437316895,1.0627554655075073,0.8751891255378723,-7.855647087097168
0,66468,-1.3788084983825684,-4.726157188415527,0.26625704765319824,-5.324831485748291
0,66471,0.5786315202713013,-0.1614614725112915,-0.6056336164474487,-1.623213768005371
0,66472,2.333972454071045,2.82806396484375,-1.060585379600525,-3.0225470066070557
0,66475,-2.0458414554595947,-2.231558322906494,-0.5449550151824951,-0.2855844497680664
0,66476,-1.8784120082855225,-1.1759265661239624,1.6323355436325073,2.9044363498687744
0,66479,3.199436664581299,2.0739691257476807,-1.0233418941497803,3.705186605453491
0,66480,-0.17713329195976257,-0.5885410308837891,-0.21049225330352783,-2.9436769485473633
0,66483,-3.0672831535339355,-1.4642125368118286,1.0196478366851807,-4.611670970916748
0,66484,2.2631826400756836,1.7994352579116821,-0.5897417068481445,4.341432094573975
0,66487,1.8967493772506714,0.4089929461479187,1.4267135858535767,0.4196317791938782
0,66488,-1.5424494743347168,-0.18684329092502594,1.581557273864746,-4.469658374786377
0,66491,-0.30468934774398804,-0.017665749415755272,-0.18772123754024506,3.383127212524414
0,66492,0.013845613226294518,-1.6875041723251343,-2.703545570373535,0.012731124646961689
0,66495,0.05545422062277794,0.8495887517929077,-0.8910826444625854,-5.798196792602539
0,66496,-1.467228889465332,1.32444167137146,0.6709851026535034,2.550492763519287
0,66499,-0.4132687747478485,-0.16840945184230804,1.8003220558166504,6.286834239959717
0,66500,2.0460638999938965,-0.18133234977722168,3.0489702224731445,4.500527381896973
0,66503,-0.07645126432180405,-1.3594824075698853,-3.9055027961730957,-8.698302268981934
0,66504,-0.884199857711792,-1.4939132928848267,-2.2178287506103516,-9.213556289672852
0,66507,0.30953627824783325,0.6994926929473877,4.252809047698975,13.654010772705078
0,66508,-0.14505665004253387,1.3655157089233398,-0.11327425390481949,9.081432342529297
0,66511,0.5391920804977417,-0.0760921835899353,-4.052313327789307,-12.862666130065918
0,66512,1.2766085863113403,0.9928794503211975,-0.016062304377555847,-10.20181941986084
0,66515,-1.382496953010559,0.3731133043766022,3.9361484050750732,7.595510482788086
0,66516,-0.15955835580825806,-0.8559445142745972,1.3484513759613037,6.777949333190918
0,66519,0.2115866094827652,0.32365882396698,-3.058204174041748,-0.05133841931819916
0,66520,-1.0989989042282104,-0.46578913927078247,-2.6498117446899414,2.7259774208068848
0,66523,1.4337931871414185,-0.9972497224807739,-0.3630804717540741,-4.080785274505615
0,66524,-0.7335729598999023,-1.525892972946167,0.184493288397789,-7.0526862144470215
0,66527,-1.4572644233703613,1.930478572845459,3.3547213077545166,18.03484535217285
0,66528,1.705063819885254,2.639658212661743,0.40597766637802124,-7.238996505737305
0,66531,0.08795477449893951,-4.150796890258789,-2.181631565093994,-37.37638473510742
0,66532,-1.116546392440796,-0.48428547382354736,1.1107393503189087,18.331266403198242
0,66535,1.4395285844802856,2.5961246490478516,0.8085663318634033,34.096656799316406
0,66536,1.7231109142303467,-1.4120291471481323,0.11194705218076706,-4.683868408203125
0,66539,-1.228286862373352,2.4547393321990967,-1.9379371404647827,-13.872092247009277
0,66540,-1.5730866193771362,-1.0355339050292969,0.39475226402282715,-4.64523983001709
0,66543,1.2143712043762207,-2.5383615493774414,1.2285789251327515,1.2146412134170532
0,66544,0.5945509076118469,4.096861362457275,-0.008551686070859432,-0.239293172955513
0,66547,-1.0785030126571655,-0.48794564604759216,0.39884325861930847,-6.812788009643555
0,66548,0.9925716519355774,-1.6484344005584717,-1.5390962362289429,-2.6619420051574707
0,66551,-1.4734457731246948,0.25868523120880127,0.6335945725440979,10.519806861877441
0,66553,-1.108776569366455,0.09371040761470795,0.395398885011673,6.3731255531311035
0,66554,3.026238203048706,0.9138063788414001,-1.2166446447372437,-5.986317157745361
0,66557,-0.1995530128479004,-0.827555239200592,0.5817415118217468,-2.7858173847198486
0,66558,-1.2657333612442017,-0.7371581792831421,0.47882992029190063,1.4780412912368774
0,66561,-0.8658031225204468,0.07349361479282379,-0.8951863646507263,-1.5007328987121582
0,66563,-0.025668399408459663,0.2270604968070984,-0.12348341196775436,3.2634456157684326
0,66564,1.49086594581604,0.9980437159538269,1.3454856872558594,4.299450397491455
0,66567,-1.1837880611419678,1.5452765226364136,0.018000343814492226,-1.9600975513458252
0,66568,-0.7310589551925659,-0.41451507806777954,-1.1755621433258057,-0.5610325932502747
0,66571,1.4655067920684814,-2.5519235134124756,0.43309083580970764,0.5744458436965942
0,66572,-1.0096046924591064,-1.4860987663269043,0.5673786997795105,-3.5069611072540283
0,66575,-0.3105725944042206,1.1525532007217407,-0.47093498706817627,2.2085933685302734
0,66576,1.9324471950531006,1.6721521615982056,-0.14363837242126465,0.772792637348175
0,66579,-0.6726935505867004,0.20024342834949493,0.32216447591781616,-10.691020011901855
0,66580,-0.35446858406066895,0.001687368843704462,0.1325763761997223,0.7543924450874329
0,66583,0.9508395791053772,0.5473593473434448,-0.04004910588264465,8.324898719787598
0,66584,-0.9798146486282349,-0.8412567377090454,-0.3313711881637573,-0.15974749624729156
0,66587,0.7793342471122742,-0.6985807418823242,-0.6783237457275391,2.1633028984069824
0,66588,1.338270902633667,0.29470017552375793,0.7881228923797607,-0.698758602142334
0,66591,-2.5861446857452393,-1.2320082187652588,-0.13712377846240997,-3.053349733352661
0,66592,0.17791323363780975,-0.22659818828105927,-1.0411649942398071,5.572093963623047
0,66595,0.03053162433207035,-0.04081884026527405,0.18779319524765015,-7.757613182067871
0,66596,-0.6347081661224365,-0.17879289388656616,1.2411272525787354,-9.228798866271973
0,66599,2.2052531242370605,1.8931325674057007,0.981239914894104,16.727487564086914
0,66600,-1.408388376235962,0.9833167195320129,-1.7679864168167114,4.967159748077393
0,66603,0.2766992747783661,-1.3501499891281128,1.2646175622940063,-12.017892837524414
0,66604,2.655337333679199,-1.1279631853103638,3.0045671463012695,2.4390687942504883
0,66607,-0.9911489486694336,1.0326976776123047,-5.724544525146484,11.978055000305176
0,66608,-2.3560562133789062,0.8486428260803223,-2.739880084991455,-6.834018707275391
0,66611,0.749234676361084,-0.3140212595462799,7.017223358154297,-10.08300495147705
0,66612,1.1247035264968872,0.3682995140552521,-0.2973487675189972,10.259383201599121
0,66615,-1.6238691806793213,1.115582823753357,-3.759392023086548,-2.5638840198516846
0,66616,-0.15554046630859375,-0.18842455744743347,1.7262622117996216,-13.365702629089355
0,66619,0.9671608805656433,-1.650813341140747,0.7345714569091797,11.09384536743164
0,66620,-0.9835327863693237,-1.8394120931625366,-1.1751940250396729,11.404531478881836
0,66623,-0.47379136085510254,-1.114357352256775,-1.5318087339401245,-16.7669620513916
0,66624,2.550687313079834,2.5890228748321533,1.8416097164154053,-2.3983871936798096
0,66627,1.7074512243270874,1.8115590810775757,2.399714708328247,8.690502166748047
0,66628,-1.9146537780761719,-2.6242172718048096,-1.4728279113769531,-2.1683356761932373
0,66631,-1.8178454637527466,1.514167308807373,0.7543556690216064,-4.537320137023926
0,66632,0.09807329624891281,2.7315235137939453,1.0857212543487549,3.7824294567108154
0,66635,1.9702471494674683,-2.8792784214019775,-5.681234359741211,25.18343162536621
0,66636,-0.3159027397632599,-2.9788572788238525,-4.039973735809326,-11.19717788696289
0,66639,-3.047982692718506,1.40277898311615,6.477609157562256,-43.950069427490234
0,66640,1.0380326509475708,2.990269899368286,4.431766033172607,4.39440393447876
0,66643,1.3629146814346313,0.09498807042837143,-2.1474504470825195,28.272342681884766
0,66644,-0.28638598322868347,-2.3317806720733643,-1.25333571434021,12.65688419342041
0,66647,0.21335791051387787,-0.2946109175682068,-0.3457315266132355,1.1617310047149658
0,66648,-1.35868501663208,0.6661789417266846,0.020049739629030228,-13.637224197387695
0,66651,-0.5541189312934875,-0.47873684763908386,-0.6793846487998962,-8.014555931091309
0,66652,1.1962860822677612,1.1970328092575073,0.36501526832580566,3.316967010498047
0,66655,0.7809978127479553,-0.4652996361255646,0.26782846450805664,1.3775981664657593
0,66656,-0.09026431292295456,-0.5119549632072449,-0.4051491618156433,4.244816303253174
0,66659,-0.9154118895530701,2.0980992317199707,2.102908134460449,4.863425254821777
0,66660,0.7298574447631836,-0.590465784072876,-0.9887782335281372,-5.117218017578125
0,66663,1.3520642518997192,-1.9250566959381104,-2.7967610359191895,-3.5317931175231934
0,66664,-0.9363976120948792,0.1799563765525818,1.1393625736236572,3.1486315727233887
0,66667,-0.5760065317153931,0.12785936892032623,1.1743719577789307,-2.132357358932495
0,66668,-0.2694525122642517,0.7938472628593445,-0.44526150822639465,-2.6975948810577393
0,66671,0.14209194481372833,0.7352517247200012,-0.4560849368572235,1.8824026584625244
0,66672,2.720237970352173,-1.6307154893875122,0.8931691646575928,1.953399896621704
0,66675,-1.6979169845581055,-0.41716188192367554,0.18334399163722992,1.0791466236114502
0,66676,-3.3358185291290283,1.6517653465270996,-0.6394460797309875,-2.247575283050537
0,66679,2.7135941982269287,0.18168599903583527,0.6146385073661804,-0.11866191029548645
0,66680,0.9105514883995056,-1.4889888763427734,-1.0218496322631836,3.6620993614196777
0,66685,-2.271589994430542,-0.624575138092041,-0.5143367648124695,-1.1359162330627441
0,66685,0.1575007140636444,2.1776068210601807,1.3523679971694946,-0.197874516248703
0,66687,0.6821922659873962,1.5535976886749268,0.9550294280052185,-0.2854883670806885
0,66688,-0.5090336799621582,-2.7187142372131348,-0.16184036433696747,-4.4099273681640625
0,66691,2.3454816341400146,-0.3461570143699646,-0.4423309564590454,-0.8739547729492188
0,66692,0.3546968400478363,1.4781867265701294,-0.44096705317497253,2.836881637573242
0,66695,-2.3330154418945312,-0.6274325847625732,0.44939759373664856,3.688911199569702
0,66696,0.3740854561328888,0.3849986493587494,2.00998854637146,-0.376434862613678
0,66699,-1.5787279605865479,-0.7071592211723328,-3.52353835105896,-7.836421966552734
0,66700,-0.2791074216365814,-1.5267616510391235,-3.6707324981689453,-0.9804205298423767
0,66703,1.8674414157867432,1.3307926654815674,3.602426767349243,14.027497291564941
0,66704,-0.4545429050922394,1.2915948629379272,2.179574489593506,2.6354308128356934
0,66707,0.6064262390136719,-0.9579135775566101,-0.5349494814872742,-14.252452850341797
0,66708,1.1101511716842651,-0.9128220081329346,-0.30544188618659973,-1.681705117225647
0,66711,-1.1800687313079834,0.5036813616752625,-0.6471379399299622,14.91086196899414
0,66712,-0.938561737537384,1.6295068264007568,0.627802848815918,5.1468987464904785
0,66715,0.9739736318588257,-1.6392008066177368,-0.4410495460033417,-18.252063751220703
0,66716,0.3517861068248749,-1.549532413482666,-0.4797332286834717,-14.619063377380371
0,66719,-0.02019200660288334,2.5808756351470947,1.1198469400405884,17.971782684326172
0,66720,0.2714079022407532,1.1248234510421753,-0.8306030035018921,16.649803161621094
0,66723,-1.04851496219635,-0.6190442442893982,-0.4615509808063507,-20.49799919128418
0,66724,-0.3164271116256714,-0.8274142146110535,0.6024634838104248,-11.034798622131348
0,66727,1.2845464944839478,-0.021835634484887123,-0.7623260021209717,13.639731407165527
0,66728,0.9284464716911316,0.007080663461238146,1.3463393449783325,3.1810455322265625
0,66731,-0.5263986587524414,-1.5279338359832764,1.0843865871429443,-0.7652115225791931
0,66732,-1.5996780395507812,0.2774765193462372,-2.1476430892944336,2.020562171936035
0,66735,-0.5380803346633911,2.3776063919067383,0.07959297299385071,0.9585365056991577
0,66736,1.908945918083191,0.0733862966299057,0.5758926868438721,-2.8056557178497314
0,66739,1.9255602359771729,-0.9927593469619751,-0.20171117782592773,2.2495229244232178
0,66740,-1.7301057577133179,-0.8650016784667969,-0.2379847764968872,11.081011772155762
0,66743,-1.7967767715454102,-0.31969353556632996,-0.5674633979797363,-6.629953861236572
0,66744,0.9039417505264282,1.686301589012146,2.4888994693756104,-16.118812561035156
0,66747,-0.8347116112709045,-0.23748661577701569,-0.037115201354026794,-2.5645735263824463
0,66748,-0.5914044976234436,-0.6701563000679016,-3.9706315994262695,7.242722511291504
0,66751,1.494803547859192,0.5705235004425049,0.3879925012588501,8.06884765625
0,66752,-0.03177936375141144,-1.0644727945327759,2.6239731311798096,-2.146853446960449
0,66755,-0.6051356792449951,0.2303341180086136,1.4413706064224243,-2.805562973022461
0,66756,0.2024865746498108,0.7389385104179382,-0.38221627473831177,3.464365005493164
0,66759,0.4397362768650055,-0.7539533972740173,-1.3136872053146362,-1.2917237281799316
0,66760,0.17150621116161346,-0.16602623462677002,-0.0851549580693245,-2.3381474018096924
0,66763,0.51060950756073,0.6255601048469543,0.020848240703344345,-0.6805101037025452
0,66764,-0.5629696846008301,0.6882295608520508,0.3426956236362457,-0.39747384190559387
0,66767,-2.074927568435669,-1.9275401830673218,-0.3512422442436218,2.7864761352539062
0,66768,1.5301573276519775,-1.7610993385314941,-0.7670777440071106,3.2593727111816406
0,66771,1.9522684812545776,2.106618642807007,-0.852045476436615,-5.0349016189575195
0,66772,-1.2074213027954102,2.0564801692962646,0.013107677921652794,-4.3418288230896
0,66775,-0.27688753604888916,-1.2461321353912354,1.0997281074523926,3.726043939590454
0,66776,0.12076541036367416,-1.6273308992385864,0.16090507805347443,1.0110174417495728
0,66779,-0.3380546271800995,1.2545909881591797,0.1516316682100296,1.6686677932739258
0,66780,-0.7361631989479065,1.389596700668335,0.7500969767570496,3.0273239612579346
0,66783,-0.13084088265895844,-0.579890251159668,0.7133907675743103,-0.9009101390838623
0,66784,2.3140621185302734,-0.682274580001831,-0.8043050765991211,-1.2092961072921753
0,66787,0.6636272072792053,-0.8140319585800171,-0.9882857203483582,0.4468151926994324
0,66788,-2.051419734954834,0.23250672221183777,-0.10296875238418579,-2.975538969039917
0,66791,0.36035746335983276,0.9926469922065735,-0.3647480905056,-0.28099995851516724
0,66792,0.5167163014411926,-1.3655306100845337,0.8180674910545349,1.079556941986084
0,66795,-1.9496341943740845,0.5440028309822083,1.2256721258163452,-1.2296435832977295
0,66796,0.560225248336792,1.6166727542877197,-0.96573406457901,2.8850955963134766
0,66799,0.9136860966682434,-1.5680255889892578,-1.4869524240493774,-0.6222200393676758
0,66800,-0.7998532652854919,-0.15697911381721497,0.7672180533409119,0.5664547681808472
0,66803,1.5180091857910156,1.597536563873291,1.411090612411499,-1.8828282356262207
0,66804,0.8110710382461548,0.800259530544281,0.6401617527008057,-6.0888352394104
0,66807,-4.024842262268066,-1.2669999599456787,-1.3560361862182617,3.897109270095825
0,66808,-1.6945209503173828,-1.561941385269165,-2.4069299697875977,-5.736705780029297
0,66811,3.463869094848633,1.8531243801116943,0.4772571921348572,3.963862657546997
0,66812,0.849078357219696,1.0269701480865479,1.0951611995697021,23.980562210083008
0,66815,0.1978289633989334,-2.3645761013031006,0.8382087349891663,-15.008132934570312
0,66816,0.03654283285140991,-0.8948217034339905,2.0541810989379883,-24.918346405029297
0,66821,-1.307377815246582,1.66655695438385,-2.577779531478882,25.28080177307129
0,66821,0.5396802425384521,0.4010942578315735,-2.8491172790527344,20.085044860839844
0,66822,0.35438430309295654,-1.4129911661148071,3.2606966495513916,-32.35673522949219
0,66825,0.35981813073158264,0.476113885641098,0.8211402297019958,-6.585575103759766
0,66826,0.9036281108856201,1.6915738582611084,-0.21707573533058167,25.368383407592773
0,66829,-1.0627959966659546,-0.5779556035995483,0.7084555625915527,-9.500295639038086
0,66830,-2.3735549449920654,-1.0113822221755981,-0.9990500211715698,-7.30764627456665
0,66833,1.0864546298980713,1.3829842805862427,-0.5678796172142029,7.999190807342529
0,66834,1.6250454187393188,-0.2675342559814453,-2.035135507583618,-13.659355163574219
0,66837,-1.7693228721618652,-2.3732247352600098,0.754798173904419,-3.4157724380493164
0,66838,0.726899266242981,1.0061275959014893,2.6195995807647705,19.079370498657227
0,66841,2.2295820713043213,1.8866314888000488,-1.2278599739074707,0.549330472946167
0,66842,-1.160004734992981,-0.5736842155456543,0.09538306295871735,-6.872412204742432
0,66845,-0.6339421272277832,-2.138812303543091,1.2438099384307861,4.333728313446045
0,66846,-0.6570062041282654,-0.5531198382377625,-2.547539472579956,7.486000061035156
0,66849,-0.9229357242584229,1.1987197399139404,0.14080843329429626,-5.218881130218506
0,66850,2.771920919418335,0.5329806804656982,3.6979525089263916,-11.485949516296387
0,66853,0.2113611102104187,1.3184870481491089,-1.993730902671814,-0.560075581073761
0,66854,-2.252906560897827,-0.9138516783714294,-2.4298219680786133,5.272096633911133
0,66857,0.18374842405319214,-1.9333994388580322,3.2853639125823975,5.376645088195801
0,66858,-0.31760314106941223,1.7410708665847778,0.5045900344848633,1.5287246704101562
0,66861,0.244145929813385,1.5779027938842773,-2.5618767738342285,-2.7781014442443848
0,66862,-0.2826538681983948,-1.2772804498672485,0.3060046434402466,-4.287272930145264
0,66865,-0.7222265005111694,-1.1822587251663208,-0.5147144794464111,-2.4404101371765137
0,66866,1.7950973510742188,-0.06029991805553436,-0.6217966079711914,2.6511425971984863
0,66869,1.4860795736312866,0.38969266414642334,0.5725871920585632,4.788502216339111
0,66870,-0.21575191617012024,1.343289852142334,0.41251879930496216,-1.6991877555847168
0,66873,-2.3842265605926514,-1.2841233015060425,1.8891923427581787,-1.5152205228805542
0,66874,-0.9295080900192261,-1.4121347665786743,-1.8358197212219238,1.0225961208343506
0,66877,2.693190813064575,2.5655057430267334,-1.800296425819397,-0.4185481667518616
0,66878,1.2134279012680054,1.4775573015213013,2.098822832107544,-0.989425003528595
0,66881,-1.6139494180679321,-1.7140613794326782,0.1796405017375946,-2.900559425354004
0,66882,-0.9437220096588135,-0.5067583918571472,1.0273889303207397,-0.3141781985759735
0,66885,-0.35562893748283386,1.3917148113250732,-0.49985772371292114,2.4940500259399414
0,66886,0.31367477774620056,-1.6181590557098389,-2.4196577072143555,2.0761070251464844
0,66889,0.4042172133922577,-1.813472032546997,1.6836633682250977,1.5390907526016235
0,66890,-1.6960203647613525,2.089005947113037,1.0946491956710815,0.3531161844730377
0,66893,1.4379905462265015,1.467190146446228,-0.3865894675254822,-3.144653797149658
0,66894,1.8582521677017212,-1.5973947048187256,0.9397199749946594,-2.9126200675964355
0,66897,-0.5382603406906128,-1.3664982318878174,-0.9166082739830017,3.318441390991211
0,66898,-0.22854769229888916,1.2226786613464355,-0.009939465671777725,4.478641986846924
0,66901,-1.7337899208068848,-0.6785567998886108,-1.536350131034851,-3.6745901107788086
0,66902,0.524178683757782,-1.1397604942321777,-3.209188461303711,-2.190528631210327
0,66905,1.3519394397735596,3.169023036956787,2.478339195251465,-6.0365753173828125
0,66906,-0.7452097535133362,-0.6883226037025452,2.2580854892730713,-2.607959032058716
0,66909,0.519109308719635,-0.6898354291915894,0.15815509855747223,20.70043182373047
0,66910,0.00794773269444704,2.375216007232666,0.4783584475517273,3.4230034351348877
0,66913,-1.7069758176803589,-2.49068284034729,-0.723360538482666,-20.94274139404297
0,66914,0.25644880533218384,-0.36140677332878113,-0.8696027994155884,-6.43129301071167
0,66917,0.8398756384849548,2.0115854740142822,0.923333466053009,10.204683303833008
0,66918,-0.2914171814918518,-0.1889578402042389,0.6340283751487732,7.716328144073486
0,66921,0.4259764850139618,-0.1628492921590805,-0.0017079280223697424,2.0187277793884277
0,66922,0.35648342967033386,-0.9740573763847351,1.3474540710449219,-2.5282516479492188
0,66925,-0.6980136036872864,-1.7732926607131958,-3.969925880432129,0.6727080941200256
0,66926,-0.8484731912612915,-0.259497731924057,-2.921104669570923,9.578055381774902
0,66929,0.4480479061603546,2.273895263671875,3.4492087364196777,-13.352341651916504
0,66930,0.8140115737915039,1.2122081518173218,1.477073073387146,-10.981915473937988
0,66933,-0.17098718881607056,-2.290703773498535,-0.08613010495901108,23.183578491210938
0,66934,0.15190407633781433,-0.47519299387931824,-0.8156197667121887,-17.867910385131836
0,66937,0.44266214966773987,2.770775556564331,-0.12661278247833252,-23.69670867919922
0,66938,-1.7118113040924072,-0.45613840222358704,0.3893822729587555,26.52770233154297
0,66941,-0.4028187394142151,-2.1626193523406982,-0.7390621900558472,4.111361980438232
0,66942,1.2647815942764282,0.934806227684021,1.6540106534957886,-3.736826181411743
0,66945,0.22259995341300964,0.6129855513572693,0.21154339611530304,2.4073872566223145
0,66946,0.27551352977752686,-0.6066268086433411,-1.996399998664856,-10.902618408203125
0,66949,-0.23121193051338196,0.9897819757461548,1.1084370613098145,8.054174423217773
0,66950,0.14872701466083527,0.9480039477348328,0.6631025671958923,17.176128387451172
0,66953,-0.27226248383522034,-1.0715388059616089,-1.092531681060791,-2.2915494441986084
0,66954,-0.1990853101015091,-0.8528375625610352,-0.5047892332077026,-10.704690933227539
0,66957,-0.22188222408294678,-0.1466788947582245,0.42878618836402893,-7.034214973449707
0,66958,-0.9902570843696594,-1.6649388074874878,-0.2532014548778534,-2.994300365447998
0,66961,2.0539963245391846,1.3178707361221313,-0.021577192470431328,7.017974853515625
0,66962,2.548574447631836,2.515977144241333,1.4941349029541016,3.407731771469116
0,66965,-2.363297462463379,-1.6988097429275513,-0.47442156076431274,-5.602711200714111
0,66967,-1.2592579126358032,-0.1901375651359558,-0.12826146185398102,2.222822427749634
0,66968,1.7399576902389526,1.3812336921691895,2.296544075012207,1.1537144184112549
0,66972,-1.1079564094543457,-0.5065433979034424,-0.8624690771102905,-4.789379596710205
0,66972,-0.12169882655143738,0.04709571227431297,-2.701476573944092,2.917579174041748
0,66975,0.5047635436058044,-1.163008689880371,-0.09103630483150482,5.854700565338135
0,66976,-1.2149354219436646,-2.068793535232544,0.3780670166015625,-0.018145127221941948
0,66979,-0.047101303935050964,1.2819478511810303,0.701741099357605,-1.8123654127120972
0,66980,-1.0406913757324219,2.5634233951568604,0.5694645047187805,-0.9840532541275024
0,66983,1.706247329711914,0.4524939954280853,-0.47621962428092957,0.8111857771873474
0,66984,1.449375867843628,-2.5457754135131836,-0.26994121074676514,-1.5255212783813477
0,66987,-3.889307975769043,-1.105180263519287,-0.9985044598579407,-5.171765327453613
0,66988,0.30396899580955505,0.9099177122116089,-0.7843530774116516,4.437103271484375
0,66991,2.1038782596588135,-0.6055818796157837,1.5565412044525146,-0.5586954355239868
0,66992,-0.3988020420074463,1.3214792013168335,0.42056789994239807,-7.156929969787598
0,66995,0.03966359421610832,1.6540489196777344,-0.5777656435966492,6.80252742767334
0,66996,-0.02413516864180565,-2.3362722396850586,1.3678710460662842,2.2338132858276367
0,66999,1.9993596076965332,-0.6067989468574524,0.431808203458786,-4.346492767333984
0,67000,0.9588702321052551,2.8985488414764404,-0.4498308300971985,4.03040075302124
0,67003,-1.686058759689331,0.06286878883838654,-0.40482380986213684,4.389052391052246
0,67004,-1.4355013370513916,-1.8767833709716797,-0.17388327419757843,-3.741774559020996
0,67007,-0.7102633118629456,0.2507319152355194,1.0292751789093018,-7.049289226531982
0,67008,1.5671881437301636,1.5435184240341187,-0.6966931223869324,3.746083974838257
0,67011,2.6094672679901123,-1.141743779182434,-2.413727045059204,2.084876298904419
0,67012,-0.6230947375297546,-1.475954294204712,-0.7709304094314575,-9.585177421569824
0,67015,-2.2267093658447266,1.9252575635910034,1.5756456851959229,4.077317237854004
0,67016,-0.8565474152565002,1.1729060411453247,1.4345606565475464,13.567605018615723
0,67019,-0.6125367879867554,-1.5371721982955933,-1.288840889930725,1.2330042123794556
0,67020,1.1948578357696533,-2.177163600921631,0.23073448240756989,-12.849411964416504
0,67023,1.4874697923660278,-0.3435116410255432,1.8606805801391602,-8.255345344543457
0,67024,-0.9163461923599243,1.6249361038208008,-0.6882364749908447,10.123568534851074
0,67027,-2.3091585636138916,0.9975082874298096,-0.9621590375900269,2.2693674564361572
0,67028,0.47393718361854553,0.14481760561466217,0.9002869129180908,-8.357331275939941
0,67031,3.102546453475952,-0.11470042169094086,1.2247626781463623,6.482109546661377
0,67032,-0.21265730261802673,-0.7661142945289612,-0.15355847775936127,6.5213751792907715
0,67035,-2.2377896308898926,0.2775225341320038,-0.9882928729057312,-0.23497557640075684
0,67036,1.4773499965667725,0.7774900794029236,-0.7671487331390381,1.228116750717163
0,67039,1.088261365890503,-0.9498196244239807,-1.2540749311447144,-5.010028839111328
0,67040,-1.9626795053482056,0.3679238557815552,-0.25442248582839966,-2.025012731552124
0,67043,-0.5830159783363342,0.9964162707328796,1.9050942659378052,0.023188387975096703
0,67044,-0.37674689292907715,-0.993135929107666,-0.1162823736667633,-3.644535541534424
0,67047,1.3030622005462646,-0.32989954948425293,-0.3218662738800049,0.7197806239128113
0,67048,0.8317394852638245,0.8548486232757568,1.7800203561782837,3.726118803024292
0,67051,-2.5295963287353516,-0.7388550043106079,-0.33775195479393005,3.434115171432495
0,67052,0.17416909337043762,-0.9560719728469849,-1.5135242938995361,0.5930864214897156
0,67055,1.9353055953979492,0.901338517665863,-0.1514490693807602,-5.329510688781738
0,67056,-0.7459930181503296,-0.805336594581604,-0.21555651724338531,-7.415938377380371
0,67059,0.058871831744909286,-0.838593602180481,-0.3273325264453888,4.875065326690674
0,67060,0.6913204193115234,1.8500703573226929,1.3774365186691284,5.79769229888916
0,67063,-0.6554099917411804,-0.10137086361646652,2.0537450313568115,-5.258594512939453
0,67064,-0.5057862997055054,-1.759697437286377,-2.0522308349609375,1.4872220754623413
0,67067,1.3933680057525635,1.6159844398498535,-2.3026115894317627,3.0246074199676514
0,67068,1.312796711921692,2.2852821350097656,2.5854480266571045,-1.998561143875122
0,67071,-2.2340307235717773,-1.6589068174362183,-0.13236339390277863,-1.7677994966506958
0,67072,-0.4869081377983093,-1.9226773977279663,-2.3723344802856445,1.2146549224853516
0,67075,0.37810951471328735,0.008927727118134499,1.042047142982483,3.339458465576172
0,67076,-0.6636780500411987,1.5730555057525635,0.5300840735435486,-1.1631112098693848
0,67079,1.352029800415039,1.6167666912078857,-0.5484893321990967,-2.001591444015503
0,67080,0.1399461030960083,-1.8528501987457275,1.1462373733520508,0.3420765697956085
0,67083,-0.2974301278591156,-0.24957916140556335,1.1618095636367798,0.3812105357646942
0,67084,0.17945651710033417,0.19020332396030426,-1.8735520839691162,0.9456307291984558
0,67087,-0.6747804880142212,-0.8009366393089294,-0.9197379350662231,-0.578744113445282
0,67088,0.42230841517448425,2.62440824508667,1.8397732973098755,-1.9471160173416138
0,67091,0.9497592449188232,-0.32428377866744995,-0.08086906373500824,-1.8849514722824097
0,67092,-0.423357754945755,-3.633114814758301,-0.5145037174224854,2.1849660873413086
0,67095,-1.4490431547164917,-0.05199679359793663,0.3928671181201935,0.8055799603462219
0,67096,0.6346009969711304,3.212938070297241,-0.6681823134422302,-3.6650238037109375
0,67099,1.4060890674591064,-0.21623913943767548,-0.33884257078170776,6.5246686935424805
0,67100,-0.38343295454978943,-2.291522264480591,0.538078248500824,3.5418179035186768
0,67103,-0.5199216604232788,2.4840996265411377,-0.3622010350227356,-4.246528625488281
0,67104,-0.8326681852340698,1.3561807870864868,0.5425939559936523,2.5063552856445312
0,67107,-0.31512531638145447,-2.6692819595336914,0.8860973119735718,7.06234073638916
0,67108,0.8746739029884338,-0.18936461210250854,-0.36768919229507446,-10.228800773620605
0,67111,0.41472694277763367,0.6083450317382812,-0.982641339302063,-23.353769302368164
0,67112,-0.011847124435007572,-0.44905585050582886,0.8033093214035034,11.396005630493164
0,67115,-0.8505789637565613,0.5246925950050354,2.73795485496521,22.059368133544922
0,67116,-0.4817045032978058,0.6580214500427246,-1.2297700643539429,-5.3653717041015625
0,67119,0.6477550268173218,0.11319965124130249,-3.148259162902832,-7.165648460388184
0,67120,0.06946831941604614,-0.169058158993721,1.574477195739746,0.9421261548995972
1,67124,-0.060369666665792465,-0.8057363629341125,-0.1575756072998047,-6.060676097869873
1,67124,0.06180175021290779,-1.0556936264038086,-4.017065525054932,-6.796804428100586
1,67127,0.3561641275882721,0.35461345314979553,0.849796712398529,16.857149124145508
1,67128,0.3239080309867859,1.2103452682495117,3.2133536338806152,9.37232780456543
1,67131,-0.6079518795013428,-0.08086668699979782,-0.034022003412246704,-15.283543586730957
1,67132,-1.4569867849349976,-1.017399549484253,-0.3281157314777374,-3.2298991680145264
1,67135,1.5825777053833008,0.7384326457977295,0.8181892037391663,-0.1780460625886917
1,67136,2.6514320373535156,1.1876236200332642,0.515477180480957,2.3146612644195557
1,67139,-2.0666518211364746,-0.2892959415912628,0.5916810631752014,15.995505332946777
1,67140,-2.0251572132110596,-1.5862500667572021,-1.7809370756149292,-4.822018146514893
1,67143,0.7503222227096558,-0.7736863493919373,-2.104933261871338,-24.627824783325195
1,67144,1.1627947092056274,1.5486059188842773,2.355689764022827,-0.5852996706962585
1,67147,-0.12515515089035034,0.833358883857727,1.7826207876205444,23.849891662597656
1,67148,-0.8961767554283142,-0.3952341079711914,-2.0240604877471924,7.919416904449463
1,67151,0.9327509999275208,-0.9471851587295532,0.08218681812286377,-9.118143081665039
1,67152,-0.1943824291229248,-0.672149121761322,0.5020400285720825,-3.808295249938965
1,67155,-0.3149406611919403,1.723177433013916,-0.7851955890655518,-0.7252125144004822
1,67156,0.505193293094635,1.2975680828094482,-0.08204379677772522,-0.31359854340553284
1,67411,-0.3496151566505432,-1.4548823833465576,-0.34950679540634155,-0.24719291925430298
1,67412,0.7938498258590698,-0.5147672891616821,1.868348479270935,-0.4846944510936737
1,67415,-1.0649219751358032,-0.5760109424591064,-0.41664060950279236,-0.3980983793735504
1,67416,-1.1855558156967163,-1.5568679571151733,-3.034938097000122,2.5987255573272705
1,67419,1.7362170219421387,0.5734525918960571,2.0507001876831055,-0.3410313129425049
1,67420,0.7883951663970947,1.5599775314331055,3.152162551879883,-6.331681728363037
1,67423,-1.2234550714492798,0.5258998274803162,-1.4624589681625366,0.02131173200905323
1,67424,-2.0087575912475586,-1.3136283159255981,-3.21527099609375,2.2158043384552
1,67427,1.2944673299789429,0.13273893296718597,-0.3627455532550812,2.0726490020751953
1,67429,2.23687481880188,1.8084858655929565,1.862966775894165,0.09788543730974197
1,70622,-1.3887577056884766,-0.11569476127624512,-0.15146806836128235,-0.8083024621009827
1,70625,-0.7419373989105225,-1.2238869667053223,-0.5500373840332031,1.9229477643966675
1,70626,0.03552336245775223,-0.7374254465103149,0.6798111200332642,-2.5596089363098145
1,70629,0.8712788224220276,1.4485054016113281,0.9332059025764465,1.2373552322387695
1,70630,0.40895378589630127,1.5071961879730225,1.0217722654342651,2.81158447265625
1,70633,-1.3808434009552002,-0.7361380457878113,-0.8038172125816345,-0.2007981836795807
1,70634,0.6077272295951843,-1.870792269706726,-1.2311323881149292,2.6349856853485107
1,70637,1.1599674224853516,-0.8216046690940857,-0.6534484624862671,-5.466856479644775
1,70638,0.08115126192569733,1.1010925769805908,-0.7191216349601746,-7.742598056793213
1,70641,-0.13412058353424072,-0.5035077929496765,0.3341217041015625,7.477502346038818
1,70642,-0.6861267685890198,0.429805725812912,1.4756206274032593,7.9620537757873535
1,70645,-0.4090777635574341,1.4949172735214233,0.8290624022483826,-6.624937534332275
1,70646,0.054700758308172226,-1.396848440170288,-1.1848490238189697,-6.171693325042725
1,70649,-0.4961710572242737,0.11444424837827682,0.33845797181129456,3.596827983856201
1,70650,0.5305938720703125,1.1020971536636353,1.9300518035888672,3.934323787689209
1,70653,0.3214915096759796,-0.9320331811904907,-1.5717411041259766,-1.7955589294433594
1,70654,-0.2921571731567383,-0.516644299030304,-1.8827813863754272,-0.666018009185791
1,70657,0.9766198396682739,0.7385751008987427,1.0271234512329102,5.490848064422607
1,70658,-0.7723687887191772,0.7351325154304504,1.0166198015213013,-3.557701349258423
1,70661,-1.018002986907959,-0.8291449546813965,-0.28255659341812134,-2.1810672283172607
1,70662,0.42514604330062866,-0.7599777579307556,-0.6638587117195129,8.596076011657715
1,70665,0.712202250957489,0.4891441762447357,1.0919852256774902,-5.454011917114258
1,70666,0.2889808118343353,0.480278879404068,0.42556098103523254,-14.07986831665039
1,70669,-0.6257487535476685,-0.4567849636077881,-2.190234422683716,4.105921268463135
1,70670,0.3976992964744568,-0.531926155090332,-0.26750415563583374,11.66439437866211
1,70673,-1.6704257726669312,1.092476487159729,2.125880241394043,-2.2451725006103516
1,70674,-1.462400197982788,-0.6188172698020935,-0.4408118724822998,-1.8291174173355103
1,70677,3.204272985458374,-1.3018593788146973,-0.8474151492118835,-0.17397411167621613
1,70678,0.8672931790351868,1.5307360887527466,-0.6051231026649475,-2.871457576751709
1,70681,-1.2546478509902954,-0.054778169840574265,-0.011531276628375053,4.4470343589782715
1,70682,0.5640996098518372,-1.379833698272705,1.9361491203308105,2.6108558177948
1,70685,-0.6188741326332092,1.0178053379058838,0.5182077884674072,-3.9289302825927734
1,70686,-1.0335243940353394,0.8339793086051941,-0.1778056025505066,0.38402965664863586
1,70689,0.9225231409072876,-0.4638683497905731,-1.344967246055603,1.370314121246338
1,70690,1.0080831050872803,0.6384295225143433,-0.2592059075832367,-0.18666164577007294
1,70694,-1.1363087892532349,0.10602089017629623,-0.14096291363239288,-0.054503846913576126
1,70695,-0.3954291045665741,-1.2511212825775146,-1.4023247957229614,-8.656651496887207
1,70696,0.7497794032096863,0.6217058897018433,1.6608742475509644,3.8292477130889893
1,70699,-0.10870630294084549,1.1927200555801392,1.8538920879364014,6.402857303619385
1,70700,-0.2991677522659302,-0.6102482676506042,-1.4952892065048218,-10.122906684875488
1,70703,0.7218747138977051,-1.1801172494888306,-1.1763079166412354,4.570036888122559
1,70704,0.6400368213653564,-0.16412951052188873,1.5112398862838745,8.61124324798584
1,70707,-2.0304744243621826,1.1175848245620728,-0.6236948370933533,-4.078385829925537
1,70708,0.969291627407074,0.26655203104019165,-0.11886472254991531,-3.226424217224121
1,70711,2.133258819580078,-2.0487818717956543,0.7323616743087769,-0.8930842876434326
1,70712,-2.337707281112671,0.42213818430900574,-0.74649578332901,-1.842903971672058
1,70715,-0.4796997606754303,1.515634536743164,0.9540995359420776,1.9451545476913452
1,70716,0.7683906555175781,-2.421684503555298,-1.62923264503479,6.445526599884033
1,70719,0.05567147210240364,1.1249281167984009,-0.6555066108703613,4.307286262512207
1,70720,-0.11343113332986832,2.870279312133789,2.39350962638855,-6.17450475692749
1,70723,-1.0710328817367554,-2.1742701530456543,-0.9853911399841309,-8.395506858825684
1,70724,1.8322216272354126,0.008929562754929066,-1.3124860525131226,2.7410590648651123
1,70727,2.025474786758423,1.6426523923873901,2.17919659614563,3.904569149017334
1,70728,-1.6116021871566772,-1.9510016441345215,1.1233679056167603,1.6343828439712524
1,70731,-1.6185041666030884,-0.9215111136436462,-1.0966359376907349,1.8305518627166748
1,70732,-0.039958011358976364,1.8446942567825317,-0.3071698546409607,-2.60383939743042
1,70735,0.4542970359325409,0.42609909176826477,0.14023369550704956,-4.497183322906494
1,70736,-0.37102699279785156,-1.9017575979232788,0.5061059594154358,-0.19848300516605377
1,70739,-0.6871882081031799,-0.04374697059392929,-0.9562175273895264,3.1708669662475586
1,70740,-0.1761128306388855,1.4485692977905273,-0.5205628275871277,-2.4297165870666504
1,70743,0.48222798109054565,-0.8535110950469971,1.4761170148849487,1.0727883577346802
1,70744,1.270999789237976,-0.8132172226905823,-0.7517133355140686,7.910353183746338
1,70747,-0.5438039302825928,0.31694522500038147,-1.2883414030075073,-5.476376056671143
1,70748,-1.047247290611267,0.6513139605522156,0.9827443361282349,-8.366692543029785
1,70751,1.2873448133468628,0.6326267719268799,-0.02767331339418888,2.6332008838653564
1,70752,0.5892481803894043,-0.9274207949638367,-1.2769447565078735,3.156435251235962
1,70755,-0.42104101181030273,0.6344171762466431,0.9029198884963989,2.073978900909424
1,70756,0.7634981274604797,1.9227640628814697,1.844657301902771,0.2895128130912781
1,70759,0.07657267898321152,-1.3316069841384888,-0.7005297541618347,-1.6284284591674805
1,70760,-1.2111575603485107,-2.310612678527832,-1.913044810295105,2.633007526397705
1,70763,-0.5645245909690857,0.7630853056907654,-0.0056039621122181416,2.1510772705078125
1,70764,-0.015486330725252628,0.908875048160553,0.8407690525054932,-1.2492069005966187
1,70767,0.2295670062303543,-1.4371509552001953,0.6115755438804626,-3.0768191814422607
