Aktueller Finger,timestamp_ms,sensor_0,sensor_1,sensor_2,sensor_3
0,504339,42.15035629272461,42.492427825927734,40.04137420654297,-42.074275970458984
0,504342,-103.02926635742188,-17.03820037841797,-24.645706176757812,-12.549918174743652
0,504346,-48.743011474609375,-17.605989456176758,-33.081207275390625,22.707630157470703
0,504346,92.47906494140625,16.994665145874023,32.75647735595703,-16.778642654418945
0,504347,28.498273849487305,-16.694032669067383,17.62348747253418,12.658536911010742
0,504350,-27.195283889770508,-47.943634033203125,-37.26091766357422,22.302600860595703
0,504351,8.596014022827148,14.148632049560547,-4.873026371002197,-83.39596557617188
0,504354,-71.23114013671875,36.45077896118164,9.882806777954102,-39.38823699951172
0,504355,-28.050857543945312,-7.483546733856201,0.25453484058380127,97.18384552001953
0,504358,100.78825378417969,4.564334392547607,-8.229541778564453,79.55117797851562
0,504359,9.586602210998535,23.616779327392578,-7.169704437255859,-11.31917667388916
0,504362,-83.85211181640625,-14.173686981201172,21.714065551757812,-102.70006561279297
0,504363,-3.6874470710754395,-13.90167236328125,1.8112975358963013,-23.317293167114258
0,504366,57.78855895996094,17.670974731445312,6.017592906951904,60.206546783447266
0,504367,-8.80865478515625,7.056394577026367,29.41217613220215,-8.321479797363281
0,504370,-18.48419952392578,-28.188968658447266,-37.31855010986328,1.4807968139648438
0,504371,-10.519355773925781,-28.562091827392578,-41.969539642333984,-4.927232265472412
0,504374,-38.276344299316406,21.272247314453125,15.560468673706055,11.473797798156738
0,504375,62.884193420410156,10.88007640838623,34.10226821899414,21.415966033935547
0,504378,48.40310287475586,-17.426959991455078,0.9280805587768555,-54.265708923339844
0,504379,-51.92033767700195,-7.574532508850098,-48.60425567626953,1.9657022953033447
0,504382,-17.235111236572266,20.21053695678711,16.292999267578125,3.2460532188415527
0,504383,40.65693283081055,31.823495864868164,33.46190643310547,-6.7657084465026855
0,504386,0.19425569474697113,-1.9670732021331787,-29.69044303894043,29.568016052246094
0,504387,-50.88103485107422,-32.014522552490234,13.574827194213867,-4.071261405944824
0,504390,59.97099685668945,-28.898788452148438,32.01228332519531,4.672821044921875
0,504391,30.07764434814453,33.150516510009766,-28.385374069213867,10.156057357788086
0,504394,-102.9878921508789,26.795372009277344,-12.87992000579834,9.48647689819336
0,504395,-3.164820432662964,0.3779626190662384,28.726285934448242,-13.876834869384766
0,504398,84.1006088256836,-8.165468215942383,5.120851039886475,-7.7176513671875
0,504399,-19.475664138793945,-47.7871208190918,-15.594618797302246,10.248711585998535
0,504402,-64.05907440185547,14.492140769958496,0.45673203468322754,-44.975914001464844
0,504403,20.147659301757812,41.63188171386719,-2.5128183364868164,-20.78333854675293
0,504406,27.940837860107422,-22.094322204589844,-17.849977493286133,53.11325454711914
0,504407,19.133115768432617,-17.92486572265625,14.880937576293945,54.399715423583984
0,504410,41.696250915527344,10.322898864746094,9.743408203125,-23.63961410522461
0,504411,-46.267303466796875,4.635343551635742,-21.60942840576172,-29.090593338012695
0,504414,-76.97340393066406,-21.948476791381836,-2.6829464435577393,6.670406341552734
0,504415,40.46128463745117,18.86387825012207,39.780696868896484,-37.35152053833008
0,504418,48.73793411254883,35.4145393371582,4.926400661468506,-2.17482328414917
0,504419,-4.77973747253418,-43.0599479675293,-54.775794982910156,49.635379791259766
0,504422,-31.470991134643555,-12.000904083251953,-11.441699981689453,-11.25757122039795
0,504423,-17.530580520629883,15.556924819946289,27.53519630432129,-33.45664978027344
0,504426,25.551929473876953,11.625200271606445,6.355587005615234,6.054023265838623
0,504427,-15.007417678833008,3.079389810562134,-2.3466460704803467,6.75056791305542
0,504430,21.41849708557129,-18.765676498413086,20.76581382751465,23.519428253173828
0,504431,22.75428009033203,15.645942687988281,-2.5042335987091064,8.817997932434082
0,504434,-50.71703338623047,7.905895709991455,-39.51552200317383,-15.026148796081543
0,504435,-0.3475029170513153,-20.374597549438477,-3.9040000438690186,3.2030670642852783
0,504438,38.6585807800293,-12.037162780761719,40.58745193481445,-4.098072528839111
0,504439,0.9446809887886047,-2.0908968448638916,10.86109733581543,25.887161254882812
0,504442,-36.20185852050781,29.836841583251953,-25.89376449584961,23.518983840942383
0,504443,-5.029688358306885,14.567339897155762,-2.6336467266082764,-76.10121154785156
0,504446,43.4473762512207,-39.47481918334961,23.363433837890625,-19.164087295532227
0,504447,7.3381829261779785,12.671123504638672,2.501777410507202,58.75382995605469
0,504450,-29.656064987182617,19.156200408935547,-8.380436897277832,5.3001861572265625
0,504451,0.38988006114959717,10.508015632629395,1.2327768802642822,-6.802344799041748
0,504454,-19.979021072387695,0.9964792132377625,-13.848499298095703,-34.60580825805664
0,504455,1.7267661094665527,-30.72966194152832,-4.849562168121338,-9.518668174743652
0,504458,67.8991470336914,-2.816394805908203,8.087185859680176,21.177392959594727
0,504459,-28.451622009277344,-17.4099063873291,4.936153888702393,0.7536249756813049
0,504462,-85.28883361816406,11.519391059875488,-6.093407154083252,9.382165908813477
0,504463,31.89844512939453,22.90353775024414,-8.998747825622559,21.844005584716797
0,504718,56.24688720703125,-2.18717622756958,8.536388397216797,-3.372004270553589
0,504720,-13.291399002075195,18.59925079345703,17.91234016418457,-38.35415267944336
0,504722,44.40161895751953,-30.993146896362305,-28.447263717651367,0.6259002685546875
0,504724,-28.3964786529541,-23.873445510864258,-14.933503150939941,16.139732360839844
0,504726,-49.01445770263672,62.20558547973633,59.25852584838867,16.508588790893555
0,504728,46.0853385925293,-15.216856956481934,-5.629202842712402,0.30845335125923157
0,504729,-79.74976348876953,-73.37876892089844,-63.395355224609375,-31.90448570251465
0,509797,-22.874874114990234,42.69112777709961,1.0811924934387207,-11.774580001831055
0,509800,58.88206481933594,57.622901916503906,34.065242767333984,24.267742156982422
0,509801,2.010852336883545,-28.50649642944336,9.689210891723633,19.495351791381836
0,509804,34.66990661621094,-52.22703552246094,-18.9754695892334,-32.310752868652344
0,509805,50.51917266845703,20.5913028717041,-3.5864992141723633,15.055814743041992
0,509808,-69.1075439453125,15.985499382019043,16.288007736206055,30.816862106323242
0,509809,-49.92927932739258,-27.030582427978516,-40.075504302978516,-30.728382110595703
0,509812,124.83955383300781,40.041046142578125,4.352171421051025,4.248332500457764
0,509813,7.84158182144165,12.413400650024414,83.96129608154297,9.188497543334961
0,509816,-166.023193359375,-54.67795944213867,-29.371469497680664,-33.539249420166016
0,509817,-29.345001220703125,5.954171180725098,-71.3819808959961,-2.266350507736206
0,509820,68.50883483886719,-17.034900665283203,-4.052034854888916,-18.712413787841797
0,509821,-10.594399452209473,-15.304476737976074,23.01706314086914,25.358171463012695
0,509824,100.37432861328125,61.71566390991211,36.5796012878418,69.54148864746094
0,509825,70.6269302368164,-13.134173393249512,12.33876895904541,-40.97703170776367
0,509828,-129.70184326171875,0.9019181728363037,-2.3646202087402344,-20.720237731933594
0,509829,-27.52415657043457,37.39078140258789,-19.021970748901367,94.08051300048828
0,509832,114.66464233398438,-2.450934886932373,42.194759368896484,2.9265296459198
0,509833,14.803664207458496,72.61875915527344,48.24578094482422,-126.76930236816406
0,509836,-95.59326171875,5.869792938232422,-78.29234313964844,-9.690584182739258
0,509837,-38.48411178588867,-144.8033905029297,-49.1655158996582,27.344228744506836
0,509840,36.88127517700195,4.877465724945068,61.495704650878906,13.839495658874512
0,509841,-2.935614585876465,-48.95881652832031,-29.58306312561035,37.56098175048828
0,509844,27.68218231201172,2.3329691886901855,-33.19750213623047,-16.75503921508789
0,509845,55.460453033447266,200.93487548828125,73.68968200683594,-51.03910827636719
0,509848,-42.50437927246094,-52.45011901855469,-6.7159600257873535,-4.757302761077881
0,509849,-68.19326782226562,-95.2465591430664,-44.88868713378906,23.570545196533203
0,509852,38.9453125,3.3223743438720703,1.4493461847305298,21.891948699951172
0,509853,77.81856536865234,-6.9749345779418945,19.16119956970215,38.58388900756836
0,509856,-98.52909088134766,24.63918113708496,0.38766980171203613,-31.071636199951172
0,509857,-76.34590911865234,-9.476009368896484,-11.691116333007812,-47.33074188232422
0,509860,97.3884048461914,16.270475387573242,28.553905487060547,30.10154914855957
0,509861,48.157772064208984,49.04413604736328,12.139182090759277,14.555553436279297
0,509864,-8.037128448486328,-20.636341094970703,-35.70536422729492,-18.613306045532227
0,509865,-19.816917419433594,-35.374298095703125,4.423772811889648,46.37038803100586
0,509868,-50.57442092895508,-23.090208053588867,19.539018630981445,-15.738304138183594
0,509869,-18.034692764282227,-30.81262969970703,-43.16783142089844,-50.1484489440918
0,509872,60.882301330566406,10.069048881530762,-18.588390350341797,32.36016082763672
0,509873,53.68398666381836,49.113338470458984,35.35144805908203,18.411495208740234
0,509876,-81.63099670410156,34.87399673461914,8.770596504211426,-23.46204376220703
0,509877,-51.76462173461914,-21.9243106842041,-0.20265594124794006,6.060563564300537
0,509880,48.589107513427734,-11.543891906738281,6.6504597663879395,37.15824890136719
0,509881,12.555785179138184,36.61970520019531,2.577981472015381,-24.405120849609375
0,509884,35.58112335205078,-2.1047444343566895,-0.17473390698432922,-57.250850677490234
0,509885,5.096232891082764,-17.7606201171875,-18.01630973815918,10.27797794342041
0,509888,-37.54200744628906,-23.605335235595703,-10.188305854797363,68.87307739257812
0,509889,-6.444091796875,-32.51808547973633,9.526363372802734,36.35652542114258
0,509892,33.77153396606445,45.04871368408203,12.642255783081055,-48.295921325683594
0,509893,48.731773376464844,19.027938842773438,-0.38181203603744507,-44.017860412597656
0,509896,-93.81291961669922,-62.73658752441406,-6.421950340270996,-9.926856994628906
0,509897,-65.49003601074219,11.400903701782227,16.324731826782227,9.190673828125
0,509900,87.99357604980469,40.2492561340332,-10.85482406616211,33.060726165771484
0,509901,35.08647918701172,-8.8825101852417,-20.145700454711914,-4.04788875579834
0,509904,-24.54738426208496,25.6279296875,47.095428466796875,-1.737901210784912
0,509905,-6.749094486236572,-21.633543014526367,-5.529516696929932,7.740061283111572
0,509908,-11.071013450622559,-54.722900390625,-48.985557556152344,-49.93141555786133
0,509909,-24.199167251586914,24.19879150390625,2.1252853870391846,-25.03258514404297
0,509912,54.60871505737305,20.067758560180664,4.8574604988098145,40.28266525268555
0,509913,55.29827880859375,11.443721771240234,30.38480567932129,15.758868217468262
0,509916,-107.8644027709961,-10.11264705657959,-1.1339070796966553,8.4002103805542
0,509917,-44.744873046875,-43.438655853271484,-16.051250457763672,16.663883209228516
0,509920,84.41535186767578,27.540573120117188,11.377984046936035,-5.259270191192627
0,509921,-3.5573959350585938,44.64122772216797,-3.759838104248047,-11.852567672729492
0,509924,10.696394920349121,-15.735276222229004,21.315608978271484,-11.450173377990723
0,509926,27.32855796813965,1.148494005203247,16.82364273071289,15.837512016296387
0,509928,-72.57951354980469,-1.7063474655151367,-38.50197982788086,-1.0230169296264648
0,509930,-40.855316162109375,-14.818560600280762,-20.950504302978516,-45.573524475097656
0,509932,86.23159790039062,25.09799575805664,23.66384506225586,24.309019088745117
0,509934,62.85245895385742,-12.944221496582031,-1.7663114070892334,35.80467987060547
0,509936,-105.30206298828125,-39.308895111083984,-16.14048194885254,-18.190223693847656
0,509938,-37.79680252075195,29.95600700378418,6.033836364746094,4.512754917144775
0,509939,85.97227478027344,0.9479949474334717,-4.896089553833008,-8.848548889160156
0,509942,-12.95783805847168,-40.221134185791016,-10.334228515625,-3.7527050971984863
0,509943,-3.484815835952759,27.333724975585938,30.19466209411621,33.26457595825195
0,509946,22.52366828918457,7.593984603881836,9.045007705688477,-15.56544017791748
0,509947,-43.654415130615234,-7.876772403717041,-21.06370735168457,-33.4559211730957
0,509950,-40.783546447753906,13.37706470489502,-6.288339138031006,14.387103080749512
0,509953,73.08475494384766,-12.330324172973633,2.2349894046783447,-2.986506223678589
0,509954,60.470890045166016,-4.9736199378967285,2.3413069248199463,-19.15248680114746
0,509955,-98.15003967285156,15.504673957824707,-12.463912963867188,21.332632064819336
0,509958,-35.411128997802734,8.531378746032715,0.2661062180995941,-4.222218036651611
0,509959,47.31209182739258,4.672929286956787,33.169490814208984,-18.005142211914062
0,509962,21.676607131958008,7.427896499633789,11.17624568939209,48.56531524658203
0,509963,10.16174030303955,-11.215547561645508,-35.11375427246094,4.358945369720459
0,509966,0.39270374178886414,-6.006400108337402,6.84994649887085,-18.180505752563477
0,509967,-26.683460235595703,-2.4777700901031494,29.070480346679688,16.97315216064453
0,509970,-24.36380386352539,3.4281206130981445,-22.48565673828125,-36.73707580566406
0,509971,50.80585479736328,-8.824117660522461,-7.195047855377197,6.721839427947998
0,509974,-8.337394714355469,-12.319559097290039,0.5091542601585388,36.1866569519043
0,509975,-63.59869384765625,19.214130401611328,-3.2909038066864014,-10.334066390991211
0,509978,23.0948543548584,-1.8116841316223145,27.62320327758789,-7.398033618927002
0,509979,36.692508697509766,6.871179580688477,-2.1798508167266846,-27.9827938079834
0,509982,-3.939077138900757,7.224111080169678,-20.845134735107422,-25.81293296813965
0,509983,-17.155712127685547,-46.35152053833008,-5.611741542816162,11.61837100982666
0,509986,14.767498970031738,5.52559757232666,-9.53778076171875,46.11515808105469
0,509987,-3.2985799312591553,41.17282485961914,5.558739185333252,-1.7186022996902466
0,509990,-24.782739639282227,-23.23908233642578,18.092121124267578,-43.660789489746094
0,509991,41.496273040771484,-7.615142345428467,-10.936768531799316,44.153770446777344
0,509994,-6.299924373626709,14.495047569274902,-28.5903377532959,15.229866981506348
0,509995,-53.48929977416992,-10.312827110290527,6.9115891456604,-57.7058219909668
0,509998,25.087745666503906,0.3392066955566406,19.714353561401367,24.21835708618164
0,509999,36.345672607421875,14.78060531616211,-11.30062198638916,42.73491287231445
0,510002,13.055851936340332,15.603408813476562,2.671020984649658,-22.29288673400879
0,510003,-12.271254539489746,-2.574672222137451,32.60609817504883,-29.151350021362305
0,510006,-11.801647186279297,-16.192153930664062,2.2616467475891113,3.0702016353607178
0,510007,-23.806842803955078,-6.855241775512695,-22.751554489135742,9.137127876281738
0,510010,-38.4261589050293,-16.875864028930664,8.779394149780273,-9.061924934387207
0,510011,83.427490234375,10.042226791381836,15.40454387664795,18.966323852539062
0,510014,23.996431350708008,20.513118743896484,-9.145689010620117,15.338549613952637
0,510015,-89.84680938720703,-8.913350105285645,3.9544131755828857,-44.807735443115234
0,510018,10.972620010375977,17.527050018310547,-3.333847761154175,-9.155031204223633
0,510019,22.53443145751953,-3.3122475147247314,-23.007184982299805,27.102357864379883
0,510022,4.655879497528076,-16.236909866333008,-1.1138612031936646,-3.8834497928619385
0,510023,26.070146560668945,11.085726737976074,2.710724115371704,11.676351547241211
0,510026,-9.787426948547363,-17.86717987060547,-0.2960759997367859,10.67602252960205
0,510027,-46.50993728637695,-26.451528549194336,-15.968449592590332,-34.31490707397461
0,510030,-16.73659896850586,9.512784957885742,-4.272891998291016,5.084804534912109
0,510031,51.947269439697266,37.356117248535156,46.87078857421875,41.425472259521484
0,510034,16.725431442260742,24.125059127807617,2.2033731937408447,-24.208221435546875
0,510035,-43.85411071777344,-38.66056442260742,-36.99943542480469,-24.341238021850586
0,510038,3.3541765213012695,-22.920974731445312,25.545583724975586,32.19707489013672
0,510039,40.723716735839844,43.81407928466797,18.252683639526367,29.493364334106445
0,510042,-14.335331916809082,-15.5818452835083,-30.04884147644043,-69.32117462158203
0,510043,-32.67921447753906,-34.0252571105957,-19.804079055786133,-63.24976348876953
0,510046,42.54994583129883,56.86258316040039,11.70321273803711,95.14399719238281
0,510047,-29.27027130126953,29.91876983642578,37.812110900878906,53.47937774658203
0,510050,-53.94930648803711,-47.104801177978516,-26.8789119720459,-55.54050064086914
0,510051,103.94894409179688,-18.01279640197754,-35.03883361816406,-9.195563316345215
0,510054,37.58639144897461,-4.641384124755859,37.73381042480469,17.338903427124023
0,510055,-83.77210998535156,-17.74100685119629,9.23904800415039,-18.11870765686035
0,510058,-47.71098709106445,16.92412757873535,1.953589677810669,5.119363784790039
0,510059,19.163305282592773,43.51837921142578,9.740259170532227,36.99302291870117
0,510062,46.245452880859375,-7.21552038192749,-13.46285629272461,2.2245032787323
0,510063,16.501401901245117,-39.957054138183594,-22.020620346069336,-31.24915313720703
0,510066,-6.62650203704834,-0.7999142408370972,-13.800622940063477,-9.834724426269531
0,510067,-52.1275634765625,7.61964225769043,21.253192901611328,6.146603107452393
0,510070,-18.316965103149414,12.300567626953125,17.4855899810791,-7.976550102233887
0,510071,77.7140121459961,43.64744567871094,-4.866271495819092,12.748741149902344
0,510074,-7.703794002532959,-7.257304668426514,-36.15918731689453,-21.901878356933594
0,510075,-58.11825180053711,-81.91243743896484,-8.405838966369629,-25.11493682861328
0,510078,36.78224563598633,-3.677384614944458,54.04608917236328,26.3055419921875
0,510080,7.15219783782959,47.31652069091797,1.8053703308105469,26.06709861755371
0,510082,-24.699697494506836,-2.585188627243042,-44.377586364746094,5.397692680358887
0,510084,23.215959548950195,7.102627277374268,10.968860626220703,-20.57939338684082
0,510086,20.67787742614746,12.983072280883789,36.604347229003906,0.4355691373348236
0,510088,-26.843294143676758,-11.410846710205078,-16.098209381103516,-22.375154495239258
0,510090,-19.955490112304688,2.3231494426727295,-16.719926834106445,1.949692726135254
0,510092,39.302757263183594,6.461683750152588,16.88340950012207,52.623390197753906
0,510093,4.884148597717285,-20.03126335144043,14.35661506652832,-15.749811172485352
0,510096,-59.08937072753906,-18.167835235595703,-18.780118942260742,3.711913824081421
0,510097,7.293570518493652,24.283349990844727,-21.11026954650879,24.97645378112793
0,510100,25.53987693786621,-29.94178009033203,15.075294494628906,-78.18681335449219
0,510101,-31.49901580810547,-6.195834636688232,4.366677761077881,28.105546951293945
0,510104,54.796104431152344,89.52947235107422,9.004658699035645,77.16913604736328
0,510105,45.79080581665039,-3.9290339946746826,21.823713302612305,-91.57701873779297
0,510108,-80.7231216430664,-36.536285400390625,-8.368356704711914,-29.890825271606445
0,510109,-65.67698669433594,-18.158781051635742,-44.527366638183594,32.273101806640625
0,510112,65.73738098144531,-7.895717144012451,-8.58946704864502,8.962347984313965
0,510113,103.84305572509766,43.62498474121094,34.327877044677734,3.344329833984375
0,510116,-55.10686492919922,3.243126630783081,1.8626266717910767,-16.729141235351562
0,510117,-122.71466827392578,-10.683330535888672,3.6232497692108154,17.018739700317383
0,510120,48.4564323425293,13.813981056213379,-2.153524160385132,14.719817161560059
0,510121,88.27604675292969,-31.568490982055664,-18.238250732421875,4.142648220062256
0,510124,-21.48316192626953,-26.089982986450195,-0.9705648422241211,21.304723739624023
0,510125,-20.567798614501953,-7.2110514640808105,10.717130661010742,-21.903087615966797
0,510128,-22.10829734802246,-3.6363768577575684,2.257516622543335,-33.87165451049805
0,510129,-43.343055725097656,11.945235252380371,-28.04844856262207,18.336610794067383
0,510132,41.687625885009766,21.679256439208984,31.898540496826172,15.792182922363281
0,510133,90.61524963378906,1.9084259271621704,14.946165084838867,-11.525212287902832
0,510136,-73.39534759521484,-23.375045776367188,-43.143638610839844,-10.681059837341309
0,510137,-38.04506301879883,27.824995040893555,30.18680191040039,23.97189712524414
0,510140,64.28748321533203,3.697352170944214,-0.9661579132080078,5.796509742736816
0,510141,-51.23166275024414,-10.815668106079102,-35.22209930419922,-46.9368782043457
0,510144,12.414947509765625,3.7188613414764404,28.0986270904541,4.6172051429748535
0,510145,51.78157043457031,-24.281444549560547,21.693275451660156,51.053001403808594
0,510148,-41.42939758300781,18.787874221801758,-5.6540374755859375,-9.836132049560547
0,510149,-40.03788375854492,14.923545837402344,1.8638019561767578,-13.035597801208496
0,510152,55.32737731933594,-9.665984153747559,-7.472293376922607,25.503707885742188
0,510153,47.9024658203125,4.776468276977539,-24.27481460571289,-22.584667205810547
0,510156,-83.55342864990234,-10.461458206176758,-5.90071439743042,-46.56936264038086
0,510157,-31.736955642700195,-14.730145454406738,17.817399978637695,27.971426010131836
0,510160,74.97732543945312,19.700183868408203,31.510713577270508,66.84562683105469
0,510161,17.633609771728516,16.66448402404785,-12.752787590026855,-50.63301467895508
0,510164,-32.407711029052734,1.0326883792877197,-68.5390853881836,-64.67691802978516
0,510165,23.102170944213867,3.5684802532196045,19.26920509338379,68.34869384765625
0,510168,-42.71002197265625,-32.81621551513672,54.17497253417969,31.276615142822266
0,510169,-86.14546203613281,-13.799442291259766,-32.35586166381836,-27.525516510009766
0,510172,100.0120849609375,23.580080032348633,-3.925360918045044,-9.172277450561523
0,510173,103.18125915527344,-13.968711853027344,44.38261413574219,-18.96992301940918
0,510176,-112.40654754638672,-21.033802032470703,-27.575153350830078,-22.157814025878906
0,510177,-65.71284484863281,27.632356643676758,-21.110435485839844,28.723224639892578
0,510180,69.9542465209961,10.355880737304688,36.631202697753906,63.99282455444336
0,510181,16.688940048217773,8.711221694946289,-10.7282075881958,-26.519954681396484
0,510184,1.3438937664031982,28.296586990356445,0.3940642178058624,-70.00180053710938
0,510185,16.61692237854004,-32.375404357910156,34.21818161010742,10.161822319030762
0,510188,-31.860496520996094,-32.87499237060547,-27.192781448364258,28.502965927124023
0,510189,-82.59174346923828,26.918367385864258,-58.05952453613281,-8.958002090454102
0,510192,61.94690704345703,7.277339935302734,25.8818416595459,3.270308494567871
0,510193,132.65884399414062,-3.7031853199005127,45.54515075683594,45.53153610229492
0,510196,-115.58513641357422,12.883041381835938,-44.48453140258789,-23.357891082763672
0,510197,-76.32788848876953,-54.906612396240234,-25.07493019104004,-63.104305267333984
0,510200,111.38078308105469,11.143759727478027,48.02149963378906,58.18333053588867
0,510201,-3.941485643386841,56.13212203979492,28.269716262817383,35.38150405883789
0,510204,-18.38235092163086,-43.65913391113281,3.2655444145202637,-53.897621154785156
0,510205,27.44796371459961,-13.143123626708984,-14.105438232421875,3.430691719055176
0,510208,-74.30133056640625,2.449213743209839,-56.09750747680664,26.523466110229492
0,510209,-35.046077728271484,11.231426239013672,2.3358442783355713,-33.8261833190918
0,510212,101.22528076171875,51.143951416015625,58.180633544921875,-1.1530159711837769
0,510213,67.14982604980469,-3.9862539768218994,-15.766348838806152,26.64120864868164
0,510216,-108.33634185791016,-36.57481002807617,-47.113685607910156,-23.300561904907227
0,510217,-81.099609375,13.087250709533691,26.009334564208984,1.7035452127456665
0,510220,101.47664642333984,10.174572944641113,36.36903762817383,34.3381462097168
0,510221,21.75130271911621,-40.13023376464844,-28.08101463317871,8.417906761169434
0,510224,-19.66813087463379,20.631240844726562,5.369843006134033,-16.208349227905273
0,510225,59.74535369873047,28.643775939941406,35.59746170043945,-20.722196578979492
0,510228,-67.14694213867188,-48.65922164916992,-53.48591232299805,-69.9740219116211
0,510229,-98.6966552734375,-21.668630599975586,-35.1685905456543,-24.883237838745117
0,510232,91.04525756835938,40.687801361083984,81.64190673828125,112.4646224975586
0,510233,89.2519302368164,54.61567306518555,9.509930610656738,79.3818130493164
0,510236,-102.01631164550781,-66.53118896484375,-75.361328125,24.83190155029297
0,510237,-31.627073287963867,-73.94679260253906,-6.335503578186035,1.9373503923416138
0,510240,66.45873260498047,87.51840209960938,23.34189796447754,-172.65504455566406
0,510241,-24.722431182861328,34.4893913269043,10.660183906555176,-105.49427032470703
0,510244,15.708937644958496,-41.94268798828125,-0.8170899152755737,127.78250122070312
0,510245,28.461528778076172,9.867006301879883,5.011862754821777,20.486419677734375
0,510248,-30.819181442260742,-8.706701278686523,42.122581481933594,24.32016944885254
0,510249,-10.480764389038086,-9.947440147399902,34.2715950012207,102.74885559082031
0,510252,25.669836044311523,13.496755599975586,-46.34512710571289,-85.13963317871094
0,510253,33.14259719848633,4.723659992218018,-62.200584411621094,-167.1990966796875
0,510256,-82.425537109375,-2.802356004714966,-35.136863708496094,15.85099983215332
0,510257,-58.65165710449219,-23.82649040222168,-15.813018798828125,144.69544982910156
0,510260,95.06205749511719,10.472371101379395,70.5680160522461,-6.841248512268066
0,510261,14.813626289367676,29.54405403137207,66.34854888916016,-49.391754150390625
0,510264,-29.066282272338867,-15.428936958312988,-20.172080993652344,77.52727508544922
0,510265,19.47920036315918,-12.128373146057129,-30.456043243408203,13.889566421508789
0,510268,-47.51005935668945,-2.8493919372558594,-10.935955047607422,-73.02576446533203
0,510269,-63.66963195800781,-42.892730712890625,-22.282119750976562,-26.352575302124023
0,510272,88.72639465332031,21.856117248535156,34.057167053222656,66.55744171142578
0,510273,133.7081756591797,76.31739807128906,55.88680648803711,4.048407554626465
0,510276,-46.22117614746094,74.91850280761719,18.61688995361328,-38.319515228271484
0,510277,-117.53128814697266,-20.703556060791016,-26.616443634033203,0.5330837368965149
0,510280,0.5805153250694275,-148.03538513183594,-74.50237274169922,-130.09909057617188
0,510282,55.7663459777832,6.445376396179199,17.114450454711914,107.62739562988281
0,510284,17.76925277709961,64.0914077758789,2.7086575031280518,370.253662109375
0,510286,15.371576309204102,-8.256851196289062,-41.7406120300293,-155.37637329101562
0,510288,-99.39192962646484,-37.72427749633789,-0.2893850803375244,-440.8063659667969
0,510290,-70.38670349121094,-21.529966354370117,-8.800437927246094,85.93982696533203
0,510292,162.48606872558594,67.56132507324219,60.04833221435547,234.5260772705078
0,510294,39.40510940551758,2.064354419708252,60.96015930175781,-40.90887451171875
0,510295,-113.52771759033203,-45.674354553222656,-50.56260681152344,-43.959754943847656
0,510298,0.9194179177284241,27.48814582824707,-25.963285446166992,-22.998594284057617
0,510299,19.30006980895996,-9.45283317565918,40.784122467041016,-33.84674072265625
0,510302,11.312958717346191,-45.3922004699707,-27.90743637084961,84.61437225341797
0,510304,29.276317596435547,30.814857482910156,-56.22541809082031,219.9495391845703
0,510305,2.5933268070220947,49.4854621887207,34.67132568359375,90.801513671875
0,510308,-41.93691635131836,-12.615760803222656,26.31307601928711,-469.5505065917969
0,510309,-58.568267822265625,-17.317398071289062,-44.227752685546875,-254.79783630371094
0,510312,58.443233489990234,22.0320987701416,27.01873016357422,496.6523742675781
0,510313,96.13961029052734,-6.3485188484191895,52.41756057739258,63.337398529052734
0,510316,-91.1869888305664,-37.53104782104492,-38.06061553955078,-301.9345397949219
0,510317,-58.697837829589844,2.090376138687134,-5.578512191772461,128.5292205810547
0,510320,84.88751983642578,27.25385284423828,37.77688217163086,140.33419799804688
0,510321,-11.22433090209961,-7.32002067565918,-2.263638973236084,-140.13795471191406
0,510324,-28.235618591308594,1.5029840469360352,-41.159767150878906,-142.92738342285156
0,510325,13.672981262207031,0.8345527052879333,-35.259971618652344,61.701908111572266
0,510328,11.900014877319336,-17.119277954101562,57.82990264892578,160.4120330810547
0,510329,-12.315643310546875,25.23565101623535,25.415868759155273,43.16343307495117
0,510332,7.02340030670166,-5.541631698608398,-84.99546813964844,-115.28148651123047
0,510333,54.48217010498047,-38.841922760009766,-4.286473274230957,-93.2055435180664
0,510336,-58.01246643066406,40.21792984008789,75.67951965332031,139.55657958984375
0,510337,-34.57948684692383,25.875625610351562,-2.596966028213501,78.62893676757812
0,510340,52.33546829223633,-33.71947479248047,-43.05769729614258,-121.82781982421875
0,510341,-16.71733283996582,3.7458655834198,-0.6588947772979736,-3.050241470336914
0,510344,1.4274539947509766,33.400447845458984,29.08843994140625,6.49896240234375
0,510345,20.137331008911133,-18.606338500976562,14.492269515991211,-15.12719440460205
0,510348,-46.022979736328125,-40.15961456298828,-21.07526397705078,2.8896520137786865
0,510349,-29.01681900024414,27.035245895385742,-0.15770433843135834,-89.2476806640625
0,510352,99.75232696533203,24.81388282775879,32.46836853027344,142.7493896484375
0,510353,65.83084869384766,-7.977890968322754,-8.673727989196777,327.12725830078125
0,510356,-127.64663696289062,-26.80320167541504,-57.75456619262695,-87.70330810546875
0,510357,-59.96574783325195,-17.290557861328125,-11.886841773986816,-484.58795166015625
0,510360,76.21874237060547,-18.103763580322266,21.084896087646484,-95.83746337890625
0,510361,6.970494270324707,3.541841506958008,22.637062072753906,367.2622985839844
0,510364,-9.36544132232666,62.005714416503906,32.78519821166992,-42.983577728271484
0,510365,19.80770492553711,-19.562007904052734,-8.302244186401367,-186.15045166015625
0,510368,-10.538979530334473,-24.962385177612305,5.82192325592041,232.85055541992188
0,510369,-28.679174423217773,46.20317840576172,-4.880699634552002,165.1972198486328
0,510372,29.87232208251953,-9.685482025146484,-85.53388977050781,-172.17449951171875
0,510373,31.50929832458496,-19.648147583007812,-5.298929691314697,-487.6082458496094
0,510376,-77.21147918701172,-12.971940994262695,68.66163635253906,-32.97686767578125
0,510377,-27.954362869262695,-29.78047752380371,-10.189452171325684,565.7742309570312
0,510380,77.56390380859375,33.0236701965332,25.570301055908203,194.05641174316406
0,510381,20.76059913635254,54.50614547729492,39.263816833496094,-83.73619842529297
0,510384,-22.5922794342041,-7.417149066925049,-74.12035369873047,-312.3340148925781
0,510385,-16.18603515625,-39.93227005004883,-53.125091552734375,-297.6595153808594
0,510388,-26.5637264251709,-13.820284843444824,50.143226623535156,332.5291442871094
0,510389,-2.6047279834747314,18.585474014282227,85.91757202148438,453.26904296875
0,510392,53.25233840942383,28.598962783813477,-29.181293487548828,87.64289093017578
0,510393,56.86689376831055,-11.209197998046875,-86.4168701171875,-135.8102264404297
0,510396,-30.313745498657227,-11.747405052185059,70.7175064086914,-432.8904724121094
0,510397,-54.9549560546875,10.039593696594238,49.56471633911133,-418.9342041015625
0,510400,-24.25518226623535,-28.170286178588867,-105.53731536865234,302.4711608886719
0,510401,-26.90683937072754,-8.47415542602539,-42.0848274230957,407.0843505859375
0,510404,63.82033157348633,6.262851238250732,78.38151550292969,-140.40806579589844
0,510405,65.29281616210938,8.85999870300293,40.736732482910156,-48.299537658691406
0,510408,-83.39900970458984,29.52193832397461,-47.437564849853516,49.7891731262207
0,510409,-60.10188293457031,-55.86512756347656,-37.54545593261719,-149.96087646484375
0,510412,88.65934753417969,-10.662978172302246,41.80242919921875,-11.752196311950684
0,510413,70.281982421875,87.48196411132812,33.07670211791992,216.2917938232422
0,510416,-85.10218048095703,-15.085953712463379,-51.84149932861328,-242.7936248779297
0,510417,-54.6421012878418,-49.786773681640625,-22.447656631469727,-257.5863037109375
0,510420,25.173995971679688,14.52932357788086,28.14776611328125,552.1943969726562
0,510421,2.6415326595306396,19.869426727294922,-10.35737419128418,80.64408874511719
0,510424,56.62372589111328,14.173343658447266,29.40668487548828,-354.3668212890625
0,510425,51.20050048828125,23.50350570678711,43.57086944580078,168.0260009765625
0,510428,-65.36619567871094,-55.65171432495117,-14.093109130859375,42.58142852783203
0,510429,-65.3051986694336,-15.048351287841797,-2.1784284114837646,-77.58316040039062
0,510432,74.19703674316406,61.463279724121094,-24.951065063476562,-50.222991943359375
0,510433,46.816246032714844,-48.78877258300781,-54.57632064819336,-45.35044860839844
0,510436,-151.1084442138672,-83.07464599609375,-40.897216796875,-185.5137939453125
0,510437,-0.3424656391143799,23.411470413208008,79.8056411743164,-120.57685089111328
0,510440,127.57495880126953,80.82585906982422,83.51958465576172,600.5650634765625
0,510441,-48.19551086425781,18.33028221130371,-64.17483520507812,250.5271453857422
0,510444,57.12126922607422,-5.504242897033691,2.2827281951904297,-323.1332702636719
0,510445,74.1865234375,-1.6340616941452026,30.34682846069336,-138.4219207763672
0,510448,-158.2854461669922,-17.156171798706055,-49.825584411621094,-227.2246551513672
0,510449,-104.72029113769531,-5.000741481781006,-45.55110549926758,10.025359153747559
0,510452,92.5395278930664,17.013031005859375,8.54340648651123,354.83673095703125
0,510453,58.29821014404297,-12.762465476989746,6.340946674346924,187.46633911132812
0,510456,-21.0522518157959,-17.718738555908203,41.48157501220703,-166.5564422607422
0,510457,58.3737907409668,45.97800064086914,155.8870391845703,-337.9505310058594
0,510460,-16.980924606323242,-3.478400468826294,-42.64720916748047,38.894981384277344
0,510461,-69.90693664550781,-74.00216674804688,-202.42648315429688,94.63227081298828
0,510464,57.50813674926758,10.795805931091309,-16.206636428833008,-64.09932708740234
0,510465,15.79322624206543,51.474647521972656,62.45713424682617,14.468749046325684
0,510468,-89.9902114868164,-45.90812683105469,9.239350318908691,-0.6996967792510986
0,510469,-55.428646087646484,-48.15156555175781,16.101552963256836,207.16342163085938
0,510472,160.09176635742188,73.93275451660156,82.88224792480469,94.65733337402344
0,510473,123.95865631103516,55.354278564453125,-6.54378604888916,-310.9789123535156
0,510476,-237.49705505371094,-92.51148223876953,-129.07559204101562,-207.56622314453125
0,510477,-109.41156768798828,-10.60799789428711,-11.052736282348633,215.57833862304688
0,510480,172.4732666015625,82.7594223022461,94.7100830078125,260.8247375488281
0,510481,50.31306457519531,6.673827171325684,41.677188873291016,-122.37423706054688
0,510484,18.119056701660156,48.787437438964844,16.781036376953125,-179.34390258789062
0,510485,-2.183830499649048,-36.56453323364258,8.802359580993652,73.1025619506836
0,510488,-88.13238525390625,-116.03421783447266,-90.3208999633789,169.4529571533203
0,510489,-65.95647430419922,-9.212227821350098,-110.74020385742188,30.363391876220703
0,510492,17.463016510009766,5.4471755027771,-18.081430435180664,-147.31768798828125
0,510493,143.3928680419922,78.3626480102539,97.05606079101562,-186.08758544921875
0,510499,-61.9979362487793,63.64896774291992,126.60953521728516,-38.93216323852539
0,510499,-128.17727661132812,-54.4241828918457,6.455329418182373,221.58187866210938
0,510500,163.10401916503906,-4.033527374267578,-27.19285011291504,173.0183868408203
0,510502,36.42170333862305,-1.7761213779449463,-84.24773406982422,246.25254821777344
0,510504,-136.73666381835938,-48.109622955322266,-131.47499084472656,-269.81402587890625
0,510506,-6.143545150756836,2.1577630043029785,88.48340606689453,-689.627197265625
0,510508,67.76512908935547,54.662601470947266,117.51097106933594,161.59629821777344
0,510510,2.85874605178833,21.681373596191406,-56.9520378112793,340.2896423339844
0,510512,-2.853382110595703,-59.26890182495117,13.699462890625,283.5670166015625
0,510514,58.41286087036133,-18.669477462768555,33.88387680053711,162.9593963623047
0,510516,-68.4479751586914,28.392581939697266,-62.404449462890625,-44.64358139038086
0,510518,-60.57298278808594,-14.560205459594727,-32.69317626953125,-459.98138427734375
0,510520,51.95838165283203,-12.564278602600098,-32.400604248046875,-344.4327087402344
0,510522,-42.03361511230469,-0.24845443665981293,-20.527477264404297,543.8557739257812
0,510524,61.37519073486328,21.053634643554688,132.68565368652344,-50.49563980102539
0,510526,106.58332061767578,32.58717727661133,125.03392028808594,-83.03950500488281
0,510528,-138.34303283691406,-4.9819746017456055,-129.86178588867188,53.76508331298828
0,510530,-110.2171630859375,-23.861047744750977,-86.14576721191406,-495.3757629394531
0,510532,129.64297485351562,13.703279495239258,62.468936920166016,215.7505340576172
0,510534,132.30943298339844,12.223548889160156,-8.861474990844727,628.1497192382812
0,510536,-139.19757080078125,-43.93997573852539,-11.975614547729492,-155.8430633544922
0,510538,-118.14307403564453,1.4868183135986328,8.869684219360352,-309.4983215332031
0,510540,153.28671264648438,66.47631072998047,51.01603317260742,166.45538330078125
0,510542,36.670284271240234,-23.763530731201172,-21.619522094726562,50.50324249267578
0,510544,-107.45497131347656,-113.04505920410156,-109.74935913085938,-117.03209686279297
0,510546,33.988277435302734,38.7669792175293,42.66182327270508,-4.103058815002441
0,510548,23.06634521484375,125.87471771240234,83.21633911132812,-123.54454803466797
0,510550,-71.17251586914062,-5.264339447021484,-16.388633728027344,-235.6324462890625
0,510552,73.77135467529297,-22.475515365600586,-10.52365493774414,513.0406494140625
0,510554,79.14205169677734,-36.042903900146484,-24.43167495727539,815.4159545898438
0,510556,-91.17204284667969,-40.12614059448242,-24.324264526367188,-897.3350830078125
0,510558,-18.57239532470703,55.39096450805664,48.03726577758789,-1013.424072265625
0,510560,4.0294575691223145,-17.947134017944336,-19.852291107177734,702.7733154296875
0,510562,-32.803810119628906,-42.193058013916016,-15.931828498840332,655.7680053710938
0,510564,97.92582702636719,67.01183319091797,92.09962463378906,-480.0758972167969
0,510566,-9.185983657836914,-50.941566467285156,-58.89100646972656,-350.5954895019531
0,510568,-145.76600646972656,-68.12061309814453,-101.28284454345703,753.5659790039062
0,510570,4.871469020843506,78.92048645019531,44.267791748046875,193.53793334960938
0,510572,131.3688201904297,36.705509185791016,82.6714096069336,-663.4539794921875
0,510574,70.4498062133789,21.767683029174805,54.06584167480469,-199.0045623779297
0,510576,-110.55874633789062,-8.984796524047852,-57.20390701293945,293.1824645996094
0,510578,-57.831172943115234,-73.57650756835938,-33.49799346923828,67.65406036376953
0,510580,96.00131225585938,-0.6293984055519104,-6.299188613891602,4.611857891082764
0,510582,-26.54946517944336,44.10577392578125,-50.462589263916016,90.0101318359375
0,510584,-8.121377944946289,29.37473487854004,65.56161499023438,-139.5618896484375
0,510586,89.84855651855469,24.195825576782227,55.92120361328125,-159.9561309814453
0,510588,-104.6534194946289,-49.515464782714844,-39.179771423339844,142.83641052246094
0,510590,-96.08296966552734,-55.40580749511719,-23.216163635253906,521.3828125
0,510592,153.68943786621094,55.59090042114258,13.615859985351562,-676.7449340820312
0,510594,61.29677963256836,-0.2504068613052368,9.839792251586914,-944.2779541015625
0,510596,-170.39129638671875,-68.4953842163086,-74.49044036865234,1059.8460693359375
0,510598,-28.909503936767578,37.52460479736328,5.13029670715332,715.6825561523438
0,510600,109.57854461669922,46.629783630371094,74.69120025634766,-537.4417114257812
0,510602,-22.039871215820312,-19.061044692993164,-50.75935363769531,-227.8404083251953
0,510604,18.59244155883789,-34.41461944580078,-5.743977069854736,85.86321258544922
0,510606,46.097930908203125,-4.395631313323975,42.7319221496582,235.13861083984375
0,510608,-88.50431823730469,-5.365656852722168,-41.10322570800781,447.95953369140625
0,510610,-58.42272186279297,-31.15087890625,-50.41719436645508,-358.4448547363281
0,510612,104.4105453491211,95.9715576171875,82.87551879882812,-771.4760131835938
0,510614,125.22964477539062,78.53617095947266,149.3583221435547,449.397216796875
0,510616,-123.66454315185547,-66.4947280883789,-103.74971771240234,155.1552734375
0,510618,-102.64007568359375,-32.1649284362793,-126.38510131835938,-439.921630859375
0,510620,108.00064086914062,-2.5093319416046143,39.9807243347168,200.0360565185547
0,510622,-12.811362266540527,-50.26605224609375,-16.93214225769043,85.18331909179688
0,510624,-19.934743881225586,26.634872436523438,61.25835037231445,-65.61551666259766
0,510626,27.205856323242188,47.3363037109375,45.686248779296875,195.8160858154297
0,510628,-50.885154724121094,-55.43617248535156,-44.66167449951172,-121.35208129882812
0,510630,0.9515986442565918,5.735143661499023,23.655405044555664,-189.12075805664062
0,510632,46.991539001464844,23.519956588745117,-60.68717956542969,92.15678405761719
0,510634,0.5303946137428284,-47.687007904052734,-105.05714416503906,45.757320404052734
0,510636,-86.61202239990234,-35.630916595458984,44.652137756347656,319.528076171875
0,510638,18.837142944335938,87.0229263305664,119.87451171875,321.3178405761719
0,510640,131.79974365234375,60.02391815185547,45.37717819213867,-461.8055419921875
0,510642,-19.177276611328125,-54.43980026245117,-41.15012741088867,-413.7579650878906
0,510644,-42.71536636352539,28.902372360229492,4.218443870544434,264.80419921875
0,510646,28.118276596069336,10.329322814941406,52.35265350341797,94.20947265625
0,510647,-51.332881927490234,-44.48412322998047,-67.95935821533203,-109.20966339111328
0,510650,-59.51118850708008,-30.428504943847656,-120.0130615234375,239.31576538085938
0,510651,58.33621597290039,-38.060848236083984,-37.33501052856445,60.9658317565918
0,510654,73.95832824707031,49.262813568115234,122.46884155273438,-717.4026489257812
0,510655,-41.661930084228516,51.50603103637695,130.1023712158203,-141.17747497558594
0,510658,-66.56267547607422,-36.114532470703125,-75.51384735107422,989.3316650390625
0,510659,20.718597412109375,-7.4970011711120605,-89.61727142333984,86.63289642333984
0,510662,28.25115394592285,-15.952130317687988,2.94566011428833,-657.1455688476562
0,510663,-25.1469783782959,22.99356460571289,29.009437561035156,16.401460647583008
0,510666,16.0102481842041,33.63163375854492,-1.034182071685791,187.25927734375
0,510667,30.854307174682617,-38.78845977783203,47.46317672729492,134.68258666992188
0,510670,-47.07804870605469,-0.20989938080310822,38.72113800048828,-0.4084344804286957
0,510671,25.728866577148438,13.31065559387207,-61.67048645019531,-311.1466979980469
0,510674,39.26308822631836,-31.307594299316406,-26.118877410888672,-49.9524040222168
0,510675,-85.5595703125,-30.946361541748047,-29.886638641357422,237.22918701171875
0,510678,-24.88864517211914,22.518611907958984,-8.511388778686523,167.83328247070312
0,510679,80.51171875,30.019624710083008,44.9589958190918,-15.219286918640137
0,510682,36.903297424316406,5.405326843261719,2.479910135269165,-197.53245544433594
0,510683,-57.670143127441406,-1.3299190998077393,5.520301818847656,-66.68315887451172
0,510686,-15.858281135559082,-14.66177749633789,-3.1420493125915527,10.757752418518066
0,510687,1.3466036319732666,-10.241487503051758,-44.360172271728516,-19.405271530151367
0,510690,2.2023134231567383,24.01093101501465,56.52422332763672,95.58393859863281
0,510691,89.07874298095703,31.264301300048828,51.36213302612305,97.9242935180664
0,510694,-20.163646697998047,9.054417610168457,-48.52840042114258,10.220124244689941
0,510695,-97.08201599121094,-45.34357452392578,-25.218130111694336,-31.93714141845703
0,510698,-0.06930170953273773,-24.14597511291504,17.096227645874023,-98.58179473876953
0,510699,47.476646423339844,40.3171501159668,15.403838157653809,-5.759166240692139
0,510702,31.82957649230957,0.7645546793937683,-31.43301773071289,162.45401000976562
0,510703,-40.67251968383789,-54.444854736328125,-32.45988464355469,-45.1919059753418
0,510706,8.334007263183594,-19.84581184387207,16.846708297729492,-295.994873046875
0,510708,3.5038905143737793,41.92587661743164,39.978553771972656,-5.289267063140869
0,510710,-39.734676361083984,43.46502685546875,9.839487075805664,285.5009460449219
0,510712,75.46050262451172,-3.657426595687866,12.383522033691406,45.2263069152832
0,510714,-3.2229623794555664,-27.676271438598633,-4.073614120483398,-121.38084411621094
0,510716,-77.34176635742188,-1.8258390426635742,-44.36455535888672,4.379547119140625
0,510718,18.015663146972656,-8.936046600341797,14.231891632080078,33.06591796875
0,510720,41.8079719543457,8.936246871948242,26.7009334564209,-35.62009811401367
0,510722,-14.350383758544922,8.165130615234375,-54.972896575927734,20.214073181152344
0,510724,-31.301237106323242,-4.381043910980225,-47.23283004760742,7.8903985023498535
0,510726,23.947999954223633,22.450984954833984,22.90908432006836,-77.31270599365234
0,510728,-3.4963271617889404,3.8166768550872803,99.47465515136719,37.95521926879883
0,510730,-16.023473739624023,-38.678688049316406,26.541868209838867,60.10735321044922
0,510732,61.9045295715332,-33.12043380737305,-89.58592987060547,-39.08015060424805
0,510734,-4.30075740814209,22.216083526611328,-5.365332126617432,0.7801376581192017
0,510736,-78.42620849609375,36.86222457885742,27.72100067138672,69.65711212158203
0,510738,0.2668915092945099,-0.5362085700035095,14.300399780273438,12.803853034973145
0,510740,44.819026947021484,-6.578352451324463,-6.682682037353516,-73.26364135742188
0,510742,19.344867706298828,20.75956916809082,-24.65500259399414,-48.665794372558594
0,510744,-16.27347183227539,-19.147289276123047,24.331172943115234,-47.60546112060547
0,510746,4.407489776611328,6.474484443664551,7.78107213973999,-35.44414138793945
0,510748,-9.8711576461792,16.520017623901367,-56.605709075927734,61.33710861206055
0,510750,-4.31859827041626,-51.34347152709961,-61.867347717285156,80.98686218261719
0,510752,51.186466217041016,20.104833602905273,35.26795959472656,6.176428318023682
0,510754,-48.36711120605469,11.77913761138916,134.8234100341797,59.768646240234375
0,510756,-70.71900177001953,-55.25737380981445,51.335853576660156,58.39158630371094
0,510758,44.16884231567383,3.541017532348633,-116.96385192871094,-133.4107208251953
0,510760,64.88643646240234,50.68287658691406,-92.69715881347656,-97.10882568359375
0,510762,17.757051467895508,11.562508583068848,53.70936584472656,63.9513053894043
0,510764,-46.285911560058594,-30.204486846923828,67.0384292602539,33.42586898803711
0,510766,-26.485130310058594,-0.6831337809562683,-5.315031051635742,-6.931924819946289
0,510768,-23.408071517944336,15.349111557006836,-42.70851135253906,-11.692227363586426
0,510770,28.145692825317383,5.689313888549805,-22.711397171020508,-59.38053894042969
0,510772,111.94847106933594,5.024355411529541,47.03229904174805,3.920684337615967
0,510774,-99.97447204589844,-30.215110778808594,13.420016288757324,119.92736053466797
0,510776,-118.31602478027344,-14.027678489685059,-30.344932556152344,13.709633827209473
0,510778,82.22280883789062,44.62290954589844,-35.040096282958984,-139.2985382080078
0,510780,93.93289184570312,4.860107421875,56.37278747558594,-17.611902236938477
0,510782,74.9289779663086,-29.51653289794922,43.761268615722656,94.67189025878906
0,510784,-65.314697265625,1.6581578254699707,-89.66905975341797,20.664827346801758
0,510786,-147.1061248779297,-10.354501724243164,20.907703399658203,-26.60668182373047
0,510788,-31.541202545166016,-1.1023882627487183,17.842172622680664,-1.8296515941619873
0,510790,94.1793441772461,55.228294372558594,-2.6768486499786377,61.45166778564453
0,510792,91.71484375,-11.525909423828125,36.373634338378906,15.940078735351562
0,510794,-59.070655822753906,-82.50491333007812,-10.675206184387207,-111.201416015625
0,510796,-36.246673583984375,27.01824378967285,-37.07002639770508,-64.69926452636719
0,510798,0.3592068552970886,45.758365631103516,-62.938377380371094,39.67782211303711
0,510800,-26.107988357543945,-26.698469161987305,41.040592193603516,77.38992309570312
0,510802,38.23439025878906,-3.202176570892334,44.825016021728516,11.166281700134277
0,510804,19.57876205444336,13.87286376953125,-31.69974136352539,-44.07501983642578
0,510806,-12.382183074951172,1.1633020639419556,5.012315273284912,32.6732063293457
0,510808,-26.4263973236084,15.801153182983398,-14.420426368713379,-5.1789164543151855
0,510810,37.81938552856445,33.28993606567383,18.97110366821289,-50.12882995605469
0,510812,90.3419418334961,-0.3386651277542114,48.126800537109375,94.35612487792969
0,510814,-35.652976989746094,-26.894624710083008,-22.047372817993164,66.09759521484375
0,510816,-87.85872650146484,-37.911590576171875,-31.87335968017578,-141.7944793701172
0,510818,-15.408316612243652,-5.1897149085998535,-31.43531608581543,-61.57210159301758
0,510820,26.4268798828125,22.012601852416992,33.57817840576172,86.71358489990234
0,510822,23.842008590698242,-10.698575973510742,62.731109619140625,29.608753204345703
0,510824,0.12378152459859848,-22.952804565429688,-31.392480850219727,-29.562606811523438
0,510826,-22.451505661010742,-2.2187178134918213,-44.7930908203125,-79.13687896728516
0,510828,-57.04379653930664,-18.3065128326416,-8.754913330078125,-51.527950286865234
0,510830,15.500041007995605,10.100102424621582,19.5875301361084,111.33604431152344
0,510832,89.1812515258789,103.9062728881836,23.247955322265625,121.84984588623047
0,510834,-5.288313865661621,-2.350196361541748,-8.726011276245117,-55.342098236083984
0,510836,-54.082000732421875,-89.87837982177734,-26.115755081176758,-138.0697479248047
0,510838,-1.1429615020751953,16.16146469116211,3.234487295150757,31.3692626953125
0,510840,28.9448299407959,36.243656158447266,35.48312759399414,78.31768798828125
0,510842,-11.17448902130127,-17.378454208374023,6.295276165008545,-3.9474008083343506
0,510844,13.946145057678223,-17.412681579589844,7.288205623626709,30.086519241333008
0,510846,22.117746353149414,22.9254093170166,-25.88654136657715,-44.221229553222656
0,510848,-59.90666961669922,17.844806671142578,-52.7113151550293,-19.43804168701172
0,510850,-4.1919026374816895,-42.93326187133789,37.32753372192383,11.366044044494629
0,510852,56.2922248840332,-49.16423797607422,35.47355270385742,-63.82099533081055
0,510854,-4.089022159576416,51.799930572509766,-19.875097274780273,30.806934356689453
0,510856,-36.058258056640625,71.64216613769531,6.375769138336182,25.67713737487793
0,510858,3.4435319900512695,-57.36228561401367,-15.509870529174805,-17.90437889099121
0,510860,38.294803619384766,-28.633079528808594,-26.414873123168945,5.452547073364258
0,510862,9.947065353393555,57.12543869018555,33.81243896484375,24.981664657592773
0,510864,-33.9335823059082,-23.68726921081543,13.8673095703125,66.23616027832031
0,510866,-4.430265426635742,-19.962173461914062,-9.950943946838379,-46.93960189819336
0,510868,-2.4850645065307617,22.611082077026367,4.999865531921387,-65.94769287109375
0,510870,-3.3529207706451416,4.1348676681518555,-18.101463317871094,28.16061782836914
0,510872,59.49266815185547,35.402156829833984,2.199876308441162,81.73178100585938
0,510874,-11.480693817138672,-29.39252281188965,19.640913009643555,-11.378947257995605
0,510876,-57.226375579833984,-51.11058807373047,-18.112945556640625,-136.70069885253906
0,510878,14.415907859802246,21.013526916503906,-11.012354850769043,27.496166229248047
0,510880,-8.75446891784668,-37.39329528808594,-3.057108163833618,85.57953643798828
0,510882,-4.407331943511963,5.921389579772949,4.734447002410889,-65.1875
0,510884,16.905471801757812,45.727962493896484,30.359865188598633,-20.400686264038086
0,510886,2.1027543544769287,-13.200543403625488,-5.468391418457031,41.689308166503906
0,510888,-22.931663513183594,10.199101448059082,-15.623783111572266,27.149246215820312
0,510890,7.085062503814697,0.4130377471446991,10.001518249511719,13.030158996582031
0,510892,78.103759765625,-0.031242679804563522,-10.744958877563477,-38.41746139526367
0,510893,-22.213817596435547,6.483680248260498,-21.125507354736328,-15.880682945251465
0,510896,-76.15666198730469,-6.136794090270996,16.070226669311523,9.135403633117676
0,510897,15.448171615600586,9.937583923339844,29.965620040893555,24.45241355895996
0,510900,42.11675262451172,10.49443531036377,-17.574199676513672,42.533016204833984
0,510901,-27.707963943481445,4.851044178009033,-8.584205627441406,45.71907424926758
0,510904,-21.929414749145508,1.1520040035247803,0.9425598978996277,-15.71419906616211
0,510905,30.903825759887695,-26.045398712158203,-4.983405113220215,-93.72154998779297
0,510908,-27.45810890197754,-48.71581268310547,25.44395637512207,-106.22230529785156
0,510909,-74.8951644897461,-9.828953742980957,-30.46169662475586,-89.99325561523438
0,510912,67.48825073242188,47.22964096069336,-12.293591499328613,152.37026977539062
0,510913,131.6927032470703,51.81334686279297,69.72601318359375,182.069091796875
0,510916,-92.5147933959961,-7.035623550415039,-12.678558349609375,-62.71592712402344
0,510917,-48.44318771362305,-20.843189239501953,-58.90207290649414,-53.70936584472656
0,510920,74.86090850830078,29.086790084838867,47.00660705566406,-19.984039306640625
0,510921,-25.939849853515625,-10.419803619384766,20.35187530517578,12.47583293914795
0,510924,8.469963073730469,-60.8951301574707,-65.98672485351562,-22.6564998626709
0,510925,6.5923285484313965,-20.968456268310547,-20.5114688873291,-49.11454772949219
0,510930,-0.9822024703025818,36.917110443115234,66.6884765625,107.93450164794922
0,510930,21.29960060119629,14.202630043029785,52.17938995361328,68.56136322021484
0,510931,-27.099109649658203,-32.0443115234375,-49.97920608520508,-50.48416519165039
0,510934,-12.9384183883667,14.509629249572754,-38.211971282958984,-24.507158279418945
0,510935,-20.34463882446289,27.79306411743164,6.80819845199585,-44.63607406616211
0,510938,-37.950340270996094,-21.129858016967773,10.635547637939453,-56.182891845703125
0,510939,8.822311401367188,1.859540343284607,-17.5595645904541,8.140717506408691
0,510942,55.587955474853516,18.891551971435547,-14.394035339355469,74.44181823730469
0,510943,38.18317794799805,19.971311569213867,40.942440032958984,35.66316223144531
0,510946,-47.72926330566406,-44.207027435302734,-16.383220672607422,-88.82919311523438
0,510947,-77.81671905517578,-82.1970443725586,-26.4859619140625,-35.13798522949219
0,510950,51.784549713134766,92.52906036376953,45.9976921081543,76.55862426757812
0,510951,109.53633117675781,64.99124908447266,-2.0442821979522705,51.27450942993164
0,510954,-65.57276916503906,-105.11476135253906,-46.36174774169922,1.537683129310608
0,510955,-96.3812026977539,-6.755483627319336,7.6521992683410645,-62.5927848815918
0,510958,44.9881477355957,72.53982543945312,27.799131393432617,-53.0091552734375
0,510959,73.27977752685547,1.2223671674728394,30.669584274291992,42.00945281982422
0,510962,-3.044341564178467,-21.46790885925293,17.5511474609375,28.037567138671875
0,510963,-39.061161041259766,1.4636839628219604,-59.39026641845703,-24.109882354736328
0,510966,21.310991287231445,19.076173782348633,-16.862443923950195,34.917808532714844
0,510967,-35.97111511230469,17.528409957885742,49.07485580444336,33.741458892822266
0,510970,-10.447026252746582,0.28132230043411255,-1.0043487548828125,-27.50303840637207
0,510971,92.78956604003906,-14.861994743347168,-31.179508209228516,8.394021034240723
0,510974,-99.75016784667969,-88.99639892578125,-19.387876510620117,-150.9441680908203
0,510975,-84.24491882324219,-38.44818115234375,-2.5564043521881104,-102.13914489746094
0,510978,115.14303588867188,116.0223388671875,1.999961495399475,232.75393676757812
0,510979,27.600990295410156,11.558283805847168,3.5055630207061768,48.57964324951172
0,510982,-0.17358651757240295,-51.48234939575195,38.586849212646484,8.249545097351074
0,510983,18.746679306030273,19.654678344726562,57.93777847290039,79.39014434814453
0,510986,-49.05289077758789,-0.9884569644927979,-39.54861068725586,-178.09278869628906
0,510987,-43.26874923706055,13.806771278381348,-68.699462890625,-184.9764862060547
0,510990,38.60734939575195,32.83647918701172,35.73909378051758,109.08910369873047
0,510991,75.16962432861328,13.78605842590332,47.450523376464844,257.680908203125
0,510994,-27.621553421020508,-46.488853454589844,-32.49905014038086,-40.98986053466797
0,510995,-52.947837829589844,-32.65827941894531,-20.69559669494629,-127.90950775146484
0,510998,12.68558120727539,42.68917465209961,42.64500427246094,17.177303314208984
0,510999,-3.417933225631714,-40.66925048828125,-35.44316864013672,-9.990649223327637
0,511002,35.08561325073242,-37.90981674194336,-19.771621704101562,6.215066909790039
0,511003,28.155986785888672,85.00824737548828,64.05664825439453,15.397626876831055
0,511006,-56.47593688964844,16.130069732666016,-29.41731071472168,-11.879971504211426
0,511007,-68.39440155029297,-64.29251861572266,-49.35470199584961,-19.775470733642578
0,511010,-5.4452314376831055,-29.932899475097656,-0.220234215259552,47.028160095214844
0,511011,75.99356079101562,15.102424621582031,15.639699935913086,13.962034225463867
0,511014,14.020977020263672,37.70438003540039,67.48265838623047,-122.11579132080078
0,511015,-38.62445068359375,27.766056060791016,32.6187629699707,24.266489028930664
0,511018,2.1708269119262695,-21.671401977539062,-105.10492706298828,96.00405883789062
0,511019,57.85091781616211,-10.669144630432129,-26.378507614135742,-36.03297805786133
0,511022,17.698013305664062,23.684480667114258,59.84709930419922,-25.965993881225586
0,511023,-69.9623031616211,-45.33933639526367,-44.8946647644043,10.640984535217285
0,511026,2.9501867294311523,0.017337918281555176,34.037288665771484,30.23495864868164
0,511027,17.028518676757812,54.28245544433594,46.66253662109375,6.466644763946533
0,511030,-31.322246551513672,-21.21439552307129,-56.894554138183594,-33.61941146850586
0,511031,43.66306686401367,-18.5672607421875,5.250799655914307,-19.75336265563965
0,511034,20.881797790527344,23.599971771240234,16.44007682800293,-2.7633800506591797
0,511035,-57.38804244995117,10.718482971191406,-30.070209503173828,24.427425384521484
0,511038,-10.145942687988281,-52.374366760253906,0.7854306101799011,-27.797536849975586
0,511039,11.362848281860352,-11.152231216430664,39.73667907714844,-56.18684768676758
0,511042,27.504549026489258,64.89103698730469,4.346534729003906,92.69312286376953
0,511043,19.37773323059082,-13.440105438232422,-31.158626556396484,54.33083724975586
0,511046,-42.43796920776367,-11.940849304199219,9.601655006408691,-65.02208709716797
0,511047,-15.888630867004395,30.879268646240234,16.981786727905273,-27.93865394592285
0,511050,55.78096008300781,13.258610725402832,-2.0027987957000732,65.76934814453125
0,511051,38.97152328491211,9.630242347717285,-6.527548789978027,61.31612777709961
0,511054,-49.36734390258789,-60.42073440551758,-31.08868980407715,-130.3492889404297
0,511055,-47.4265022277832,-41.43651580810547,-6.763556003570557,-53.79806900024414
0,511058,7.902071475982666,36.01605224609375,54.348567962646484,210.3082275390625
0,511059,31.718917846679688,28.60084342956543,8.515833854675293,-2.0347793102264404
0,511062,7.651898384094238,-17.393192291259766,-58.47343063354492,-229.84048461914062
0,511063,-38.13044738769531,-43.61970520019531,-21.65423583984375,56.700443267822266
0,511066,-17.619081497192383,5.066073894500732,28.2164249420166,85.96578216552734
0,511067,-10.628556251525879,16.185937881469727,26.30194091796875,-76.24260711669922
0,511070,24.487451553344727,16.859193801879883,-7.754987716674805,39.29322814941406
0,511071,92.68211364746094,41.26689147949219,3.4405109882354736,65.61360168457031
0,511074,-13.882336616516113,-15.616739273071289,20.734703063964844,-23.5480899810791
0,511075,-95.8633804321289,-41.75040054321289,-4.452250957489014,-37.174964904785156
0,511078,33.850608825683594,42.65243148803711,-6.4723734855651855,-10.937438011169434
0,511079,59.55610656738281,32.522830963134766,-4.2599687576293945,-16.3891658782959
0,511082,-33.30693054199219,-46.419410705566406,-7.301987171173096,-17.918113708496094
0,511083,-35.32270431518555,-13.721657752990723,5.810781002044678,108.17644500732422
0,511086,23.939237594604492,26.1973819732666,-1.3334684371948242,16.895116806030273
0,511087,0.954200804233551,-7.682952880859375,-2.0508995056152344,-197.6820068359375
0,511090,-0.7886618971824646,-26.244897842407227,5.014206886291504,71.3110122680664
0,511091,32.216922760009766,-17.147567749023438,-23.69737434387207,138.3155517578125
0,511094,-57.50059509277344,-12.98360538482666,-16.662311553955078,-108.4981918334961
0,511095,-49.66281509399414,33.8701171875,1.962372064590454,-61.214969635009766
0,511098,43.38173294067383,48.1209716796875,28.485671997070312,50.4854736328125
0,511099,49.88300704956055,3.755671977996826,45.85353469848633,77.04505920410156
0,511102,-21.929458618164062,-32.19926071166992,-22.83389663696289,-4.966536521911621
0,511103,-9.162473678588867,0.5305037498474121,-43.360774993896484,-38.80870819091797
0,511106,35.098793029785156,1.0079517364501953,-24.224491119384766,16.560327529907227
0,511107,-50.77930450439453,-37.3754997253418,-5.388665199279785,-17.495445251464844
0,511110,-19.88764190673828,43.570613861083984,73.72354125976562,-47.94709396362305
0,511111,66.41438293457031,10.379138946533203,45.79126739501953,39.52773666381836
0,511114,-7.925643444061279,-40.485267639160156,-74.54937744140625,53.655784606933594
0,511115,-44.38575744628906,12.04468822479248,11.882390022277832,-53.301334381103516
0,511118,12.07876205444336,-9.559199333190918,21.77651596069336,-48.72291946411133
0,511119,50.8188362121582,5.144684791564941,-68.02674102783203,44.46769332885742
0,511122,14.84146499633789,-3.8661632537841797,49.04739761352539,121.61793518066406
0,511123,-49.71825408935547,-16.757997512817383,9.20423698425293,-99.84278869628906
0,511126,-15.269448280334473,30.76114845275879,-30.746389389038086,-174.47177124023438
0,511127,-27.605867385864258,-12.473012924194336,9.188590049743652,179.60084533691406
0,511130,52.298919677734375,12.755288124084473,-24.345544815063477,77.49629211425781
0,511131,97.97077178955078,46.28894805908203,22.326173782348633,-138.08657836914062
0,511134,-120.1417236328125,-40.72953796386719,10.457964897155762,28.87032699584961
0,511135,-75.69878387451172,-20.784704208374023,-16.029706954956055,45.04588317871094
0,511138,74.76655578613281,5.699671268463135,-4.4949421882629395,-28.407773971557617
0,511139,17.154794692993164,-9.533670425415039,-8.223913192749023,-15.461976051330566
0,511142,18.920494079589844,21.34098243713379,25.515615463256836,-26.20814323425293
0,511143,-7.8726654052734375,10.940150260925293,41.332679748535156,34.35012435913086
0,511146,-29.64692497253418,-11.593827247619629,-16.45520782470703,8.377202987670898
0,511147,-13.163296699523926,5.428247451782227,-30.240907669067383,-31.30428123474121
0,511150,34.182716369628906,-13.285446166992188,5.146210670471191,65.02897644042969
0,511152,60.846622467041016,3.9888198375701904,12.855388641357422,3.143062114715576
0,511154,-91.5072021484375,-3.5380733013153076,-21.24580955505371,-52.09526824951172
0,511156,-49.68877410888672,-24.31623649597168,-21.06654930114746,21.429235458374023
0,511158,51.367977142333984,35.82180404663086,27.538881301879883,-26.6101131439209
0,511160,29.729310989379883,6.363935470581055,1.2679075002670288,-47.3486213684082
0,511165,73.11428833007812,-10.834121704101562,-4.796835422515869,68.32225799560547
0,511165,7.354070663452148,20.65074348449707,8.03015422821045,58.424598693847656
0,511166,-79.8897933959961,-17.086973190307617,-19.77906036376953,-55.91938781738281
0,511167,-73.3759536743164,-46.27067565917969,0.510966956615448,-28.69970703125
0,511170,16.13503646850586,13.062477111816406,13.008179664611816,56.79291534423828
0,511171,95.26931762695312,35.084877014160156,15.10595703125,1.5751702785491943
0,511174,1.4506579637527466,-3.4224963188171387,11.115578651428223,-38.489742279052734
0,511175,-74.83789825439453,-0.08141130208969116,-28.749088287353516,-0.15857906639575958
0,511178,-23.136844635009766,3.33622407913208,-9.787901878356934,-19.93941879272461
0,511179,28.84580421447754,9.993559837341309,22.86728858947754,-1.88700532913208
0,511182,26.14183807373047,-9.057570457458496,8.41231632232666,7.072582244873047
0,511183,-17.75409698486328,-27.989843368530273,1.5696396827697754,1.2035192251205444
0,511186,-16.82861328125,23.517431259155273,-5.257850170135498,3.1480090618133545
0,511187,-19.00269317626953,-0.939142107963562,-18.623559951782227,-29.144121170043945
0,511190,19.223587036132812,-16.642927169799805,-5.21235466003418,24.09710693359375
0,511191,112.97440338134766,52.98580551147461,14.982034683227539,37.0883674621582
0,511194,-16.291784286499023,-23.353580474853516,11.85865592956543,-30.001726150512695
0,511195,-80.85673522949219,-50.1764030456543,-8.731203079223633,13.002625465393066
0,511198,15.335907936096191,12.3932466506958,-22.006837844848633,7.3830342292785645
0,511199,-13.382789611816406,-8.819208145141602,-10.9733304977417,16.87906837463379
0,511202,14.176193237304688,32.2910270690918,7.685235500335693,12.319611549377441
0,511203,14.773600578308105,24.506589889526367,23.929311752319336,-62.36882019042969
0,511206,-28.902917861938477,-37.1130256652832,16.544023513793945,34.77226257324219
0,511207,-2.619882106781006,-35.348121643066406,-13.487374305725098,16.475629806518555
0,511210,17.420969009399414,16.701763153076172,-28.906444549560547,-58.29020309448242
0,511211,50.08432388305664,70.47149658203125,21.138660430908203,-8.797672271728516
0,511214,-46.06568908691406,-12.803426742553711,15.657332420349121,35.643985748291016
0,511215,-73.50382995605469,-56.60646438598633,-44.203365325927734,27.838207244873047
0,511218,51.296234130859375,-4.469238758087158,-30.21288299560547,-33.7883186340332
0,511219,30.28542137145996,13.486671447753906,65.98084259033203,11.560995101928711
0,511222,2.448146343231201,31.245059967041016,43.53921890258789,42.0758056640625
0,511223,-0.4121822416782379,-13.438968658447266,-99.38320922851562,-56.23579406738281
0,511226,-6.380297660827637,2.0529065132141113,36.71867370605469,-32.970218658447266
0,511227,-42.02961349487305,16.50579261779785,51.434688568115234,-6.343599796295166
0,511230,-7.903753280639648,-15.13381576538086,-83.93638610839844,37.74630355834961
0,511231,81.44430541992188,31.600963592529297,104.26702880859375,115.03878021240234
0,511234,-13.974806785583496,-30.760026931762695,24.32481575012207,-53.835994720458984
0,511235,-49.64411926269531,-32.139312744140625,-156.73501586914062,-77.8213882446289
0,511238,-24.156906127929688,29.699918746948242,-18.394758224487305,42.49749755859375
0,511239,-8.503576278686523,-10.952316284179688,-0.9048110246658325,-23.25286865234375
0,511242,53.781951904296875,21.720808029174805,135.4702606201172,-30.70948028564453
0,511243,32.88860321044922,24.046958923339844,209.95791625976562,24.045839309692383
0,511246,40.615684509277344,-38.40643310546875,-230.75218200683594,18.41653823852539
0,511247,5.42225456237793,-10.592775344848633,-296.19757080078125,32.47566604614258
0,511250,-103.60403442382812,11.670777320861816,261.5162353515625,-26.612323760986328
0,511251,-13.532991409301758,-28.610254287719727,210.24913024902344,-53.523433685302734
0,511254,43.82301712036133,18.65992546081543,-220.90347290039062,68.6559829711914
0,511255,53.707340240478516,33.91903305053711,-13.702495574951172,-17.17417335510254
0,511258,44.51249694824219,-18.776147842407227,118.75688171386719,-55.72064208984375
0,511259,-124.77416229248047,5.359842300415039,-100.5197525024414,83.76564025878906
0,511262,-64.95687103271484,-6.640095233917236,-62.87664794921875,-33.71562576293945
0,511263,42.52376174926758,-27.846878051757812,64.73860168457031,-23.64582061767578
0,511266,3.164100170135498,12.076772689819336,33.55622100830078,90.98759460449219
0,511267,1.7444978952407837,20.363067626953125,-34.3835563659668,-25.86886978149414
0,511270,16.043731689453125,19.050540924072266,1.9033037424087524,-75.43018341064453
0,511271,46.44327926635742,-4.401975631713867,6.516689300537109,-22.534990310668945
0,511274,-2.1002674102783203,-42.992244720458984,-10.278716087341309,57.965110778808594
0,511275,-46.17522048950195,-19.052528381347656,25.98673439025879,69.2230224609375
0,511278,-0.9886142611503601,27.72237777709961,-18.58072853088379,-48.502723693847656
0,511279,61.13232421875,51.468021392822266,1.8073996305465698,-40.59245300292969
0,511282,21.7926082611084,-7.7708048820495605,48.61660385131836,26.585895538330078
0,511283,-44.287960052490234,-13.822811126708984,-17.882993698120117,7.4922194480896
0,511286,-3.4789576530456543,-12.04504108428955,-35.19040298461914,-28.014719009399414
0,511287,-28.60587501525879,-41.96261978149414,10.10886001586914,-24.308109283447266
0,511290,17.016708374023438,24.892745971679688,17.133033752441406,34.749969482421875
0,511291,27.921390533447266,10.757041931152344,-15.61098575592041,1.7782511711120605
0,511294,-69.05648040771484,-1.2098559141159058,-17.176551818847656,-37.52849197387695
0,511295,45.37937545776367,45.900943756103516,63.15976333618164,90.53701782226562
0,511298,45.99507522583008,-34.735897064208984,15.110969543457031,16.217653274536133
0,511299,-42.84761428833008,-63.37713623046875,-71.53533935546875,-129.1834259033203
0,511302,-17.999929428100586,21.333450317382812,-7.42733907699585,64.1728744506836
0,511303,-18.794090270996094,37.549381256103516,15.214692115783691,45.36518096923828
0,511306,36.843631744384766,11.947075843811035,11.240257263183594,-79.27957153320312
0,511307,-11.727227210998535,-33.43273162841797,-16.576072692871094,12.731608390808105
0,511310,-23.590299606323242,-1.8958300352096558,-11.989167213439941,-11.233415603637695
0,511311,67.7752914428711,44.24029541015625,19.232423782348633,-13.395071983337402
0,511314,-14.215415954589844,-2.7564592361450195,-14.208210945129395,49.74102020263672
0,511315,-34.95615768432617,-9.017370223999023,7.093580722808838,20.32822036743164
0,511318,-12.733017921447754,-10.459470748901367,8.040715217590332,-39.2180290222168
0,511319,0.06558853387832642,-5.504001140594482,-2.8525097370147705,-24.236289978027344
0,511322,43.50368881225586,-2.7518579959869385,29.787805557250977,37.50776290893555
0,511323,-7.700480937957764,-18.788808822631836,-12.738567352294922,6.395516872406006
0,511326,4.728455543518066,21.135652542114258,-24.110441207885742,7.54838228225708
0,511327,-35.39937973022461,4.149548530578613,0.36836713552474976,20.272497177124023
0,511330,-40.46751022338867,-0.3879386782646179,-0.3538001775741577,-45.2039794921875
0,511331,89.60260772705078,39.483211517333984,20.605331420898438,-34.38790512084961
0,511334,5.27759313583374,-27.15862274169922,-0.048657890409231186,58.25567626953125
0,511335,-71.69647216796875,-48.551998138427734,-13.337671279907227,-3.5958199501037598
0,511338,19.086950302124023,33.80496597290039,10.990078926086426,-58.29506301879883
0,511339,20.298585891723633,18.431739807128906,-8.71683406829834,47.10929489135742
0,511342,3.4817018508911133,-21.073558807373047,-26.753236770629883,10.219917297363281
0,511343,3.5366008281707764,-4.786452293395996,20.07360076904297,3.9241793155670166
0,511346,-3.2792088985443115,0.3187423646450043,28.317447662353516,-3.8755502700805664
0,511347,-22.9780216217041,6.098844528198242,-15.816030502319336,-43.04679489135742
0,511350,10.957679748535156,10.224289894104004,-13.011092185974121,31.046253204345703
0,511351,88.70308685302734,33.231658935546875,26.26218605041504,26.329059600830078
0,511354,-71.2528305053711,-30.322711944580078,-9.03614616394043,12.823813438415527
0,511355,-110.42597961425781,-64.6971206665039,-27.009801864624023,-6.494937419891357
0,511358,73.6772689819336,32.66733932495117,35.9328727722168,-45.51689910888672
0,511359,57.6397819519043,50.501094818115234,14.199934005737305,-0.33193227648735046
0,511362,-16.24749183654785,-11.240813255310059,-25.43124771118164,5.3135762214660645
0,511363,13.905540466308594,-17.393022537231445,-3.285851001739502,6.122623443603516
0,511366,16.544069290161133,-4.570424556732178,-12.520716667175293,32.02994918823242
0,511367,-74.46136474609375,-31.090261459350586,-8.196513175964355,-43.21455001831055
0,511370,-19.163496017456055,5.049179553985596,22.39683723449707,3.6930453777313232
0,511371,103.9363784790039,33.67746353149414,13.866347312927246,67.78508758544922
0,511374,-33.98225402832031,-6.319005012512207,-14.634042739868164,-51.929847717285156
0,511375,-81.53459167480469,-10.483113288879395,-39.58705139160156,-39.9084587097168
0,511378,38.300697326660156,6.5494384765625,12.984065055847168,25.631202697753906
0,511379,14.783284187316895,0.7024535536766052,31.59380340576172,-24.869077682495117
0,511382,21.208568572998047,-6.018546104431152,9.369019508361816,-0.5570933818817139
0,511383,27.599149703979492,32.7766227722168,27.59723663330078,71.09105682373047
0,511386,-45.316837310791016,15.22944164276123,-41.942169189453125,4.497430801391602
0,511387,-59.75770568847656,-47.164405822753906,-55.84538650512695,-48.40668869018555
0,511390,47.3343391418457,8.564305305480957,26.427860260009766,6.882922649383545
0,511391,85.64464569091797,30.186573028564453,53.24323272705078,18.672969818115234
0,511394,-63.7246208190918,-31.594030380249023,-8.155843734741211,-17.646644592285156
0,511395,-53.59684753417969,-10.564982414245605,-39.3751220703125,-17.38257598876953
0,511398,28.43901824951172,43.98172378540039,27.117401123046875,33.41551971435547
0,511399,25.725431442260742,15.333588600158691,-3.356684446334839,-21.915876388549805
0,511402,29.230812072753906,-38.69331359863281,-15.885543823242188,-23.74959373474121
0,511403,-32.15324783325195,-27.586767196655273,21.224912643432617,61.71128845214844
0,511406,-22.384443283081055,-8.97773551940918,-15.045073509216309,-25.6480770111084
1,511410,65.39480590820312,10.374016761779785,3.5014383792877197,-38.80708694458008
1,511410,5.116629123687744,20.823869705200195,23.73639488220215,38.546905517578125
1,511412,-95.26309967041016,2.234785795211792,-7.350827693939209,13.196640968322754
1,511413,31.161453247070312,7.886532306671143,-15.640523910522461,2.2224533557891846
1,511416,18.865047454833984,-2.905940294265747,-2.00093412399292,-23.797834396362305
1,511417,-75.39057159423828,-21.12158966064453,-2.544553756713867,-9.043816566467285
1,511420,49.686920166015625,7.669863700866699,-2.385467290878296,7.366947650909424
1,511421,37.40581512451172,16.19504165649414,-6.3221821784973145,-31.58786392211914
1,511424,-13.43766975402832,4.344242572784424,11.162132263183594,66.89166259765625
1,511425,-6.6302385330200195,-0.7945314645767212,35.08052444458008,21.6981201171875
1,511428,-61.17622756958008,-34.865421295166016,-14.762255668640137,-111.9758529663086
1,511429,-17.92683982849121,-9.344684600830078,-31.73075294494629,8.102899551391602
1,511432,120.75904083251953,43.2755126953125,25.871807098388672,52.56825256347656
1,511433,65.39584350585938,-7.020038604736328,2.6116628646850586,29.67812728881836
1,511436,-107.60234832763672,-20.213319778442383,-19.74678611755371,-7.820199012756348
1,511437,-49.76850509643555,-0.14473479986190796,5.286841869354248,-72.37281036376953
1,511440,71.92606353759766,-17.690065383911133,-24.679061889648438,32.99314498901367
1,511441,-0.7437669038772583,30.021438598632812,11.62112808227539,44.98949432373047
1,511444,-41.5134391784668,19.48243522644043,27.625986099243164,-56.40688705444336
1,511445,29.411956787109375,-12.575952529907227,-14.58497142791748,-34.63306427001953
1,511448,-28.817203521728516,-13.448861122131348,-2.1478936672210693,108.89344787597656
1,511449,-62.750919342041016,-39.25124740600586,-13.239866256713867,82.77044677734375
1,511452,110.41780090332031,28.739683151245117,8.038174629211426,-111.57481384277344
1,511453,74.6625747680664,45.85460662841797,24.778247833251953,-88.58930969238281
1,511456,-138.11988830566406,-18.674915313720703,-22.0129337310791,27.268310546875
1,511457,-10.49946403503418,0.6705069541931152,-5.2924299240112305,38.959720611572266
1,511460,78.53169250488281,0.7871928215026855,34.9656982421875,39.86382293701172
1,511461,-31.729658126831055,-4.952971935272217,21.267032623291016,3.151717185974121
1,511464,3.519110679626465,27.543474197387695,-30.82691192626953,-49.57145309448242
1,511465,9.198687553405762,-6.639437198638916,-28.53809356689453,-0.43084269762039185
1,511468,-29.2116756439209,-29.593273162841797,-4.736006736755371,-3.5375547409057617
1,511469,-16.307037353515625,-6.090663433074951,1.3577107191085815,-26.671279907226562
1,511472,46.03535079956055,21.592906951904297,36.02724075317383,38.30569076538086
1,511473,39.36800765991211,14.831914901733398,8.197802543640137,22.373903274536133
1,511476,-81.73003387451172,-35.031959533691406,-29.9716854095459,-29.483354568481445
1,511477,-18.869827270507812,-26.577796936035156,-1.0541942119598389,6.694780349731445
1,511480,59.64558029174805,30.204565048217773,1.4466533660888672,30.4301815032959
1,511481,-13.975175857543945,-13.484232902526855,-11.64436149597168,-4.2686591148376465
1,511484,19.321063995361328,-8.371106147766113,33.476985931396484,-16.735368728637695
1,511485,32.053951263427734,56.604835510253906,14.471674919128418,1.4007664918899536
1,511488,-70.83487701416016,-18.16685676574707,-45.39524459838867,-11.014646530151367
1,511489,-31.423856735229492,-16.071870803833008,1.974137783050537,-13.05447006225586
1,511492,81.1637191772461,29.676877975463867,15.397185325622559,1.7692235708236694
1,511493,38.56694412231445,-33.348026275634766,-32.12876510620117,-3.0996243953704834
1,511496,-115.74988555908203,-41.047183990478516,1.1876384019851685,27.866622924804688
1,511497,-48.41416549682617,40.728919982910156,25.749244689941406,5.863182544708252
1,511500,122.58074188232422,32.69417953491211,7.7455153465271,-26.787015914916992
1,511501,22.730703353881836,-22.26602554321289,7.962264060974121,11.317672729492188
1,511504,-35.4818115234375,11.109028816223145,-5.332398414611816,19.517316818237305
1,511505,-11.180899620056152,7.21591329574585,-12.10332202911377,-18.001495361328125
1,511508,-37.830318450927734,-5.731386661529541,-8.730311393737793,-35.48197555541992
1,511509,-7.331954479217529,7.480732440948486,4.138330459594727,21.96483612060547
1,511512,55.29534912109375,-23.479751586914062,19.69420623779297,34.99090576171875
1,511513,45.915069580078125,-24.71794319152832,-2.862196683883667,-28.680747985839844
1,511516,-58.90209197998047,2.182833194732666,-7.241480827331543,-23.28806495666504
1,511517,-26.115829467773438,29.048227310180664,22.730741500854492,33.465938568115234
1,511520,62.84339141845703,5.184344291687012,-4.853753089904785,42.861568450927734
1,511521,-8.795682907104492,-39.3994255065918,-40.11985778808594,-25.39447021484375
1,511524,-23.779735565185547,-3.437901258468628,20.770221710205078,-44.33200454711914
1,511525,12.162958145141602,48.86585998535156,7.413970470428467,-8.338732719421387
1,511528,-51.5623664855957,15.840832710266113,-26.171937942504883,4.342419147491455
1,511529,-36.9344482421875,-46.1607780456543,9.302980422973633,29.79723358154297
1,511532,76.18607330322266,8.435905456542969,-1.8099571466445923,29.325450897216797
1,511533,58.987422943115234,14.359378814697266,-0.9871980547904968,-5.429904937744141
1,511536,-75.59235382080078,-5.192220687866211,7.106510162353516,-59.89723205566406
1,511537,-44.008914947509766,18.539051055908203,0.6156607270240784,-27.9208984375
1,511540,77.9326400756836,-9.915157318115234,12.090340614318848,86.46704864501953
1,511541,25.20629119873047,-8.513818740844727,-1.6886014938354492,57.021183013916016
1,511544,-45.67555236816406,-27.86429786682129,-14.92017936706543,-100.97425842285156
1,511545,-13.3477783203125,1.3439069986343384,13.227167129516602,-51.887935638427734
1,511548,-2.4973249435424805,43.25305938720703,8.617717742919922,120.74695587158203
1,511549,3.9079909324645996,-28.509315490722656,-7.898889064788818,12.806057929992676
1,511552,40.617027282714844,-22.500900268554688,10.066596984863281,-104.10453796386719
1,511553,32.23591232299805,53.09846878051758,17.409912109375,7.562816143035889
1,511556,-67.76385498046875,13.000715255737305,-23.531269073486328,40.80289840698242
1,511811,-60.21702575683594,-44.44242858886719,-19.14187240600586,14.210306167602539
1,511812,90.10009002685547,-3.457125663757324,9.407390594482422,13.03242301940918
1,511815,111.32123565673828,42.119529724121094,7.060422897338867,-11.629216194152832
1,511816,28.288639068603516,-5.8340229988098145,-5.621370792388916,-14.922164916992188
1,511819,-53.249542236328125,-3.098874568939209,7.384982585906982,-31.851926803588867
1,511820,-189.13829040527344,-10.084484100341797,-20.364469528198242,-6.702524662017822
1,513317,-160.14259338378906,-67.07899475097656,-48.01823043823242,6.97492790222168
1,513318,50.8698844909668,5.1420063972473145,27.669767379760742,-1.7996647357940674
1,513319,94.52115631103516,63.152156829833984,31.19504165649414,30.69474983215332
1,513322,60.90427017211914,10.49614429473877,11.714250564575195,2.425522804260254
1,513323,60.35578536987305,-29.76177215576172,-0.3625430166721344,-2.2010445594787598
1,513326,28.298641204833984,-0.6545968651771545,2.870499610900879,14.300318717956543
1,513327,17.71345329284668,12.97213363647461,20.84486961364746,-15.449119567871094
1,513330,47.96037673950195,-11.142533302307129,-25.22208023071289,-21.159770965576172
1,513331,3.133849859237671,-24.09303855895996,-23.62382698059082,19.070955276489258
1,513334,-143.58297729492188,11.992411613464355,-1.0932080745697021,-8.11418342590332
1,513335,-101.32230377197266,24.22855567932129,4.925144672393799,-32.43893814086914
1,513338,51.164207458496094,-14.688206672668457,23.284076690673828,26.892004013061523
1,513339,21.171371459960938,8.110979080200195,-16.64004135131836,14.117011070251465
1,513342,31.844322204589844,29.223947525024414,-29.4635009765625,16.58003807067871
1,513343,84.30087280273438,-12.177860260009766,44.464778900146484,10.18127727508545
1,513346,-35.452796936035156,-8.459572792053223,19.694692611694336,-38.62417221069336
1,513347,-40.973121643066406,17.89043617248535,-50.83287811279297,-18.94452667236328
1,513350,104.18135070800781,-12.067972183227539,8.220806121826172,43.19541549682617
1,513351,21.453065872192383,-28.34449005126953,40.285465240478516,29.553499221801758
1,513354,-165.88552856445312,-14.771499633789062,-17.130664825439453,-54.58840560913086
1,513355,-98.08979797363281,-5.149957656860352,-34.40707015991211,-33.87940216064453
1,513358,67.5210189819336,23.491863250732422,16.282699584960938,44.813289642333984
1,513359,63.262420654296875,35.3481330871582,46.11528778076172,12.667813301086426
1,513362,20.893762588500977,-3.0172085762023926,-18.782438278198242,-45.98583221435547
1,513363,39.865116119384766,-18.673206329345703,-28.5042724609375,23.474973678588867
1,513366,-14.727215766906738,-8.783706665039062,4.497273921966553,33.86751174926758
1,513367,-52.639339447021484,5.894158840179443,-28.108646392822266,-19.51290512084961
1,513370,77.65196990966797,8.819765090942383,9.775033950805664,22.238384246826172
1,513371,33.04172134399414,-13.519615173339844,45.52616500854492,10.980637550354004
1,513374,-138.72512817382812,-34.47719955444336,-19.525596618652344,-79.51933288574219
1,513375,-18.185401916503906,-5.013525009155273,-18.810205459594727,-43.506370544433594
1,513378,70.61537170410156,45.94962692260742,8.822978973388672,78.81169891357422
1,513379,-16.22117805480957,6.0477728843688965,-6.763604640960693,33.34349822998047
1,513382,-10.82752799987793,2.26216983795166,11.514668464660645,-8.383854866027832
1,513383,43.80613708496094,-12.483365058898926,5.116635322570801,-15.784754753112793
1,513386,-1.65024733543396,-53.55337142944336,-17.24199676513672,-63.05379104614258
1,513387,-53.307613372802734,43.11862564086914,8.571441650390625,36.6772575378418
1,513390,73.7110366821289,63.96826171875,11.657027244567871,59.31483840942383
1,513391,77.33130645751953,-25.264127731323242,-3.090763568878174,-33.286041259765625
1,513394,-131.0580596923828,-22.96405792236328,13.768709182739258,-41.30134201049805
1,513395,-84.60038757324219,16.86213493347168,-7.56838321685791,9.231488227844238
1,513398,78.58721923828125,6.4495697021484375,-17.010059356689453,116.67823791503906
1,513399,41.78348159790039,-14.152265548706055,7.167482852935791,47.54378128051758
1,513402,1.1305761337280273,-16.75324058532715,-5.768667221069336,-166.85423278808594
1,513403,-4.708810806274414,-16.381118774414062,10.325929641723633,-98.39266204833984
1,513406,-19.366342544555664,13.76326847076416,22.78304100036621,95.53652954101562
1,513407,-17.793745040893555,38.82710266113281,-20.495161056518555,65.46502685546875
1,513410,24.494295120239258,-11.376733779907227,-16.860502243041992,-18.260093688964844
1,513411,66.35397338867188,-24.200624465942383,8.894949913024902,2.178161144256592
1,513414,-64.08204650878906,-11.936226844787598,-11.658577919006348,-16.44101905822754
1,513415,-87.13629913330078,-19.829397201538086,1.0100051164627075,-3.485628843307495
1,513418,75.20225524902344,35.961997985839844,20.72553253173828,20.692157745361328
1,513419,16.154268264770508,21.455015182495117,-5.6083083152771,-36.944419860839844
1,513422,-24.84796142578125,-52.94533157348633,-9.691378593444824,8.95838737487793
1,513423,56.15106201171875,27.676956176757812,28.749269485473633,55.339149475097656
1,513426,-36.83247756958008,46.73157501220703,13.047307968139648,-43.48392868041992
1,513427,-50.49285888671875,-44.59285354614258,-34.25726318359375,-33.932029724121094
1,513430,64.47188568115234,-0.3653751611709595,-20.689693450927734,53.5404052734375
1,513431,26.05318832397461,22.679014205932617,11.204157829284668,-1.0768671035766602
1,513434,-71.76988220214844,-11.414310455322266,22.090810775756836,-23.15375328063965
1,513435,-11.730108261108398,-15.436196327209473,-16.24608612060547,-13.384912490844727
1,513438,79.34204864501953,-0.7483792901039124,-17.568740844726562,7.643176555633545
1,513439,-2.898336887359619,-5.945947170257568,18.271947860717773,51.976585388183594
1,513442,-45.45421600341797,10.242597579956055,-8.867012977600098,-42.6014289855957
1,513443,30.311180114746094,37.736900329589844,4.363803863525391,-31.780046463012695
1,513446,-38.80631637573242,-23.525447845458984,35.02423858642578,67.77232360839844
1,513447,-54.37253952026367,-53.005043029785156,-14.362131118774414,-1.9141850471496582
1,513450,95.04874420166016,-1.218758463859558,-34.615196228027344,-58.26417922973633
1,513452,22.556276321411133,41.758853912353516,22.01125144958496,-44.59756851196289
1,513454,-82.0252456665039,8.267766952514648,16.769168853759766,44.03065490722656
1,513456,5.915465831756592,-14.762475967407227,-33.80229949951172,61.747257232666016
1,513458,25.030405044555664,-19.482572555541992,-5.334482669830322,-58.4029655456543
1,513460,10.66757869720459,10.441022872924805,29.664297103881836,-15.39205551147461
1,513462,19.335369110107422,39.415122985839844,16.411977767944336,79.30592346191406
1,513464,7.900454044342041,-16.051748275756836,-30.716825485229492,-1.561960220336914
1,513465,-20.159034729003906,-23.372854232788086,-30.989919662475586,-73.77253723144531
1,513468,-36.77898406982422,10.936772346496582,41.232845306396484,13.850820541381836
1,513469,36.79600524902344,38.69737243652344,25.5819091796875,59.837528228759766
1,513472,30.97211456298828,-7.751281261444092,-36.556217193603516,-1.712404727935791
1,513473,-38.45050811767578,-29.325786590576172,-5.88656759262085,-37.987403869628906
1,513476,-34.99286651611328,17.655319213867188,29.833232879638672,-16.037860870361328
1,513477,-0.136130228638649,-2.1976823806762695,8.24427604675293,24.207698822021484
1,513480,37.00799560546875,-12.441139221191406,-0.23050013184547424,5.424375534057617
1,513481,-11.339532852172852,-13.322253227233887,-16.4113826751709,1.123993992805481
1,513484,-17.10906410217285,30.405677795410156,-26.890541076660156,-23.40427017211914
1,513485,4.073808670043945,21.566171646118164,7.089292526245117,-49.343021392822266
1,513488,-1.106911540031433,-58.27975845336914,40.83415222167969,27.637483596801758
1,513489,49.81144714355469,-2.2587907314300537,-8.170866012573242,42.01377868652344
1,513493,-10.438249588012695,7.615644931793213,-77.02587127685547,-17.74370574951172
1,513493,-38.59758377075195,-7.603260517120361,-19.023319244384766,-6.637514591217041
1,513496,20.925127029418945,48.12567138671875,57.26996612548828,23.519685745239258
1,513497,-15.553140640258789,-29.631277084350586,29.10782814025879,-20.611127853393555
1,513500,2.031517267227173,-33.83720779418945,-12.90912914276123,8.975373268127441
1,513501,52.25372314453125,52.559364318847656,7.9288105964660645,30.79414939880371
1,513504,-12.98253345489502,2.35054612159729,15.335251808166504,-37.81300735473633
1,513505,-41.535404205322266,-24.100461959838867,0.12238118052482605,4.912891864776611
1,513508,12.259734153747559,11.932575225830078,9.957314491271973,36.687217712402344
1,513509,23.00535774230957,-4.648700714111328,11.933381080627441,-16.4782772064209
1,513512,-6.850409984588623,-2.9334559440612793,-27.3558406829834,-29.449729919433594
1,513513,-46.75971221923828,10.552699089050293,-36.30137252807617,-10.925026893615723
1,513516,-5.726194381713867,-6.760975360870361,23.903564453125,5.66116189956665
1,513517,31.56747055053711,12.807624816894531,45.64432907104492,0.3641926050186157
1,513520,0.2727202773094177,-1.001866102218628,-21.08631706237793,2.224029541015625
1,513521,1.604889988899231,-13.384590148925781,-67.20130920410156,43.90108871459961
1,513524,6.269350528717041,0.95896977186203,-37.48087692260742,-7.452711582183838
1,513525,1.0535136461257935,-17.594297409057617,-7.089404582977295,-70.00741577148438
1,513528,18.636571884155273,19.005836486816406,49.98347091674805,51.82604217529297
1,513529,-5.686257839202881,0.9725938439369202,47.964996337890625,80.37833404541016
1,513532,-19.249597549438477,-58.77054977416992,-16.756990432739258,-71.63191986083984
1,513533,23.80780792236328,9.967402458190918,14.847813606262207,-68.20124053955078
1,513536,-24.913774490356445,76.86993408203125,10.641011238098145,33.22724533081055
1,513537,-6.663309574127197,19.546144485473633,-13.443680763244629,30.70756721496582
1,513540,12.736458778381348,-61.26362991333008,1.180108666419983,7.559227466583252
1,513541,-36.992374420166016,-1.5000970363616943,-39.32906723022461,-3.3005590438842773
1,513544,42.83481216430664,23.961223602294922,22.346881866455078,2.989058256149292
1,513545,22.209749221801758,-25.73850440979004,95.13700103759766,11.901994705200195
1,513548,-40.70660400390625,18.358217239379883,-24.592653274536133,-49.678306579589844
1,513549,58.44297790527344,39.831298828125,-59.90060806274414,-41.798973083496094
1,513552,-14.552018165588379,-26.562885284423828,-8.450600624084473,54.0013427734375
1,513553,-107.06722259521484,-41.200050354003906,-19.502107620239258,53.2349853515625
1,513556,-12.697380065917969,9.279261589050293,-33.905643463134766,-60.65086364746094
1,513557,35.48188781738281,0.18580327928066254,-32.34814453125,-19.10772705078125
1,513560,65.73001098632812,-10.245462417602539,32.78200149536133,82.67322540283203
1,513561,17.19168472290039,17.300172805786133,58.01541519165039,-9.975398063659668
1,513564,-24.594322204589844,8.759825706481934,34.78318405151367,-77.27334594726562
1,513565,-39.736881256103516,-3.058150053024292,-19.8758602142334,-57.58298873901367
1,513568,15.678364753723145,12.99857234954834,-14.067562103271484,66.63563537597656
1,513569,112.34239196777344,9.377300262451172,24.930561065673828,194.0293731689453
1,513572,-50.71028518676758,-6.8171610832214355,-15.402398109436035,-23.000038146972656
1,513573,-109.45259857177734,-5.176137447357178,3.3707664012908936,-223.65133666992188
1,513576,47.56325912475586,12.988079071044922,23.538612365722656,3.2860724925994873
1,513577,56.73440933227539,-3.0988690853118896,-9.918232917785645,111.18130493164062
1,513580,-6.895705223083496,-18.237407684326172,-14.424797058105469,-25.036136627197266
1,513581,-39.4965934753418,-2.643641710281372,-26.69298553466797,-41.29123306274414
1,513584,-4.70841121673584,2.6763195991516113,-26.954023361206055,27.442569732666016
1,513585,2.7640466690063477,-10.014320373535156,6.8491973876953125,-2.9295239448547363
1,513588,-29.771488189697266,-11.929737091064453,16.732589721679688,-7.16105318069458
1,513589,55.067569732666016,12.45857048034668,14.030874252319336,46.6718635559082
1,513592,-3.733994483947754,-3.4563210010528564,-8.289278030395508,-38.64594268798828
1,513593,-69.71598052978516,-13.589248657226562,-0.9407035112380981,-42.74870681762695
1,513596,57.312255859375,39.699764251708984,18.620210647583008,45.23097229003906
1,513597,41.035438537597656,21.501676559448242,-4.630117893218994,31.011449813842773
1,513600,-21.8029842376709,-37.77412796020508,3.2358570098876953,-0.7399130463600159
1,513601,-6.153028964996338,-11.365784645080566,20.95888328552246,7.393211364746094
1,513604,-9.736261367797852,8.58498477935791,20.55971336364746,-18.8409366607666
1,513605,-55.063148498535156,0.12506072223186493,7.639410972595215,-40.409671783447266
1,513608,4.358644485473633,14.864733695983887,-44.22357177734375,31.851682662963867
1,513609,99.02454376220703,10.366518020629883,-57.23841857910156,54.66263961791992
1,513612,-51.41411590576172,-30.261432647705078,-58.550926208496094,-57.479122161865234
1,513613,-110.5562744140625,-19.44365119934082,-24.397069931030273,-39.995201110839844
1,513616,62.852298736572266,11.945964813232422,82.42508697509766,88.31356048583984
1,513617,83.93463897705078,15.00247573852539,95.00167846679688,15.889120101928711
1,513620,-2.9461262226104736,40.91237258911133,46.536033630371094,-99.66203308105469
1,513621,-31.335914611816406,-12.34606647491455,-10.08240795135498,-40.26783752441406
1,513624,-30.86589813232422,-71.61556243896484,-44.406211853027344,29.006511688232422
1,513625,10.426340103149414,18.487586975097656,15.553031921386719,46.0872802734375
1,513628,81.24881744384766,46.69427490234375,-17.935302734375,65.2728500366211
1,513629,37.608131408691406,-17.436594009399414,-119.04037475585938,-33.588775634765625
1,513632,-107.60021209716797,-18.539491653442383,-6.104459762573242,-72.98725891113281
1,513633,-79.05338287353516,12.740248680114746,87.1048583984375,11.244022369384766
1,513636,76.49757385253906,41.4456672668457,-48.32807922363281,45.89117431640625
1,513637,76.99995422363281,-24.09839630126953,-39.24216079711914,66.47481536865234
1,513640,-38.17182540893555,-10.748613357543945,118.0899658203125,-51.92532730102539
1,513641,-61.508018493652344,39.4696159362793,61.86200714111328,-71.16730499267578
1,513644,-7.3727335929870605,-57.90658950805664,-77.5230941772461,48.28380584716797
1,513645,4.990355014801025,-12.357804298400879,-50.654788970947266,6.215458393096924
1,513648,34.99964141845703,64.00690460205078,56.925357818603516,-9.660541534423828
1,513649,52.7353401184082,2.350835084915161,59.36965560913086,10.042522430419922
1,513652,-18.573938369750977,-21.752090454101562,35.15127182006836,-28.26761817932129
1,513653,-40.41559982299805,-23.950729370117188,7.725877285003662,-2.305860757827759
1,513656,-1.8698045015335083,-29.143733978271484,-110.27934265136719,1.8576256036758423
1,513658,17.626468658447266,13.312804222106934,-109.39372253417969,-24.90772819519043
1,513660,-7.177160263061523,27.77198600769043,-48.32061004638672,12.514627456665039
1,513662,-20.04436492919922,3.221893548965454,-46.264190673828125,29.700706481933594
1,513664,-5.999998092651367,-15.941518783569336,82.07427978515625,38.999725341796875
1,513666,-32.92471694946289,-19.776317596435547,132.43304443359375,32.96672439575195
1,513668,1.8283283710479736,4.7979416847229,36.08277893066406,-20.60223388671875
1,513670,93.28594207763672,-1.7587801218032837,18.87755012512207,-66.92601776123047
1,513671,32.67805862426758,15.690776824951172,-3.951986074447632,-23.134510040283203
1,513674,-69.94412994384766,23.80607795715332,-31.20833396911621,23.427291870117188
1,513675,1.01057767868042,-9.034223556518555,-35.1789665222168,15.504287719726562
1,513678,-14.234679222106934,-41.0,-24.366880416870117,-10.321937561035156
1,513679,-57.5601692199707,19.56322479248047,11.941325187683105,4.8242645263671875
1,513684,121.87809753417969,73.7596664428711,121.9637451171875,27.19369888305664
1,513684,64.38143157958984,-27.38263702392578,70.6698989868164,-38.89970779418945
1,513686,-153.4838104248047,-11.595227241516113,-182.76658630371094,-26.41731071472168
1,513687,-79.50626373291016,-5.960333824157715,-186.4499053955078,8.824932098388672
1,513690,54.42063522338867,-56.138038635253906,-89.24861907958984,-34.14789962768555
1,513691,113.45350646972656,35.38643264770508,9.491579055786133,74.30503845214844
1,513694,-24.988147735595703,32.94995880126953,170.27432250976562,115.53839111328125
1,513695,-86.92936706542969,-51.668277740478516,174.7554931640625,-48.93086624145508
1,513698,88.68902587890625,20.174732208251953,104.36381530761719,-73.31497192382812
1,513699,-3.0589916706085205,45.927330017089844,-43.88105010986328,-70.8935546875
1,513702,-34.82051086425781,-7.917609691619873,-110.18254852294922,2.8395581245422363
1,513703,46.69132614135742,-35.53767013549805,-7.044663429260254,91.30378723144531
1,513706,-66.01941680908203,-72.20849609375,-24.18124771118164,4.706894874572754
1,513707,-56.9925537109375,47.56492233276367,11.151565551757812,-43.794769287109375
1,513710,114.9210205078125,104.101318359375,92.21228790283203,21.41680335998535
1,513711,73.74221801757812,-42.59554672241211,4.211156845092773,20.532367706298828
1,513714,-115.85159301757812,-50.09823226928711,-29.749269485473633,-7.253754615783691
1,513715,-19.861618041992188,37.46375274658203,-11.15757942199707,24.047786712646484
1,513718,21.366840362548828,-34.21694564819336,-167.411376953125,-75.1642837524414
1,513719,-41.140865325927734,-47.51195526123047,-157.21983337402344,-66.48609161376953
1,513722,46.65966033935547,39.845211029052734,89.79878997802734,127.17678833007812
1,513723,11.482109069824219,36.659481048583984,153.60650634765625,87.06278228759766
1,513726,-36.24588394165039,10.0062255859375,18.980045318603516,-110.37952423095703
1,513727,-13.482257843017578,-14.791485786437988,-87.30001068115234,-61.504146575927734
1,513730,54.30611038208008,-6.1895222663879395,4.450614929199219,65.19242095947266
1,513731,53.2916374206543,-11.341464042663574,71.97683715820312,12.808670997619629
1,513734,-66.6158218383789,-7.548443794250488,92.86141967773438,-45.60693359375
1,513735,-14.869908332824707,26.75652503967285,56.667808532714844,0.00692609092220664
1,513738,39.85752487182617,-39.65672302246094,-54.90550994873047,12.916210174560547
1,513739,-16.218114852905273,-20.374221801757812,-11.997969627380371,-28.467451095581055
1,513742,17.66409683227539,64.5545425415039,-36.40214157104492,16.242313385009766
1,513743,36.30537414550781,41.544273376464844,-46.57714080810547,58.72566604614258
1,513746,-47.49142837524414,-10.589579582214355,-32.4058837890625,-56.05595779418945
1,513747,-84.4378433227539,-74.64473724365234,-100.24502563476562,-30.142024993896484
1,513750,41.240604400634766,3.9100003242492676,70.44932556152344,101.88017272949219
1,513751,97.1882095336914,72.61404418945312,133.7731475830078,3.9099581241607666
1,513754,-90.8522720336914,-37.17377853393555,-33.502113342285156,-73.09076690673828
1,513755,-73.5267105102539,-24.993581771850586,9.535642623901367,-22.738466262817383
1,513758,120.09627532958984,17.820281982421875,-10.345624923706055,74.22943878173828
1,513759,21.85993766784668,-19.458633422851562,-98.8484115600586,51.750770568847656
1,513762,-79.5467529296875,-26.457172393798828,-46.42513656616211,-125.39991760253906
1,513763,7.048900604248047,-2.2096188068389893,-19.4279727935791,-30.208709716796875
1,513766,31.521329879760742,43.9602165222168,152.85308837890625,112.38079833984375
1,513767,-13.912818908691406,17.932283401489258,152.55255126953125,-15.413200378417969
1,513770,34.26753616333008,-7.743716239929199,-127.71436309814453,-35.30537414550781
1,513771,65.34705352783203,-7.318360328674316,-95.04505157470703,12.110857009887695
1,513774,-125.1954345703125,-13.241989135742188,73.62458801269531,-0.8686033487319946
1,513775,-64.92384338378906,28.482275009155273,36.64742660522461,28.34541893005371
1,513778,108.259033203125,3.5797276496887207,-83.84873962402344,-3.5795726776123047
1,513779,-25.65572738647461,-42.90999984741211,-35.68477249145508,-38.49079895019531
1,513782,58.32242965698242,46.61181640625,100.33885192871094,35.46499252319336
1,513783,72.73316955566406,53.842567443847656,14.747920036315918,-10.292620658874512
1,513786,-148.22386169433594,-122.80858612060547,-97.02550506591797,-45.00215148925781
1,513787,-64.57754516601562,-35.57278060913086,19.962703704833984,41.04081726074219
1,513790,125.67216491699219,101.44570922851562,52.86894226074219,-29.350650787353516
1,513791,50.42280960083008,-45.829837799072266,-103.0240249633789,-50.90577697753906
1,513794,-92.16973876953125,4.199397087097168,-7.594178199768066,35.099891662597656
1,513795,-26.22939682006836,76.49099731445312,105.99249267578125,17.923368453979492
1,513798,64.38298034667969,-40.9229621887207,-30.13945770263672,4.839667320251465
1,513799,10.108940124511719,-36.664947509765625,-15.861735343933105,51.78630447387695
1,513802,-46.57166290283203,34.12425231933594,48.1571159362793,20.725093841552734
1,513803,-14.902729988098145,6.21559476852417,-24.38421058654785,-52.551025390625
1,513806,-10.140439987182617,-32.406551361083984,-3.2266316413879395,-23.458341598510742
1,513807,-25.77446174621582,-0.8833832144737244,19.42779541015625,4.817456245422363
1,513810,35.88949203491211,13.615375518798828,-10.651412010192871,-9.763284683227539
1,513811,104.3097152709961,18.838993072509766,34.798980712890625,50.57933044433594
1,513814,-16.290855407714844,-8.553693771362305,3.994861364364624,41.66609191894531
1,513815,-95.60368347167969,-14.900035858154297,-38.01224899291992,-43.09247970581055
1,513818,42.366310119628906,-17.343303680419922,-14.247028350830078,-84.76838684082031
1,513819,36.28211212158203,-28.43158721923828,-27.044818878173828,-45.435096740722656
1,513822,-28.08621597290039,35.5759162902832,-8.512716293334961,111.486328125
1,513823,4.740145683288574,21.621492385864258,-16.892868041992188,80.10645294189453
1,513826,-75.24100494384766,-43.205078125,-86.81869506835938,-73.08917236328125
1,513827,-76.3998794555664,-10.892054557800293,46.39345169067383,-24.2303409576416
1,513830,147.9417266845703,62.18928146362305,200.65354919433594,39.44478225708008
1,513831,140.1962432861328,71.86613464355469,47.14204406738281,13.312137603759766
1,513834,-134.33438110351562,-38.62983322143555,-130.79669189453125,-72.01655578613281
1,513835,-84.91950988769531,-88.78468322753906,-116.92601776123047,-39.42535400390625
1,513838,65.73219299316406,24.410228729248047,33.17279815673828,70.35938262939453
1,513839,3.398937702178955,53.15436935424805,108.44125366210938,34.45659637451172
1,513842,-17.533220291137695,-35.707969665527344,12.417038917541504,-24.950075149536133
1,513843,7.273073196411133,-17.13077163696289,12.166711807250977,-42.31076431274414
1,513846,2.986814022064209,54.58571243286133,39.84183883666992,-9.246291160583496
1,513847,-37.55641174316406,-15.009265899658203,-65.88893127441406,15.551445960998535
1,513850,48.831295013427734,-36.24584197998047,-99.16329193115234,-17.202524185180664
1,513851,57.67843246459961,-0.08885728567838669,-27.47342872619629,-5.968564033508301
1,513854,-123.19446563720703,-24.749929428100586,0.524101197719574,80.81558990478516
1,513855,-43.01874923706055,12.489151954650879,34.301448822021484,15.31424331665039
1,513858,115.40245056152344,-2.310391902923584,79.5695571899414,-71.9406509399414
1,513859,31.438678741455078,1.0378936529159546,41.730735778808594,17.065082550048828
1,513862,19.52202796936035,70.65068054199219,76.060791015625,15.281923294067383
1,513863,48.04145431518555,15.99338150024414,-35.21944046020508,-12.62921142578125
1,513866,-105.6684799194336,-77.24346923828125,-291.64508056640625,5.428635120391846
1,513867,-126.54454803466797,-42.18017578125,-188.154541015625,19.78657341003418
1,513870,75.55509185791016,54.399471282958984,202.3457489013672,60.86000442504883
1,513871,84.52510070800781,15.229425430297852,291.8592224121094,1.8149445056915283
1,513874,-81.00148010253906,-64.09265899658203,-28.562877655029297,-99.3776626586914
1,513875,-13.705008506774902,12.235968589782715,-56.63153839111328,-66.2268295288086
1,513878,48.61273956298828,89.47102355957031,18.521011352539062,25.137468338012695
1,513879,-25.76755714416504,10.744190216064453,-54.73088455200195,28.503393173217773
1,513882,55.05364990234375,-29.93079376220703,16.908132553100586,58.469234466552734
1,513883,53.41208267211914,0.6474756598472595,24.621315002441406,21.552907943725586
1,513888,-40.13783645629883,-25.751066207885742,-13.256782531738281,-49.803627014160156
1,513888,-5.843073844909668,-4.192115783691406,21.562786102294922,25.11080551147461
1,513889,-13.538962364196777,16.65753173828125,-28.55657196044922,-34.673160552978516
1,513892,-31.06125831604004,-37.04309844970703,-71.76872253417969,-61.331451416015625
1,513893,-6.529393672943115,11.73681354522705,32.12366485595703,39.673240661621094
1,513896,-24.447668075561523,38.43743896484375,10.474488258361816,23.394786834716797
1,513897,-15.599896430969238,-45.7215690612793,-68.55622100830078,14.207763671875
1,513900,38.60630798339844,-8.6542387008667,12.549349784851074,-7.761858940124512
1,513901,47.05564498901367,32.96500015258789,41.8621826171875,-15.749597549438477
1,513904,-22.796388626098633,-40.04389572143555,-35.71272659301758,22.167022705078125
1,513905,-62.51723098754883,-36.20199203491211,-12.5993070602417,8.449931144714355
1,513908,58.831398010253906,74.12802124023438,63.499855041503906,-3.6750755310058594
1,513909,83.24198913574219,58.24922180175781,130.16175842285156,-33.755401611328125
1,513912,-34.28205871582031,-28.110313415527344,100.89043426513672,-7.924702167510986
1,513913,-15.613014221191406,-28.779687881469727,-144.0974884033203,61.53176498413086
1,513916,-28.595447540283203,-12.73245620727539,-353.0108642578125,-18.08730697631836
1,513917,-16.970712661743164,-9.07938289642334,-46.67213821411133,-21.511062622070312
1,513920,-43.516300201416016,-8.80571174621582,368.59375,69.48004150390625
1,513921,-66.29791259765625,2.2137176990509033,93.30501556396484,-13.396008491516113
1,513924,125.73477172851562,-16.91130256652832,-129.12646484375,-78.24458312988281
1,513925,34.24193572998047,-1.4296879768371582,12.897991180419922,-57.286590576171875
1,513928,-62.97352981567383,56.16657257080078,6.72922945022583,31.11701202392578
1,513929,87.20646667480469,42.14099884033203,27.240541458129883,55.55204772949219
1,513932,-39.06241226196289,-46.9629020690918,-26.150529861450195,-31.49074363708496
1,513933,-103.19489288330078,-33.66250991821289,-67.08230590820312,-3.2946505546569824
1,513936,61.51785659790039,48.60917282104492,52.284698486328125,1.913707971572876
1,513937,53.095211029052734,-15.308221817016602,9.09640121459961,6.181612968444824
1,513940,-8.461737632751465,-38.994361877441406,-96.4559555053711,82.25157165527344
1,513941,-14.436500549316406,6.43371057510376,-91.4545669555664,-11.67296314239502
1,513944,-27.720319747924805,36.91905975341797,51.290809631347656,-58.884307861328125
1,513945,-34.62295913696289,19.135995864868164,94.47457122802734,50.23788070678711
1,513948,-5.51653528213501,-60.69758224487305,-9.893467903137207,38.169151306152344
1,513949,38.5594367980957,-16.891353607177734,27.768543243408203,-31.07489585876465
1,513952,22.100833892822266,23.684879302978516,17.160245895385742,-110.09104919433594
1,513953,16.839187622070312,28.224166870117188,-6.885313034057617,-18.35528564453125
1,513956,-29.443445205688477,18.529687881469727,-12.874857902526855,90.26449584960938
1,513957,-32.116764068603516,-38.17646789550781,-5.974035263061523,30.330795288085938
1,513960,47.989559173583984,-29.10638427734375,29.728025436401367,-17.69414710998535
1,513961,42.73897171020508,17.909591674804688,-23.048173904418945,-21.952085494995117
1,513964,6.753328323364258,33.440425872802734,-2.43169903755188,-1.9441121816635132
1,513965,-65.79877471923828,7.302001953125,49.53691864013672,-74.91284942626953
1,513968,-41.83366775512695,18.443435668945312,31.000904083251953,9.985457420349121
1,513969,81.63079071044922,7.411995887756348,-65.37458038330078,146.6155242919922
1,513972,-7.776246547698975,-68.80582427978516,-177.39723205566406,-5.228527069091797
1,513973,-35.107295989990234,-39.372802734375,-53.37686538696289,-37.47748565673828
1,513976,20.619285583496094,71.38749694824219,221.21551513671875,46.40985107421875
1,513977,-58.61189270019531,23.76326560974121,116.51918029785156,-57.41703796386719
1,513980,32.848182678222656,-0.7379935383796692,-69.58023834228516,-49.37137222290039
1,513981,36.95176696777344,16.446121215820312,-13.514935493469238,12.03962230682373
1,513984,-1.053500771522522,-74.28926849365234,-87.97077178955078,0.2844357490539551
1,513985,34.781185150146484,1.6385256052017212,-10.684563636779785,10.580320358276367
1,513988,-58.72658920288086,51.96087646484375,94.51631927490234,-15.110477447509766
1,513989,-3.5062308311462402,-4.282167434692383,6.126425743103027,5.9772772789001465
1,513992,40.03615951538086,-49.158267974853516,7.858081340789795,50.72684097290039
1,513993,-64.99744415283203,-57.39299774169922,-10.77629566192627,3.029339075088501
1,513996,-37.14791488647461,54.61948776245117,-74.71356201171875,-53.25470733642578
1,513997,56.26544189453125,32.588890075683594,-94.34796905517578,-45.34478759765625
1,514000,32.762638092041016,-1.6033364534378052,51.824459075927734,47.00240707397461
1,514001,-6.842287063598633,30.747554779052734,118.07166290283203,80.32263946533203
1,514004,-6.426074028015137,-16.099040985107422,-8.772200584411621,-68.15866088867188
1,514005,-53.929954528808594,-18.923986434936523,-11.758973121643066,-56.22728729248047
1,514008,-20.85873794555664,14.345285415649414,37.48931884765625,34.05998611450195
1,514009,101.0035171508789,2.190042018890381,5.565685749053955,-8.241690635681152
1,514012,29.30122947692871,-22.950790405273438,-175.6593475341797,-13.810691833496094
1,514013,-60.952579498291016,-24.112213134765625,-93.25489044189453,50.532264709472656
1,514016,-24.776351928710938,11.905644416809082,247.86285400390625,47.36921310424805
1,514017,19.896455764770508,45.09738540649414,99.83015441894531,-39.141822814941406
1,514020,22.840438842773438,-0.3768727779388428,-222.7642059326172,-35.31960678100586
1,514021,-22.014867782592773,-29.41204833984375,-71.99956512451172,15.325172424316406
1,514024,-43.15442657470703,-1.5192339420318604,173.65687561035156,16.309545516967773
1,514025,-23.695119857788086,9.357115745544434,63.08905029296875,-14.341078758239746
1,514028,61.486690521240234,-10.05837345123291,-78.66728973388672,-27.27916717529297
1,514029,58.526241302490234,-27.748659133911133,-12.51625919342041,16.209579467773438
1,514032,-13.474418640136719,6.681647300720215,29.659170150756836,32.49760055541992
1,514033,-42.1256103515625,53.89023971557617,10.977947235107422,2.8318638801574707
1,514036,-6.025249004364014,35.48338317871094,27.178190231323242,6.040856838226318
1,514037,53.44025802612305,-42.05355453491211,-16.911245346069336,-32.20698547363281
1,514040,13.325769424438477,-41.602867126464844,-60.070159912109375,-34.74292755126953
1,514041,-58.66737747192383,2.828667402267456,-25.823108673095703,65.46162414550781
1,514044,-20.005496978759766,13.650308609008789,24.427854537963867,-21.348739624023438
1,514045,0.43098729848861694,23.024381637573242,35.681392669677734,8.197454452514648
1,514048,-27.83061408996582,-5.344330787658691,-31.883569717407227,63.81636047363281
1,514049,55.455970764160156,-15.557528495788574,-86.11988830566406,-138.31561279296875
1,514052,34.404930114746094,11.4353666305542,-54.451698303222656,-28.950660705566406
1,514053,-47.26081466674805,5.7091593742370605,63.91584777832031,94.85343933105469
1,514056,-20.923105239868164,-24.399354934692383,137.72406005859375,-4.122009754180908
1,514057,18.919572830200195,-26.15877914428711,36.45344543457031,12.94719123840332
1,514060,26.29897689819336,18.376953125,-38.55491256713867,48.26052474975586
1,514061,-18.878887176513672,42.52999496459961,-8.061714172363281,-42.47629165649414
1,514064,-22.35181427001953,-28.99241828918457,-36.30925750732422,-50.87080001831055
1,514065,14.691234588623047,-16.655014038085938,-19.633644104003906,20.28232192993164
1,514068,13.518973350524902,17.776702880859375,30.1973934173584,20.36457061767578
1,514069,47.318111419677734,6.680183410644531,15.45339298248291,27.88410186767578
1,514072,-38.096317291259766,32.24763107299805,-15.548157691955566,9.205708503723145
1,514073,-116.37659454345703,-51.747318267822266,-29.048091888427734,-43.602596282958984
1,514076,61.851890563964844,7.545246601104736,36.425594329833984,-43.67434310913086
1,514077,152.637939453125,101.35040283203125,33.528297424316406,24.872316360473633
1,514080,-18.747699737548828,-45.938270568847656,-77.40304565429688,14.20844554901123
1,514081,-110.8849868774414,-65.0306625366211,-33.03594207763672,-0.9777922630310059
1,514084,-15.091487884521484,-8.105003356933594,34.830162048339844,-9.973320960998535
1,514085,-10.115610122680664,-13.584596633911133,-20.444446563720703,-32.76932144165039
1,514088,21.86659812927246,35.278892517089844,18.038862228393555,54.293766021728516
1,514090,77.66739654541016,-7.809380054473877,47.17021179199219,38.527259826660156
1,514092,-45.90654754638672,-5.62904691696167,16.308637619018555,-15.194822311401367
1,514094,-87.08460998535156,45.29608154296875,-23.157297134399414,-20.843490600585938
1,514096,42.40561294555664,-25.167564392089844,-49.38810348510742,-54.971351623535156
1,514098,67.431884765625,-3.3108601570129395,14.45588493347168,27.757186889648438
1,514100,-13.893168449401855,2.4457716941833496,2.3147454261779785,52.398353576660156
1,514102,-34.65339660644531,-13.926433563232422,-10.168941497802734,-10.852683067321777
1,514105,14.995391845703125,18.43648338317871,31.480634689331055,-27.32628631591797
1,514105,-0.28257355093955994,-3.4235928058624268,-10.345276832580566,-23.36013412475586
1,514108,-26.4715633392334,14.81230640411377,5.162483215332031,-2.114933967590332
1,514109,44.458465576171875,-12.36808967590332,53.44396209716797,2.2438952922821045
1,514112,7.981474876403809,-17.279525756835938,-35.24209213256836,60.0949821472168
1,514113,-54.534385681152344,22.571735382080078,-68.13040924072266,35.42588424682617
1,514116,6.101076602935791,-0.32451891899108887,29.69862174987793,-95.55939483642578
1,514117,42.1842041015625,-12.910720825195312,15.415547370910645,-3.913773536682129
1,514120,4.503129482269287,-17.495948791503906,-19.440963745117188,36.50693130493164
1,514121,-18.870927810668945,4.184293746948242,20.837276458740234,-52.016414642333984
1,514124,1.1213210821151733,32.208003997802734,13.721843719482422,11.357250213623047
1,514125,-33.067195892333984,-6.873005390167236,-6.689026355743408,52.728939056396484
1,514128,32.98843765258789,-24.02735137939453,0.5939668416976929,37.2855110168457
1,514129,74.57318878173828,-2.1483452320098877,0.5398529767990112,33.460357666015625
1,514132,-89.86776733398438,12.3880033493042,-10.68871021270752,-78.18953704833984
1,514133,-72.62191009521484,26.61601448059082,4.78010368347168,-131.63241577148438
1,514136,37.76108169555664,-2.08689022064209,2.7191786766052246,78.37918090820312
1,514137,51.60311508178711,-12.82433795928955,-18.86585235595703,114.42086029052734
1,514140,24.78158187866211,-20.542051315307617,6.001251220703125,-68.84803771972656
1,514141,-30.317672729492188,-12.2313814163208,21.018939971923828,-42.473670959472656
1,514144,7.8106489181518555,40.32197570800781,-13.57378101348877,63.251365661621094
1,514145,-5.948901653289795,19.885879516601562,-15.381860733032227,-3.038942337036133
1,514148,-4.055947780609131,-22.05302619934082,26.23738670349121,-24.75965690612793
1,514149,59.90709686279297,4.232306003570557,5.975693225860596,18.525318145751953
1,514152,-48.886051177978516,-5.768613338470459,-28.70850372314453,-31.20282745361328
1,514153,-76.43159484863281,-36.24985122680664,0.9619418382644653,-32.727020263671875
1,514156,38.957523345947266,8.891555786132812,35.07429504394531,70.34080505371094
1,514157,39.05449676513672,8.849329948425293,-17.74688720703125,32.2935676574707
1,514160,-4.731978893280029,22.733495712280273,-19.511032104492188,-55.81557846069336
1,514161,13.947174072265625,32.77759552001953,38.205631256103516,2.6899750232696533
1,514164,-10.69849967956543,-38.20362091064453,-36.06999969482422,23.60468101501465
1,514165,-73.77960968017578,-30.969318389892578,-24.25416374206543,-19.862075805664062
1,514168,34.576995849609375,3.6059296131134033,38.634193420410156,-55.9932975769043
1,514169,83.9124984741211,-1.616219401359558,-2.7371792793273926,7.47083044052124
1,514172,-44.659873962402344,-12.87358570098877,-5.60451078414917,59.10698318481445
1,514173,-45.978187561035156,17.321563720703125,5.818373680114746,-23.19363021850586
1,514176,8.889102935791016,32.484012603759766,10.645038604736328,-62.54568099975586
1,514177,38.29480743408203,1.7291165590286255,-5.563029766082764,44.96664810180664
1,514180,7.71919584274292,-4.2892866134643555,-13.390560150146484,63.904884338378906
1,514181,-37.61701965332031,-18.130159378051758,10.728517532348633,-13.577766418457031
1,514184,39.770633697509766,8.792702674865723,4.276397228240967,30.6496524810791
1,514185,1.0982457399368286,18.419782638549805,13.349562644958496,-13.799756050109863
1,514188,-22.40802574157715,-24.624683380126953,-5.188112258911133,-72.92474365234375
1,514189,51.404624938964844,5.411614418029785,-8.616767883300781,37.88604736328125
1,514192,-53.590579986572266,-15.422012329101562,-20.635541915893555,-0.1350465714931488
1,514193,-46.26055145263672,13.888981819152832,-6.0811543464660645,-33.67660140991211
1,514196,47.668678283691406,38.68086624145508,34.45049285888672,19.187318801879883
1,514197,-2.237352132797241,-73.37344360351562,-28.75066566467285,-10.381071090698242
1,514200,-12.475913047790527,-19.630504608154297,8.187686920166016,27.017398834228516
1,514201,17.263107299804688,46.89213562011719,3.9990715980529785,6.8634443283081055
1,514204,0.7498719096183777,20.224390029907227,-12.460846900939941,-17.53515625
1,514205,-46.33427047729492,5.009983539581299,44.60158157348633,17.91482162475586
1,514208,16.881200790405273,-4.444640159606934,-18.85661506652832,-16.695890426635742
1,514209,74.66569519042969,0.005106114782392979,-0.8228151202201843,-8.158617973327637
