Aktueller Finger,timestamp_ms,sensor_0,sensor_1,sensor_2,sensor_3
0,218885,0.12517690658569336,0.09131092578172684,16.557607650756836,17.215072631835938
0,218889,-19.14453125,10.036494255065918,-14.422595024108887,-24.200061798095703
0,218889,0.39052438735961914,3.335114002227783,-20.62679672241211,-18.798309326171875
0,218891,6.127683162689209,3.2109572887420654,4.380958557128906,4.462319850921631
0,218893,-8.086199760437012,-16.947996139526367,29.87630271911621,-5.350246906280518
0,218895,3.345329999923706,-29.248266220092773,-0.6076657772064209,13.578291893005371
0,218897,8.84447956085205,16.84330177307129,-19.34408187866211,20.729503631591797
0,218899,-20.527219772338867,13.405801773071289,-18.767963409423828,-2.5396382808685303
0,218901,-4.192291736602783,-15.996106147766113,9.217860221862793,16.472646713256836
0,218903,33.465309143066406,15.67972469329834,28.57464027404785,-27.02341079711914
0,218905,9.714232444763184,24.49483871459961,13.851635932922363,-13.374543190002441
0,218907,-24.65742301940918,-19.69550132751465,-14.769810676574707,25.98442840576172
0,218909,-11.940117835998535,-15.293198585510254,-34.6786994934082,-24.868471145629883
0,218911,7.450737953186035,29.226863861083984,4.025805950164795,-12.571738243103027
0,218913,-3.0947797298431396,19.175180435180664,26.9544734954834,24.10267448425293
0,218915,13.850258827209473,-17.9945068359375,-6.983187675476074,15.950011253356934
0,218917,3.9696884155273438,-40.246368408203125,-35.314537048339844,3.7135796546936035
0,218919,-18.76148223876953,9.345122337341309,26.61631202697754,3.800215721130371
0,218921,13.449849128723145,44.06850051879883,5.880281448364258,-31.2966365814209
0,218923,2.1148455142974854,-30.79123306274414,-41.16697692871094,-14.268802642822266
0,218925,-0.98613041639328,-19.939651489257812,58.45203399658203,37.21780776977539
0,218927,5.228887557983398,20.841411590576172,19.42877960205078,-1.7601737976074219
0,218929,12.258964538574219,-3.9231362342834473,-41.98380661010742,-43.658416748046875
0,218931,-4.483330249786377,-14.94074535369873,19.77566909790039,-9.814424514770508
0,218933,-35.5672721862793,-1.5935170650482178,-5.890422344207764,50.31440353393555
0,218935,14.868809700012207,29.680784225463867,-42.92049026489258,14.20098876953125
0,218937,16.49169921875,9.32779598236084,22.590473175048828,-47.14094924926758
0,218939,-14.726880073547363,-15.440949440002441,27.16856575012207,7.132608413696289
0,218941,-7.133293628692627,1.6462371349334717,-19.933753967285156,22.77737045288086
0,218943,15.466620445251465,13.361211776733398,21.376054763793945,-11.416211128234863
0,218945,15.409603118896484,-10.732486724853516,12.439102172851562,12.247902870178223
0,218947,-30.238142013549805,-28.21430778503418,-32.89417266845703,-1.1221030950546265
0,218949,-23.019346237182617,16.138395309448242,-16.38909339904785,-8.918285369873047
0,218951,34.19717025756836,27.58793830871582,7.250528335571289,11.426962852478027
0,218953,20.507539749145508,-17.049243927001953,0.3624696135520935,-1.3859184980392456
0,218955,-29.297908782958984,-18.56114387512207,0.04398122429847717,-3.594163656234741
0,218957,-22.889169692993164,2.280085325241089,0.38744136691093445,-18.75526237487793
0,218959,18.452672958374023,2.673701286315918,-12.865579605102539,-20.645587921142578
0,218961,10.127401351928711,25.163677215576172,32.83708572387695,33.99492263793945
0,218963,1.9730480909347534,9.785478591918945,33.691001892089844,24.28911018371582
0,218965,-2.218259811401367,-28.713054656982422,-34.489933013916016,-27.925840377807617
0,218967,-22.365039825439453,-1.6931068897247314,-32.914459228515625,0.030342133715748787
0,218969,25.08106231689453,-8.381302833557129,6.658658981323242,24.83010482788086
0,218971,17.36272621154785,-11.218713760375977,31.087249755859375,-5.758988857269287
0,218973,-16.808509826660156,22.720449447631836,28.13222885131836,-9.623241424560547
0,218975,-7.8633713722229,-1.9424595832824707,-34.1163444519043,-6.770897388458252
0,218977,0.49718332290649414,2.6928319931030273,-17.141324996948242,-10.865994453430176
0,218979,16.73169708251953,20.680870056152344,26.109540939331055,9.800921440124512
0,219234,-5.477030277252197,-21.708463668823242,-32.533294677734375,-1.6666685342788696
0,219235,-12.673294067382812,-18.67042350769043,7.143342971801758,-1.4291880130767822
0,219238,-3.904453754425049,10.688060760498047,16.916431427001953,18.793792724609375
0,219239,-0.6763598322868347,10.537081718444824,-39.07928466796875,-14.84447956085205
0,219242,-2.975440740585327,2.0650529861450195,13.549945831298828,-19.72891616821289
0,219243,-0.46018436551094055,-24.522153854370117,33.24698257446289,9.318546295166016
0,219246,27.05877685546875,19.847354888916016,-7.285536289215088,18.494356155395508
0,222157,8.761049270629883,23.810951232910156,-23.5966739654541,2.72007155418396
0,222159,-5.2757649421691895,-25.953853607177734,23.97281837463379,-3.669727087020874
0,222161,-5.98441743850708,4.839165210723877,9.194757461547852,24.801834106445312
0,222163,-10.465341567993164,-5.440168380737305,-16.13103485107422,1.0236462354660034
0,222165,-3.4884984493255615,-8.153295516967773,8.64346694946289,-37.266475677490234
0,222167,3.7395968437194824,9.186408996582031,-17.265132904052734,-14.932687759399414
0,222169,0.9601308703422546,12.273770332336426,8.853119850158691,22.20524787902832
0,222171,-3.154398202896118,17.485637664794922,5.408173084259033,4.0478057861328125
0,222173,9.677940368652344,-21.648801803588867,-29.278186798095703,-20.133588790893555
0,222175,-12.307463645935059,-20.28577423095703,7.580783367156982,4.297632694244385
0,222177,2.1022391319274902,-0.6423943638801575,20.47028350830078,4.7847394943237305
0,222179,11.638367652893066,3.0786471366882324,1.5201976299285889,-1.1394842863082886
0,222181,-23.723920822143555,12.747810363769531,-11.227095603942871,24.505184173583984
0,222183,2.9135875701904297,-1.136390209197998,7.171284198760986,23.332551956176758
0,222185,2.224297285079956,4.747867107391357,-8.091048240661621,-38.53645706176758
0,222187,-7.078019142150879,3.606178045272827,-14.728498458862305,-39.660667419433594
0,222189,16.73855972290039,-9.24754524230957,23.16469955444336,20.05717658996582
0,222191,2.577162265777588,-9.35407829284668,-3.209871292114258,5.203165531158447
0,222193,-6.125778675079346,17.585176467895508,7.532651901245117,-4.30212926864624
0,222195,2.738213062286377,19.736408233642578,8.377429008483887,16.304201126098633
0,222197,4.510026931762695,-24.126169204711914,-16.99048614501953,0.9675074815750122
0,222199,5.296926498413086,-14.782747268676758,7.597104072570801,18.516834259033203
0,222201,-1.8065247535705566,-8.280312538146973,-10.18359088897705,-7.9726176261901855
0,222203,-9.318597793579102,19.90446662902832,-0.9631423354148865,-25.553876876831055
0,222205,14.94847583770752,36.22613525390625,28.989967346191406,23.646041870117188
0,222207,6.139435291290283,-20.854001998901367,-25.00054359436035,-20.154769897460938
0,222209,-30.433229446411133,-25.33932876586914,-20.554136276245117,-4.251361846923828
0,222211,-3.769777297973633,-10.827178001403809,32.74055862426758,29.23827362060547
0,222213,14.768128395080566,-1.0763453245162964,-6.115182399749756,-23.34395980834961
0,222215,5.972177982330322,9.98742389678955,-6.251495361328125,-2.8208398818969727
0,222217,4.375494956970215,11.261680603027344,14.570998191833496,18.04108428955078
0,222219,-18.20195960998535,6.691064834594727,-33.05992889404297,0.6823087930679321
0,222221,-17.582969665527344,-3.856379747390747,-3.0938785076141357,18.286544799804688
0,222223,29.97852897644043,23.113426208496094,34.48725128173828,-5.5543928146362305
0,222225,22.15020179748535,-19.47090721130371,-5.664458274841309,-33.44895553588867
0,222227,-24.098896026611328,-25.304262161254883,1.3601781129837036,3.335104465484619
0,222229,-2.150667667388916,26.121286392211914,-6.039273738861084,18.983789443969727
0,222231,-0.25797757506370544,-8.756322860717773,-29.71515655517578,-10.9861478805542
0,222233,-6.752565860748291,14.79252815246582,18.732341766357422,-9.602594375610352
0,222235,20.120498657226562,17.551006317138672,39.181060791015625,12.276601791381836
0,222237,-5.6180419921875,-26.128673553466797,-16.207807540893555,-2.598512649536133
0,222239,-27.25644302368164,-12.170951843261719,-25.862918853759766,2.1187245845794678
0,222241,7.941690921783447,-4.998767375946045,11.804217338562012,-4.926711559295654
0,222243,9.017338752746582,3.5185511112213135,1.1046570539474487,-8.852262496948242
0,222245,6.71726655960083,16.809436798095703,-26.728801727294922,7.88800573348999
0,222247,16.07967185974121,8.067977905273438,18.519535064697266,16.20058250427246
0,222249,-33.473655700683594,-25.918317794799805,35.218238830566406,17.39223861694336
0,222251,-1.9842543601989746,-14.349751472473145,-38.62228775024414,-1.01882803440094
0,222252,36.11005783081055,33.104305267333984,-20.054664611816406,-15.189205169677734
0,222255,-26.282583236694336,6.881979465484619,32.17445373535156,-22.263906478881836
0,222256,-14.323448181152344,-6.17006778717041,-2.2817189693450928,-10.87473201751709
0,222259,20.160329818725586,-4.189355850219727,-0.49334102869033813,10.474970817565918
0,222260,-4.93857479095459,-17.426837921142578,10.029073715209961,18.845237731933594
0,222263,-0.02325991541147232,7.357846260070801,-15.385787963867188,-1.4253520965576172
0,222264,14.181353569030762,7.649234294891357,19.585622787475586,-19.601381301879883
0,222267,-2.2082114219665527,-3.246157169342041,11.035331726074219,-8.829073905944824
0,222268,-17.01475715637207,-6.67207145690918,-36.38679122924805,22.110082626342773
0,222271,-3.2031466960906982,-6.972130298614502,-12.474919319152832,23.199283599853516
0,222272,29.416667938232422,10.792680740356445,22.12706756591797,-22.67436408996582
0,222275,2.9408555030822754,15.439533233642578,15.517975807189941,-9.58978271484375
0,222276,-18.716394424438477,-19.02651023864746,-23.576677322387695,8.849479675292969
0,222279,-0.0025025950744748116,-0.7842435240745544,-2.0521936416625977,23.65020751953125
0,222280,-0.8542772531509399,27.243663787841797,28.084470748901367,18.374542236328125
0,222283,13.785795211791992,-3.73227858543396,-10.244646072387695,-46.17914962768555
0,222285,-9.095550537109375,-10.640646934509277,-2.515427350997925,-19.973403930664062
0,222287,-30.198558807373047,-3.740774631500244,10.362839698791504,15.638803482055664
0,222289,0.8433796763420105,14.888230323791504,-2.8252217769622803,3.462898015975952
0,222291,23.96590805053711,-0.6250820159912109,6.105776786804199,-17.376203536987305
0,222293,11.949814796447754,-27.045520782470703,-27.421091079711914,-2.4603075981140137
0,222295,-12.398214340209961,6.187148094177246,0.1968659609556198,37.795204162597656
0,222297,-0.4983023703098297,25.54796028137207,24.322786331176758,12.399666786193848
0,222299,10.633583068847656,-19.24340057373047,-20.425729751586914,-38.11746597290039
0,222301,-5.996049404144287,-25.621788024902344,13.720516204833984,-1.5786484479904175
0,222303,-4.1061530113220215,18.446924209594727,5.248812675476074,47.421791076660156
0,222305,4.3422112464904785,-1.9722079038619995,-36.70460510253906,-36.540771484375
0,222307,-1.3154696226119995,-4.686921119689941,2.944693088531494,-21.76390838623047
0,222309,9.409344673156738,5.596170425415039,17.5767765045166,47.292049407958984
0,222311,-6.663589000701904,-12.767155647277832,3.6288511753082275,-10.373784065246582
0,222313,-2.608412981033325,36.909507751464844,22.0085506439209,-14.525874137878418
0,222315,2.7893388271331787,26.487707138061523,4.337200164794922,0.9346962571144104
0,222317,-16.97406578063965,-40.11746597290039,-32.49684143066406,-7.281911849975586
0,222319,16.576030731201172,-6.54908561706543,-9.253911018371582,10.154609680175781
0,222321,-7.355035305023193,6.141512870788574,11.845232009887695,12.359796524047852
0,222323,-24.780202865600586,-13.705982208251953,17.338773727416992,-9.547852516174316
0,222325,30.10675048828125,6.961458683013916,0.3397165834903717,-26.083158493041992
0,222327,10.667678833007812,16.404308319091797,-21.787376403808594,9.909693717956543
0,222329,-15.628430366516113,-5.178482532501221,5.762517929077148,37.33384323120117
0,222331,-5.594968318939209,-18.038373947143555,0.7466012835502625,5.769215106964111
0,222333,9.98161792755127,6.8554534912109375,-0.7619373798370361,-25.67365264892578
0,222335,16.550439834594727,1.3191550970077515,2.531388759613037,-19.867250442504883
0,222337,-24.814498901367188,-5.925228595733643,-5.6158881187438965,3.2967681884765625
0,222339,-10.635562896728516,9.675032615661621,9.488457679748535,2.609342336654663
0,222341,22.50609588623047,8.09742546081543,-11.113130569458008,13.988664627075195
0,222343,5.914836406707764,-6.792764663696289,-10.687002182006836,5.7557053565979
0,222345,-1.2904850244522095,-10.976435661315918,3.7745754718780518,-29.87508773803711
0,222347,-11.008252143859863,2.682373285293579,6.346105575561523,-6.8492913246154785
0,222349,2.2631349563598633,10.04049301147461,24.626672744750977,33.22648239135742
0,222351,4.417113304138184,0.6746761202812195,-1.0934985876083374,32.89122772216797
0,222353,-29.225692749023438,-5.636197090148926,-34.16835403442383,-30.814056396484375
0,222355,14.677255630493164,0.5180484056472778,-11.26196575164795,-42.74894714355469
0,222357,35.07793045043945,4.061315536499023,30.41255760192871,29.977479934692383
0,222359,-17.422632217407227,14.724428176879883,27.930278778076172,24.982084274291992
0,222361,-11.171119689941406,-0.5307087302207947,3.840059280395508,7.059402942657471
0,222363,-5.873978614807129,-23.490257263183594,-22.043752670288086,-17.050838470458984
0,222365,-1.552236795425415,-6.150271415710449,-26.710906982421875,-48.54045486450195
0,222367,15.445552825927734,4.625193119049072,4.322717666625977,42.332984924316406
0,222369,-0.5514349937438965,-21.33112144470215,5.646303176879883,41.976932525634766
0,222371,3.209712505340576,12.024394035339355,48.764404296875,-39.37108612060547
0,222373,-7.256879806518555,30.194080352783203,9.39017391204834,-32.482215881347656
0,222375,-14.761273384094238,-19.985118865966797,-84.3780746459961,-22.520666122436523
0,222377,-1.8611489534378052,12.299832344055176,9.8466157913208,25.71236228942871
0,222379,-0.6605874300003052,14.953352928161621,27.107484817504883,27.39825439453125
0,222381,28.26434898376465,-21.265029907226562,-33.29486083984375,-9.73863697052002
0,222383,-1.4059675931930542,-0.6239697337150574,21.76884651184082,8.845730781555176
0,222385,-21.370330810546875,12.667010307312012,23.547155380249023,4.024462699890137
0,222387,15.928025245666504,-2.674537181854248,-18.599206924438477,-10.359053611755371
0,222389,-11.004385948181152,-16.50238609313965,-14.806282997131348,-7.402682781219482
0,222391,-0.7386581301689148,15.420592308044434,7.759554386138916,23.931062698364258
0,222393,29.59897804260254,9.359487533569336,15.776021003723145,7.966196060180664
0,222395,-0.9010226130485535,-24.410388946533203,-34.63369369506836,-51.661495208740234
0,222397,-19.497817993164062,-0.11991939693689346,3.080963373184204,0.30329427123069763
0,222399,-14.470905303955078,12.43359375,66.36341094970703,39.194637298583984
0,222401,57.34929656982422,-2.2502503395080566,-9.740825653076172,7.308211326599121
0,222403,-8.3075590133667,-7.562716007232666,-23.529850006103516,8.939128875732422
0,222405,-100.83543395996094,-4.169809818267822,-10.859617233276367,-30.441829681396484
0,222407,50.19453048706055,21.887306213378906,-19.59490203857422,-26.878599166870117
0,222409,33.733821868896484,8.81531047821045,18.275245666503906,38.87236022949219
0,222411,-41.72694396972656,-22.688798904418945,17.97698402404785,3.900808811187744
0,222414,12.262258529663086,-14.644776344299316,-1.165481686592102,-34.265132904052734
0,222415,-5.8747687339782715,-16.468795776367188,-8.810385704040527,16.37928009033203
0,222417,8.118735313415527,16.835460662841797,-7.197187900543213,26.707401275634766
0,222419,-1.8100275993347168,25.853212356567383,-8.951436042785645,5.1098737716674805
0,222421,-31.74359703063965,-5.91021203994751,-1.9879028797149658,-20.636035919189453
0,222423,39.48738098144531,-4.661795616149902,26.796838760375977,-14.98265266418457
0,222425,45.89078903198242,-13.001497268676758,11.73604679107666,18.645740509033203
0,222427,-46.85380554199219,25.153118133544922,-22.48687744140625,-10.053376197814941
0,222429,-12.457498550415039,23.0448055267334,-1.9768240451812744,-10.397595405578613
0,222431,44.794715881347656,-40.03740310668945,3.8553879261016846,0.09754757583141327
0,222433,-2.200854778289795,-17.498823165893555,-28.4834041595459,-9.343588829040527
0,222435,-26.72679901123047,15.38092041015625,-14.870278358459473,-6.07220983505249
0,222437,-23.176057815551758,6.748981475830078,44.93695068359375,27.611066818237305
0,222439,4.107937812805176,16.08485221862793,13.035658836364746,34.34237289428711
0,222441,19.126516342163086,-9.711018562316895,-37.18865203857422,-17.108882904052734
0,222443,5.545745849609375,-44.823509216308594,-6.208636283874512,-13.99594497680664
0,222445,9.086682319641113,46.218223571777344,5.159865856170654,-15.316275596618652
0,222447,-11.811944007873535,39.87239074707031,14.41026496887207,-15.2039794921875
0,222449,-27.639081954956055,-57.84734344482422,11.381148338317871,16.746299743652344
0,222451,0.009929564781486988,-5.336888790130615,2.6064860820770264,23.89346694946289
0,222453,10.699613571166992,29.420921325683594,-1.3331108093261719,26.283950805664062
0,222455,20.868017196655273,-0.7875037789344788,10.577402114868164,-5.813920497894287
0,222457,14.003024101257324,-3.874770164489746,11.679017066955566,-11.26878547668457
0,222459,-8.485355377197266,-2.2793846130371094,-10.758038520812988,-11.9573335647583
0,222461,1.5445139408111572,-21.438739776611328,-21.051883697509766,-37.77211380004883
0,222463,-17.545989990234375,-20.667268753051758,-22.257091522216797,-11.451407432556152
0,222465,-25.287742614746094,24.492923736572266,15.706645011901855,4.771759986877441
0,222467,16.513944625854492,30.200260162353516,15.115806579589844,39.44209671020508
0,222469,16.550151824951172,-16.476825714111328,7.917585372924805,53.31196212768555
0,222471,1.4451693296432495,-20.491971969604492,-1.3053884506225586,-49.78067398071289
0,222473,-3.1901586055755615,11.896602630615234,-44.50852584838867,-76.4019775390625
0,222475,-2.177873373031616,9.712498664855957,12.550365447998047,7.9511260986328125
0,222477,15.48054027557373,10.557841300964355,41.67379379272461,19.717273712158203
0,222479,-18.805416107177734,-4.0511627197265625,-42.59519958496094,24.880525588989258
0,222481,-17.531482696533203,-28.81545639038086,-6.279855728149414,68.50863647460938
0,222483,2.672481060028076,6.40592622756958,55.848052978515625,27.839191436767578
0,222485,0.8797546029090881,-4.730212688446045,-15.558650016784668,-56.1806755065918
0,222487,28.379329681396484,4.526730537414551,-22.48586082458496,-6.891200065612793
0,222489,10.116095542907715,54.496273040771484,29.171537399291992,46.20407485961914
0,222491,-43.457916259765625,5.85939359664917,-21.515241622924805,-56.013729095458984
0,222493,-6.741618633270264,-32.122764587402344,-14.005655288696289,4.533173084259033
0,222495,43.85335159301758,-28.85931968688965,48.19764709472656,-106.00563049316406
0,222497,-17.598125457763672,-45.509788513183594,-37.31669998168945,-196.5720672607422
0,222499,8.43679141998291,5.982184886932373,-26.702550888061523,190.1571502685547
0,222501,14.4979887008667,61.90837860107422,50.626338958740234,165.6531982421875
0,222503,-5.059262275695801,9.586421966552734,-13.184292793273926,15.215178489685059
0,222505,32.56623077392578,-15.88909912109375,-7.991246700286865,75.83586883544922
0,222507,-61.66941833496094,-0.4471304714679718,29.471574783325195,-71.85275268554688
0,222509,-54.20758056640625,16.5302734375,2.440596580505371,-146.89056396484375
0,222511,49.10403823852539,1.3095405101776123,-24.92700958251953,-11.061113357543945
0,222513,68.61965942382812,-23.44439697265625,-39.93955612182617,115.83573913574219
0,222515,-2.5094873905181885,5.715762138366699,9.4269437789917,25.812040328979492
0,222517,-92.91287231445312,-17.829343795776367,36.03739547729492,-44.756187438964844
0,222519,-9.039793968200684,12.99551010131836,1.711906909942627,0.4173814654350281
0,222521,58.47477722167969,53.021549224853516,-9.101000785827637,-51.92115020751953
0,222523,11.569764137268066,-32.24892044067383,-1.7833188772201538,-46.25960159301758
0,222525,-6.737662315368652,-57.919315338134766,-0.2619594931602478,16.834983825683594
0,222526,5.748186111450195,-1.011513113975525,4.105381011962891,13.773340225219727
0,222529,-12.658912658691406,30.502370834350586,-6.191215515136719,19.05208969116211
0,222530,-20.30854034423828,7.383119106292725,-9.564065933227539,41.04320526123047
0,222533,12.536466598510742,18.61433219909668,24.83828353881836,1.2720673084259033
0,222534,13.175503730773926,10.7106351852417,3.4700558185577393,-19.570903778076172
0,222537,-7.66225004196167,-46.859466552734375,-24.79113006591797,74.4499282836914
0,222538,-17.7838134765625,-3.2843644618988037,-12.308673858642578,112.71894836425781
0,222541,1.6659343242645264,58.33720779418945,1.1553294658660889,-63.8448371887207
0,222542,13.132017135620117,-7.450852870941162,0.41306814551353455,-238.10519409179688
0,222545,7.989869594573975,-58.53452682495117,-3.648702621459961,-151.5830078125
0,222546,-4.939374923706055,22.76315689086914,16.05473518371582,-116.12947082519531
0,222549,9.554051399230957,21.441164016723633,-0.4351660907268524,262.7440185546875
0,222550,12.800803184509277,-24.828205108642578,-1.0286110639572144,254.72830200195312
0,222553,-40.64464569091797,-9.157831192016602,21.181325912475586,-109.00914001464844
0,222554,-22.089946746826172,-9.236714363098145,-7.479084014892578,326.17938232421875
0,222557,28.506961822509766,38.21741485595703,2.7562694549560547,-92.85906982421875
0,222558,23.927000045776367,46.30967330932617,31.092731475830078,-561.3009033203125
0,222561,9.413945198059082,-36.71874237060547,-4.462700366973877,36.37861251831055
0,222562,-26.512115478515625,-39.45235824584961,-46.32451629638672,153.0298614501953
0,222565,-32.70977783203125,-5.29552698135376,-48.99579620361328,94.5726547241211
0,222566,28.655229568481445,25.70786476135254,27.213993072509766,362.20098876953125
0,222569,46.174644470214844,48.47795867919922,51.1829719543457,-55.50013732910156
0,222570,-11.069897651672363,-29.548545837402344,-22.81853485107422,-410.4705810546875
0,222573,-22.982486724853516,-27.556623458862305,-12.913138389587402,134.1629180908203
0,222574,9.416278839111328,32.49602508544922,13.530370712280273,23.901897430419922
0,222577,-11.564903259277344,-17.599573135375977,-2.4351351261138916,-280.2543029785156
0,222578,-29.34257698059082,-44.79227828979492,-6.849854469299316,131.6414031982422
0,222581,17.688875198364258,15.441686630249023,8.514836311340332,286.5279541015625
0,222582,11.95206069946289,32.736141204833984,-5.5842413902282715,69.50918579101562
0,222585,-9.687089920043945,-2.09946346282959,15.285501480102539,-351.2553405761719
0,222586,34.20247268676758,3.528477668762207,46.54287338256836,-294.5911865234375
0,222589,-1.3400664329528809,-0.6342774033546448,-36.91954803466797,619.371826171875
0,222590,-38.887229919433594,-42.08991622924805,-34.55144500732422,468.1908874511719
0,222593,-5.830565929412842,-14.847888946533203,7.038383960723877,-803.0658569335938
0,222594,-10.443994522094727,31.529129028320312,-4.1343536376953125,-686.6229248046875
0,222597,12.788247108459473,9.553206443786621,6.658332824707031,498.17108154296875
0,222598,30.845888137817383,12.41853141784668,-0.7990316152572632,285.2345886230469
0,222601,-13.396512985229492,40.38462448120117,22.1158504486084,-268.89129638671875
0,222602,-10.468704223632812,1.0151607990264893,3.50533127784729,175.78370666503906
0,222605,12.326882362365723,-33.64019012451172,-36.31996536254883,806.9403076171875
0,222606,10.161467552185059,0.7951229214668274,12.29677677154541,412.6163024902344
0,222609,-5.670163631439209,-1.3921252489089966,16.017505645751953,-1407.2318115234375
0,222610,8.68862533569336,-7.202751159667969,5.82286262512207,-1347.407470703125
0,222613,2.2582285404205322,-47.25304412841797,-6.039773941040039,1369.6702880859375
0,222614,-42.39984130859375,-74.37822723388672,-66.61351776123047,2008.7923583984375
0,222617,-10.848200798034668,71.79552459716797,13.911865234375,-795.1764526367188
0,222618,16.813920974731445,92.80647277832031,73.50665283203125,-1588.291748046875
0,222621,52.44757080078125,3.315608263015747,21.97995376586914,88.19291687011719
0,222622,29.099422454833984,-3.883793592453003,-3.915370464324951,145.72964477539062
0,222625,-54.403350830078125,-45.840736389160156,-30.863483428955078,199.66549682617188
0,222626,-19.340452194213867,-26.204967498779297,-22.62494659423828,506.9396667480469
0,222629,6.647403240203857,7.038984298706055,-19.51894187927246,-160.84225463867188
0,222630,-17.23480796813965,28.851058959960938,3.6851301193237305,-222.1322021484375
0,222633,1.8430713415145874,29.529767990112305,12.827092170715332,288.88568115234375
0,222634,9.336560249328613,-41.492759704589844,-14.319376945495605,395.6180419921875
0,222637,14.383269309997559,3.0537798404693604,41.51846694946289,-136.8968505859375
0,222638,40.33787155151367,30.400432586669922,28.276580810546875,-83.25352478027344
0,222641,-7.404036045074463,-36.10392379760742,-29.335779190063477,-842.6897583007812
0,222642,-37.04435348510742,-34.29781723022461,-18.39512062072754,-1301.893310546875
0,222645,-46.57703399658203,-44.656280517578125,-21.09818458557129,612.242431640625
0,222646,-49.591182708740234,-13.017062187194824,5.8967390060424805,1418.6558837890625
0,222649,78.34996795654297,109.29361724853516,25.345224380493164,1056.8055419921875
0,222650,84.99635314941406,84.19107055664062,17.00156021118164,-408.5304870605469
0,222653,-28.078763961791992,-50.23299789428711,-27.38283920288086,-1230.2799072265625
0,222654,-39.213645935058594,-52.745521545410156,-25.640119552612305,-35.1392936706543
0,222657,-3.4234426021575928,28.931127548217773,32.321834564208984,898.5831909179688
0,222658,24.9080810546875,34.10855484008789,22.960739135742188,383.7698059082031
0,222661,-2.6118969917297363,-55.18475341796875,-18.7860050201416,-1519.3701171875
0,222662,-1.1203871965408325,-39.708370208740234,-33.352447509765625,-368.7678527832031
0,222665,-51.29362106323242,-36.13573455810547,-33.40267562866211,1721.363037109375
0,222666,-61.96945571899414,-27.99014663696289,10.228732109069824,-172.0531768798828
0,222669,83.46064758300781,113.0048828125,80.58890533447266,-864.5525512695312
0,222670,49.70289611816406,51.78379821777344,24.035789489746094,186.8496856689453
0,222673,-12.758405685424805,-26.20744514465332,-18.831939697265625,-439.7638244628906
0,222674,-2.776501178741455,-13.838555335998535,-8.455124855041504,-125.2809829711914
0,222677,-41.15848159790039,-56.61754608154297,-44.6666259765625,644.4664916992188
0,222679,9.104269027709961,7.457380771636963,-15.044107437133789,188.66038513183594
0,222681,17.563823699951172,37.452667236328125,5.958970546722412,301.5003967285156
0,222684,-17.331167221069336,-21.568777084350586,-2.827162981033325,136.44161987304688
0,222685,27.702486038208008,17.173032760620117,30.104108810424805,-510.6164855957031
0,222686,10.26703929901123,34.086830139160156,6.470091342926025,-178.06192016601562
0,222689,-16.125625610351562,-20.173397064208984,-5.723291873931885,-22.80221939086914
0,222690,5.784580230712891,-25.355770111083984,25.022592544555664,-128.7586212158203
0,222693,-21.768566131591797,-16.055835723876953,-19.07286834716797,-35.45256042480469
0,222694,-26.758899688720703,-16.500368118286133,-22.198644638061523,116.03015899658203
0,222697,16.21336555480957,16.240018844604492,13.467040061950684,437.3847351074219
0,222698,24.381301879882812,46.64639663696289,-7.458535671234131,466.4549560546875
0,222701,4.607213020324707,0.6883468627929688,3.555877685546875,-1118.7147216796875
0,222702,-6.599154472351074,-30.119699478149414,32.05202865600586,-1301.2613525390625
0,222705,-21.967573165893555,-44.9619255065918,-41.57628631591797,1583.7862548828125
0,222706,-55.37789535522461,-93.6761703491211,-108.15575408935547,1281.4149169921875
0,222709,19.72491455078125,85.51436614990234,79.9579086303711,-889.6116333007812
0,222710,105.82609558105469,164.83660888671875,143.8295440673828,-530.8162841796875
0,222713,-5.5537896156311035,-47.15427017211914,-55.21102523803711,154.8253936767578
0,222714,-63.7960319519043,-63.59061050415039,-71.46458435058594,77.64495086669922
0,222717,-2.283642053604126,1.8085594177246094,4.438199520111084,-27.730915069580078
0,222718,17.247840881347656,18.340211868286133,31.667858123779297,679.9046630859375
0,222721,16.1328182220459,19.847122192382812,14.946945190429688,70.9690933227539
0,222722,8.777535438537598,-11.618133544921875,-10.739378929138184,-1575.197021484375
0,222725,-5.691680908203125,-22.903589248657227,-7.392951965332031,-41.70496368408203
0,222726,-17.42576026916504,-13.10411262512207,-29.528114318847656,1611.2310791015625
0,222729,-4.155667304992676,26.082212448120117,4.052806854248047,-472.5987854003906
0,222730,21.549203872680664,26.598894119262695,34.47367858886719,-1550.6375732421875
0,222733,-24.376605987548828,-91.0907974243164,-35.894020080566406,829.1117553710938
0,222734,-69.86495971679688,-96.55728149414062,-45.095523834228516,673.1030883789062
0,222737,32.46180725097656,91.62152862548828,42.62560272216797,-449.880859375
0,222738,55.46638488769531,83.56621551513672,30.363380432128906,817.8935546875
0,222741,-23.478994369506836,-14.698577880859375,-17.2163143157959,256.9181213378906
0,222742,22.20265007019043,8.197324752807617,35.00646209716797,-585.2460327148438
0,222745,23.2636775970459,11.383367538452148,16.774662017822266,-47.82170486450195
0,222746,-22.428579330444336,-5.401839733123779,-35.972476959228516,-45.957393646240234
0,222749,-21.813030242919922,-6.65339994430542,5.8062238693237305,-186.44497680664062
0,222750,1.4651018381118774,0.268324077129364,17.83891487121582,-112.65418243408203
0,222753,13.191303253173828,-36.983116149902344,-34.00054168701172,-96.28729248046875
0,222754,-13.827689170837402,-40.94786834716797,-34.73027420043945,-24.970285415649414
0,222757,1.6215265989303589,29.116439819335938,21.497356414794922,124.11463165283203
0,222758,6.149468898773193,37.46573257446289,30.367372512817383,131.54617309570312
0,222761,-7.17922306060791,-14.972094535827637,-0.6959892511367798,46.15304946899414
0,222762,7.440160751342773,-7.384560585021973,-3.5056850910186768,39.452266693115234
0,222765,-19.749452590942383,16.981794357299805,-13.837069511413574,10.007335662841797
0,222766,-3.2708184719085693,4.4933037757873535,-25.431623458862305,-31.614892959594727
0,222769,40.34877014160156,-5.789054870605469,10.6049222946167,-50.810420989990234
0,222770,-5.24655818939209,-4.215259552001953,24.907073974609375,-72.02173614501953
0,222773,1.6341099739074707,13.95276927947998,-6.216850280761719,-33.274845123291016
0,222774,0.18338656425476074,-1.6899943351745605,-17.538270950317383,6.4847235679626465
0,222777,-22.357803344726562,-25.587848663330078,-4.206512928009033,56.27717971801758
0,222778,13.735136985778809,-3.317037582397461,16.49408531188965,73.1868667602539
0,222781,-9.45790958404541,16.403085708618164,0.050429653376340866,30.68897247314453
0,222782,-7.154905796051025,-7.964794635772705,-9.587398529052734,24.938203811645508
0,222785,13.644109725952148,-21.043209075927734,21.36045265197754,-0.2513008415699005
0,222786,-0.7067413926124573,10.974050521850586,-2.4890666007995605,-48.356101989746094
0,222789,-9.30056095123291,35.4019889831543,-13.957154273986816,-41.92850875854492
0,222790,-19.13372802734375,-6.99324893951416,19.063068389892578,-26.60554313659668
0,222793,19.490442276000977,-27.463239669799805,14.775703430175781,-23.520565032958984
0,222794,12.79706859588623,8.393379211425781,-5.841254711151123,-2.6620819568634033
0,222797,-13.776050567626953,22.343379974365234,-9.649208068847656,15.108309745788574
0,222798,17.694740295410156,-13.318588256835938,-28.524463653564453,25.386249542236328
0,222801,9.823101997375488,-19.19382095336914,-4.511331081390381,38.05134201049805
0,222802,-13.406087875366211,37.124114990234375,34.31061935424805,21.112398147583008
0,222805,-11.806572914123535,-15.721141815185547,-3.4103522300720215,-4.43364143371582
0,222806,-8.006474494934082,-29.94915199279785,-13.50655746459961,-15.98820686340332
0,222809,-6.370669364929199,23.498353958129883,3.955618381500244,-21.057022094726562
0,222810,10.098734855651855,-2.815694808959961,-2.149324893951416,-7.0856428146362305
0,222813,17.479740142822266,-6.002361297607422,-3.141094446182251,-18.292997360229492
0,222815,5.660253524780273,7.154590129852295,0.11332861334085464,-9.325369834899902
0,222817,6.840642929077148,27.57147789001465,18.179298400878906,48.345909118652344
0,222819,32.15880584716797,-6.036573886871338,1.117529273033142,10.32597541809082
0,222821,-35.93349075317383,-28.595264434814453,-12.243465423583984,-35.42417526245117
0,222823,-83.2057876586914,13.057159423828125,13.571470260620117,14.163968086242676
0,222825,55.18265151977539,8.4489164352417,-4.41559362411499,11.055108070373535
0,222827,49.344966888427734,8.447117805480957,-19.529747009277344,-10.486763954162598
0,222829,-44.492950439453125,-16.49582862854004,-10.314153671264648,-6.263885974884033
0,222831,9.69455337524414,-26.13530158996582,3.6444499492645264,-9.27440071105957
0,222833,0.19275811314582825,11.05952262878418,3.0652694702148438,-6.637317180633545
0,222835,-38.697383880615234,5.045276165008545,13.113656044006348,-13.447243690490723
0,222838,7.8846940994262695,3.6543593406677246,12.134004592895508,-2.7556216716766357
0,222841,20.947433471679688,24.062997817993164,7.610330581665039,32.18864059448242
0,222841,6.733639240264893,-16.861690521240234,10.60723876953125,23.80100440979004
0,222842,-4.094558238983154,-44.202674865722656,-27.731399536132812,-0.492244690656662
0,222845,-0.6706140637397766,23.455659866333008,-8.859712600708008,11.428694725036621
0,222846,23.4583740234375,36.08583450317383,3.3858938217163086,82.20744323730469
0,222849,9.58027458190918,6.269632339477539,4.682779312133789,-8.034659385681152
0,222850,-24.358936309814453,-24.329509735107422,5.177191734313965,-343.2253723144531
0,222853,-9.646644592285156,-6.5298285484313965,-4.037309169769287,-183.1200408935547
0,222854,14.95425033569336,23.620820999145508,7.344079494476318,469.8062438964844
0,222857,-24.974754333496094,-34.685482025146484,-31.243549346923828,319.0270690917969
0,222858,-17.64798927307129,-18.309978485107422,-16.378694534301758,-322.0435791015625
0,222861,29.14158821105957,28.350372314453125,35.26158905029297,-161.0533447265625
0,222862,16.582223892211914,6.388293743133545,8.908413887023926,101.01006317138672
0,222865,-2.853990077972412,4.982334613800049,-12.35152530670166,-12.593284606933594
0,222866,-15.868905067443848,19.016742706298828,19.390371322631836,11.438876152038574
0,222869,-5.495296955108643,-9.705403327941895,5.432320594787598,62.349430084228516
0,222870,17.22519874572754,-13.894058227539062,-13.817708969116211,-2.519604206085205
0,222873,6.682855129241943,3.4574341773986816,-0.43261468410491943,-60.940608978271484
0,222874,-7.898029804229736,-3.4803202152252197,-3.0890262126922607,-30.45514678955078
0,222877,-11.963821411132812,4.898425102233887,-6.801908016204834,26.792062759399414
0,222878,-6.609749794006348,-7.47530460357666,5.747354507446289,27.417861938476562
0,222881,8.765686988830566,-4.2124104499816895,7.889869689941406,-12.708996772766113
0,222882,10.943085670471191,24.107009887695312,-20.274438858032227,-0.8859909772872925
0,222885,9.288512229919434,7.169849872589111,7.28360652923584,10.927999496459961
0,222886,-4.080334186553955,-30.841291427612305,14.369235038757324,3.034553050994873
0,222889,-13.249993324279785,-15.251808166503906,-20.895174026489258,20.960786819458008
0,222890,-2.7985265254974365,10.839522361755371,-7.285846710205078,-0.09884042292833328
0,222893,12.178766250610352,12.967045783996582,11.814580917358398,-31.21096420288086
0,222894,12.912510871887207,14.03901195526123,22.55068016052246,-1.4773467779159546
0,222897,-27.687456130981445,-23.876249313354492,-7.0339179039001465,-7.179903984069824
0,222898,0.458666056394577,-21.263816833496094,-27.603471755981445,-1.591911792755127
0,222901,31.837303161621094,27.061328887939453,18.488683700561523,13.15517520904541
0,222902,-38.091896057128906,16.992130279541016,9.828697204589844,-20.47616195678711
0,222905,-21.07900619506836,-13.301168441772461,-8.51046085357666,5.648958206176758
0,222906,27.814401626586914,-28.364194869995117,12.713324546813965,29.914196014404297
0,222909,14.493331909179688,-2.2889938354492188,-23.85770034790039,-10.3193941116333
0,222910,13.116101264953613,37.588104248046875,-14.7055025100708,-22.293058395385742
0,222913,-13.208447456359863,5.749654769897461,29.68977165222168,16.57762336730957
0,222914,-27.27019691467285,-14.268776893615723,5.440093517303467,-0.42528146505355835
0,222917,9.81857967376709,3.557675361633301,-6.735879421234131,-16.830810546875
0,222918,23.74346923828125,7.942154407501221,-11.33952522277832,-3.473928213119507
0,222921,-4.154325008392334,-7.698699474334717,-16.921396255493164,-2.303462028503418
0,222922,-14.276171684265137,-4.275818824768066,25.350160598754883,24.149547576904297
0,222925,7.355748653411865,8.882282257080078,17.601896286010742,14.463936805725098
0,222926,0.08033023029565811,-18.77378273010254,-20.699459075927734,-12.52869701385498
0,222929,-16.802289962768555,-12.375231742858887,-11.551326751708984,9.165166854858398
0,222930,11.603371620178223,23.387577056884766,-2.1971850395202637,19.735599517822266
0,222933,8.937823295593262,18.95700454711914,23.878576278686523,-10.166891098022461
0,222934,-3.60080885887146,-11.61181640625,13.817338943481445,-45.73415756225586
0,222937,-5.637633323669434,-17.29130744934082,-20.777402877807617,-1.553389072418213
0,222938,-14.657295227050781,3.864975929260254,-6.466222763061523,28.038122177124023
0,222941,15.865385055541992,2.5324864387512207,17.339357376098633,-29.4587345123291
0,222942,6.512866020202637,-9.159405708312988,6.672649383544922,8.208330154418945
0,222945,-10.705277442932129,27.254499435424805,-18.92987060546875,29.629558563232422
0,222946,10.209563255310059,-2.250413179397583,3.6817173957824707,-8.453622817993164
0,222949,-7.870700836181641,-21.17841911315918,17.0992374420166,6.6544599533081055
0,222950,-14.387776374816895,20.21547508239746,-10.939163208007812,-12.415634155273438
0,222953,15.019367218017578,-22.873943328857422,-16.89281463623047,-10.014053344726562
0,222954,15.261510848999023,-0.46077799797058105,0.7802573442459106,18.758901596069336
0,222957,-7.593963623046875,26.329601287841797,13.123412132263184,3.2433080673217773
0,222958,-8.320866584777832,-11.01213550567627,-16.77390480041504,-3.825244188308716
0,222961,-1.384351372718811,-7.271690368652344,-21.252628326416016,-7.495418548583984
0,222962,-2.422130823135376,-7.1706366539001465,23.27519989013672,-8.048043251037598
0,222965,29.221525192260742,-2.2344682216644287,20.620323181152344,-16.07450294494629
0,222966,7.376420021057129,-0.6383426785469055,2.9996984004974365,7.359891414642334
0,222969,-47.37870407104492,-0.5213495492935181,-26.212871551513672,44.0259895324707
0,222970,-4.105356216430664,10.682777404785156,-10.913409233093262,8.536396980285645
0,222973,23.636930465698242,19.9493350982666,28.769243240356445,-40.575401306152344
0,222974,-2.1732780933380127,11.88212776184082,8.504193305969238,-30.070833206176758
0,222977,11.969392776489258,-36.86305618286133,-7.798724174499512,22.756528854370117
0,222978,15.318105697631836,-15.08830738067627,-3.8366496562957764,-0.20864835381507874
0,222981,3.301408290863037,35.800357818603516,6.888343334197998,3.4446825981140137
0,222982,-7.526405334472656,8.01077938079834,-20.525835037231445,27.91901206970215
0,222985,-55.81217956542969,-1.0180954933166504,0.005537204444408417,-11.529960632324219
0,222986,-30.521800994873047,-18.819522857666016,16.305553436279297,14.870326042175293
0,222989,73.71356964111328,-23.089885711669922,-22.214879989624023,4.866844177246094
0,222990,34.667720794677734,9.52072811126709,-10.82730770111084,-33.070220947265625
0,222993,-70.74337768554688,14.637467384338379,7.840348720550537,-12.553091049194336
0,222994,-13.952741622924805,-2.568347454071045,36.48777389526367,-15.119831085205078
0,222997,35.41523742675781,-12.874637603759766,14.037339210510254,19.40472984313965
0,222998,19.00640106201172,17.577856063842773,-36.7371940612793,42.076751708984375
0,223001,0.6000267863273621,-5.333568572998047,-0.47379523515701294,-6.127945423126221
0,223002,-25.188438415527344,-21.758346557617188,13.464958190917969,-17.63273811340332
0,223005,-5.30167818069458,16.465394973754883,-8.589959144592285,-15.487043380737305
0,223006,9.087461471557617,7.048104286193848,4.855001449584961,4.06270694732666
0,223012,17.768831253051758,-9.779311180114746,0.23120202124118805,16.336225509643555
0,223012,6.8146586418151855,3.385925531387329,5.905778884887695,4.753677845001221
0,223013,-10.330560684204102,8.95035457611084,14.477559089660645,-4.132646560668945
0,223014,8.445024490356445,2.1724307537078857,-11.378189086914062,-31.674503326416016
0,223017,-6.502628803253174,-10.538846969604492,-26.07585334777832,9.585848808288574
0,223018,-35.61606216430664,-4.859328746795654,-5.729176044464111,33.230037689208984
0,223021,-10.015751838684082,18.471660614013672,16.78873634338379,2.907424211502075
0,223022,22.809385299682617,-26.154111862182617,-11.581591606140137,-25.815305709838867
0,223025,20.372499465942383,11.352222442626953,12.546795845031738,-31.858774185180664
0,223026,49.558589935302734,64.59162139892578,18.41815757751465,6.2260613441467285
0,223029,2.672776937484741,-40.163307189941406,-33.08176040649414,23.847553253173828
0,223030,-103.56230163574219,-40.81102752685547,14.72971248626709,26.42267608642578
0,223033,-13.016639709472656,40.089378356933594,19.124582290649414,-1.256065011024475
0,223034,57.68623352050781,12.32307243347168,-23.383337020874023,-18.133136749267578
0,223037,-14.953967094421387,-68.7516098022461,-15.710319519042969,-6.079014301300049
0,223038,-18.385377883911133,-4.225266933441162,17.500226974487305,1.8074153661727905
0,223041,64.65693664550781,77.77898406982422,25.328716278076172,0.6562350392341614
0,223042,44.39207458496094,-19.218854904174805,-15.530808448791504,-10.064130783081055
0,223045,-84.48126220703125,-40.29492950439453,-24.415849685668945,17.743192672729492
0,223046,-50.75299835205078,1.2020200490951538,-10.878101348876953,-2.309384346008301
0,223049,54.714107513427734,16.308835983276367,14.99688720703125,-19.534563064575195
0,223050,18.117387771606445,23.876136779785156,10.936044692993164,10.277714729309082
0,223053,-1.212626576423645,5.7677998542785645,11.772113800048828,-18.183778762817383
0,223054,7.450337886810303,-5.152702808380127,15.519046783447266,3.1615476608276367
0,223057,-22.399642944335938,-26.067916870117188,-24.39621353149414,25.360923767089844
0,223058,-2.442661762237549,11.334175109863281,4.445039749145508,2.7752089500427246
0,223061,3.64855694770813,26.222318649291992,3.904711961746216,16.522029876708984
0,223062,-19.780981063842773,-36.733882904052734,-21.720272064208984,-9.831621170043945
0,223065,-1.5738219022750854,-23.927879333496094,7.572704315185547,-27.368091583251953
0,223066,21.779678344726562,27.193464279174805,-9.032352447509766,23.323009490966797
0,223069,-1.8729296922683716,2.261176347732544,-0.5203239321708679,18.110685348510742
0,223070,-6.781378269195557,-12.431564331054688,25.34819221496582,-12.64220142364502
0,223073,17.78791046142578,10.122197151184082,-11.567038536071777,-22.495563507080078
0,223074,15.436551094055176,18.368715286254883,-0.2000817060470581,-24.92957878112793
0,223077,-14.307914733886719,9.3836030960083,15.593666076660156,26.76011848449707
0,223078,-7.579922199249268,-26.021785736083984,-20.052284240722656,29.592195510864258
0,223081,-7.4044318199157715,-8.152849197387695,13.211769104003906,-37.23135757446289
0,223082,-16.58596420288086,13.413932800292969,8.508805274963379,-26.707237243652344
0,223085,26.573699951171875,-12.346821784973145,-24.40765953063965,12.846454620361328
0,223086,15.048051834106445,15.5701322555542,24.30889129638672,26.508806228637695
0,223089,-23.88895034790039,10.835014343261719,12.914963722229004,22.293254852294922
0,223090,-12.213318824768066,-17.92900276184082,-20.487747192382812,-16.18338966369629
0,223093,5.267257213592529,-19.925674438476562,-9.69481086730957,-10.460271835327148
0,223094,11.206391334533691,-29.123790740966797,-18.603595733642578,14.454343795776367
0,223097,9.037710189819336,45.19536590576172,10.667140007019043,-4.456755638122559
0,223098,2.5270419120788574,61.00733184814453,19.68115234375,-31.501056671142578
0,223101,13.971429824829102,-3.1995010375976562,-7.131514072418213,-5.598780155181885
0,223102,-14.376845359802246,3.0066914558410645,1.7719781398773193,28.755168914794922
0,223105,-15.947896003723145,-68.70466613769531,-10.493497848510742,9.78167724609375
0,223106,8.750665664672852,-70.81639862060547,-18.526874542236328,5.752516746520996
0,223109,-18.212047576904297,81.46226501464844,4.188098430633545,6.496697425842285
0,223110,36.11542892456055,32.76715850830078,28.356979370117188,3.0317327976226807
0,223113,14.925569534301758,-50.7200813293457,-6.671111583709717,-17.19647979736328
0,223114,-68.14100646972656,13.348652839660645,-26.39826202392578,-36.399173736572266
0,223117,6.4766082763671875,5.163448333740234,27.261722564697266,14.822704315185547
0,223118,15.32813549041748,-24.818466186523438,16.64960289001465,41.83001708984375
0,223121,-29.64422035217285,9.405795097351074,-15.032230377197266,-7.168079376220703
0,223122,33.552001953125,34.232906341552734,-5.807603359222412,-36.97502899169922
0,223125,24.049402236938477,2.8508708477020264,2.8609375953674316,-7.795192718505859
0,223126,-21.583147048950195,-25.916515350341797,9.841078758239746,14.948405265808105
0,223129,-2.17404842376709,10.631657600402832,-11.630916595458984,17.369165420532227
0,223130,5.02774715423584,20.92828369140625,-4.235713481903076,-4.296781539916992
0,223133,7.598989963531494,-15.489775657653809,13.622943878173828,-25.421030044555664
0,223134,6.255354881286621,-6.018421649932861,-3.9549367427825928,7.159341812133789
0,223137,0.6107867956161499,-9.361883163452148,-4.370283603668213,37.225589752197266
0,223138,-2.892518997192383,-13.523282051086426,-2.62259578704834,-0.7358525991439819
0,223141,-26.079113006591797,25.760332107543945,4.716914176940918,-22.665861129760742
0,223142,-13.578849792480469,-10.348932266235352,-7.13230037689209,-12.069883346557617
0,223145,35.09214782714844,-13.280759811401367,3.4373371601104736,-6.644093036651611
0,223146,1.523006796836853,14.62431526184082,11.720977783203125,19.626636505126953
0,223149,-16.893762588500977,5.12180757522583,-8.545022010803223,20.445266723632812
0,223150,18.196807861328125,2.9168779850006104,12.011576652526855,20.02391815185547
0,223153,3.994572401046753,-23.07685089111328,-11.395076751708984,-17.291929244995117
0,223154,-7.030737400054932,12.90966510772705,-30.285446166992188,-45.98593521118164
0,223157,0.16538318991661072,24.013202667236328,16.3961181640625,4.926332950592041
0,223158,4.4914870262146,-4.924938201904297,20.627445220947266,12.814942359924316
0,223161,-21.45673179626465,-12.128886222839355,-8.340883255004883,21.481250762939453
0,223162,-18.79050636291504,-27.476903915405273,-13.104578018188477,4.060201168060303
0,223165,34.360557556152344,17.49029541015625,17.637653350830078,-49.162139892578125
0,223166,19.785465240478516,40.610225677490234,18.180944442749023,-5.704598903656006
0,223169,-31.819751739501953,-12.129620552062988,-20.702098846435547,51.858062744140625
0,223170,-21.9453125,-35.80733871459961,-12.085039138793945,35.95966720581055
0,223173,20.997211456298828,-9.68221378326416,-12.595636367797852,-31.74982261657715
0,223174,4.729983329772949,11.151412963867188,6.882193565368652,-42.27341842651367
0,223177,-15.491748809814453,16.43170738220215,19.447059631347656,16.14704132080078
0,223178,25.717792510986328,19.20212173461914,2.9558186531066895,6.359536647796631
0,223181,9.901080131530762,-14.683021545410156,20.219078063964844,-7.814455509185791
0,223182,-18.841249465942383,-16.22785186767578,-21.411102294921875,13.748821258544922
0,223185,-2.7371020317077637,9.878534317016602,-31.79812240600586,-8.920825004577637
0,223187,-9.007288932800293,-9.693238258361816,27.689380645751953,-11.478960990905762
0,223189,12.41317367553711,14.823383331298828,16.801219940185547,2.2028703689575195
0,223191,8.659645080566406,22.79768943786621,-23.442005157470703,-4.752403259277344
0,223195,-11.029733657836914,-28.397794723510742,1.6695003509521484,2.328599452972412
0,223195,6.186392784118652,-27.72214126586914,8.671783447265625,0.2690756618976593
0,223197,7.073267936706543,5.638722896575928,-22.766172409057617,19.270158767700195
0,223198,2.0862886905670166,32.767425537109375,13.762785911560059,33.31378936767578
0,223201,-10.434294700622559,-3.528371810913086,14.757174491882324,-5.1855902671813965
0,223202,0.35414767265319824,-22.806119918823242,-8.975409507751465,-19.521076202392578
0,223205,3.8790082931518555,38.585968017578125,10.940765380859375,-33.923519134521484
0,223206,-6.331029415130615,2.730581283569336,-7.374854564666748,-7.82688570022583
0,223209,4.9003777503967285,-34.086761474609375,-34.3526725769043,27.60570526123047
0,223210,-9.080460548400879,-4.77430534362793,-17.17666244506836,-8.911307334899902
0,223213,2.1293764114379883,-0.32161155343055725,49.646366119384766,-5.377349853515625
0,223214,16.174814224243164,3.1371102333068848,24.723976135253906,-11.337596893310547
0,223217,-19.553529739379883,1.626283884048462,-36.000091552734375,11.091371536254883
0,223218,-11.603300094604492,3.5958800315856934,6.716521739959717,49.823486328125
0,223221,25.745922088623047,-15.360312461853027,19.028470993041992,-15.209267616271973
0,223222,-11.734896659851074,4.618458271026611,-13.166792869567871,-23.976655960083008
0,223225,-17.265722274780273,33.60411834716797,-6.518133640289307,9.340995788574219
0,223226,25.958751678466797,-3.75141978263855,-0.8880358934402466,-15.524110794067383
0,223229,2.332101583480835,-22.395523071289062,-5.592116355895996,-2.9580235481262207
0,223230,-5.024909019470215,0.45211946964263916,18.57871437072754,34.02290344238281
0,223233,1.0989493131637573,12.31422233581543,7.887470722198486,-9.221233367919922
0,223234,-13.126304626464844,13.217100143432617,-26.07450294494629,-42.885032653808594
0,223237,5.642483234405518,-3.246976852416992,-2.188646078109741,29.652999877929688
0,223238,14.113112449645996,-15.19031810760498,7.903126239776611,38.6294059753418
0,223241,-9.29858112335205,3.096846342086792,-7.766739368438721,-28.988786697387695
0,223242,-1.8599871397018433,-10.551528930664062,11.3271484375,-10.621312141418457
0,223245,-1.5052307844161987,5.490462303161621,6.807474136352539,7.510575771331787
0,223246,-8.463526725769043,15.538032531738281,-8.14511489868164,-19.027729034423828
0,223249,0.8174956440925598,-19.843303680419922,-4.1126508712768555,11.907049179077148
0,223250,3.5277204513549805,0.3397398293018341,-1.836072564125061,23.22641944885254
0,223253,11.735272407531738,28.145898818969727,1.0512348413467407,-6.790610313415527
0,223254,-12.271117210388184,-11.439156532287598,5.233499526977539,-28.779626846313477
0,223257,-2.141207456588745,-22.318628311157227,4.282474040985107,-5.956756114959717
0,223258,26.303598403930664,9.512308120727539,-16.98566436767578,15.800580024719238
0,223261,-19.429685592651367,-19.841978073120117,-5.0110602378845215,-14.910622596740723
0,223262,-6.505224227905273,4.436057090759277,17.700429916381836,13.615937232971191
0,223265,34.147403717041016,20.543920516967773,-6.675405979156494,18.9017333984375
0,223266,-10.134346961975098,-11.362761497497559,7.789470195770264,-7.0881147384643555
0,223269,-10.366777420043945,17.832117080688477,25.618999481201172,5.038822650909424
0,223270,-1.0829633474349976,13.206008911132812,-8.805645942687988,-15.850189208984375
0,223273,-4.276788711547852,-17.80047035217285,-11.089784622192383,-17.00591468811035
0,223274,12.415792465209961,-8.402151107788086,-9.274550437927246,18.708274841308594
0,223277,-14.330953598022461,18.42013931274414,-17.305116653442383,25.071691513061523
0,223278,-8.803407669067383,-19.701467514038086,1.1046866178512573,-10.914468765258789
0,223281,8.587224006652832,-17.629507064819336,12.082291603088379,-24.43478775024414
0,223282,6.757575511932373,33.983516693115234,-0.22338230907917023,9.97754955291748
0,223285,1.572200059890747,-1.7930054664611816,-2.343996524810791,13.938135147094727
0,223286,-14.083580017089844,-18.447376251220703,10.880577087402344,1.2688078880310059
0,223289,5.7947282791137695,-5.2343244552612305,-2.1399340629577637,-7.176344394683838
0,223290,5.5844407081604,4.2834153175354,0.6782284379005432,-12.099838256835938
0,223293,-18.45638656616211,15.143157958984375,1.9957163333892822,-0.6373327970504761
0,223294,8.729414939880371,0.1281365007162094,-2.624497890472412,-4.517361640930176
0,223297,19.032201766967773,-14.251688957214355,7.392041206359863,5.476534366607666
0,223298,-6.909747123718262,9.384684562683105,-6.2573652267456055,9.058818817138672
0,223301,-22.77012825012207,18.364646911621094,-9.47686767578125,3.4260005950927734
0,223302,4.524918079376221,-17.37211799621582,1.5036648511886597,4.773558139801025
0,223305,30.77235984802246,-14.748088836669922,12.660307884216309,-20.964542388916016
0,223306,-19.737831115722656,8.930418968200684,5.981429576873779,5.6048054695129395
0,223309,-10.574076652526855,17.58911895751953,-14.213885307312012,18.47451400756836
0,223310,22.477588653564453,4.359614849090576,-17.127891540527344,-24.37812042236328
0,223313,-5.311459064483643,-16.331758499145508,21.817811965942383,-3.8198297023773193
0,223314,-14.819352149963379,-9.585226058959961,1.3555487394332886,21.086118698120117
0,223317,-5.599352836608887,-1.7427427768707275,-34.152259826660156,2.7842869758605957
0,223318,6.72241735458374,3.3079094886779785,18.5244197845459,-12.083797454833984
0,223321,13.026318550109863,0.938118040561676,26.61577796936035,-14.814027786254883
0,223322,11.726189613342285,0.5885841846466064,-12.822782516479492,-13.395832061767578
0,223325,-6.731140613555908,16.196073532104492,-9.754053115844727,40.12106704711914
0,223326,-27.959442138671875,-15.896915435791016,5.446596622467041,42.07914733886719
0,223329,2.0575268268585205,-33.14472579956055,6.031899452209473,-34.841651916503906
0,223330,40.035926818847656,42.39433288574219,12.986767768859863,-9.599629402160645
0,223333,-0.23471829295158386,38.83454513549805,-12.040506362915039,-17.70123863220215
0,223334,-33.25554656982422,-47.348445892333984,-17.988670349121094,-41.06528854370117
0,223337,8.231354713439941,-18.257568359375,14.617063522338867,63.643192291259766
0,223338,16.203384399414062,14.88229751586914,16.51343536376953,41.42420959472656
0,223341,-15.738883018493652,5.760807037353516,-6.593918323516846,-59.471771240234375
0,223342,3.492992401123047,12.049869537353516,-14.907074928283691,-13.29578685760498
0,223345,6.6040802001953125,7.524521827697754,1.7652320861816406,26.587203979492188
0,223346,-10.78896713256836,4.624032020568848,-5.3324995040893555,2.0096521377563477
0,223349,-3.1379776000976562,-19.64103889465332,-3.203535318374634,8.021130561828613
0,223350,-2.950082778930664,-16.84217071533203,-1.7694605588912964,3.8925623893737793
0,223353,20.509660720825195,9.837237358093262,9.861298561096191,-40.322967529296875
0,223354,1.119702935218811,15.327414512634277,19.89978790283203,-10.142725944519043
0,223357,-33.81631088256836,-2.5282821655273438,-28.73154640197754,36.149200439453125
0,223358,0.21137593686580658,-7.861724853515625,-11.676819801330566,-4.86037015914917
0,223361,24.380512237548828,-13.018715858459473,21.492441177368164,-16.014741897583008
0,223362,8.318994522094727,-8.463197708129883,7.466254234313965,10.801361083984375
0,223365,-16.643394470214844,23.337615966796875,1.295888066291809,-1.4690850973129272
0,223366,-3.6523373126983643,2.793058156967163,-14.093976020812988,-17.619644165039062
0,223369,4.0022759437561035,-15.934574127197266,-6.151182174682617,20.271686553955078
0,223370,-3.940767526626587,-5.237039566040039,12.465984344482422,35.420814514160156
0,223373,7.273688316345215,-4.27347993850708,22.521453857421875,-7.448874473571777
0,223374,-10.256640434265137,9.570486068725586,3.8405354022979736,-29.272951126098633
0,223377,5.467599868774414,25.80375099182129,-32.85313415527344,1.159326195716858
0,223379,18.99139404296875,1.159994125366211,-9.511785507202148,14.093676567077637
0,223381,-9.399337768554688,-18.297178268432617,16.448335647583008,-19.651493072509766
0,223383,2.171363353729248,17.241432189941406,-3.0988614559173584,0.03181988000869751
0,223385,-7.783143520355225,-7.774458885192871,1.8561763763427734,13.090245246887207
0,223387,2.4433434009552,-10.122111320495605,-0.9911383390426636,-35.0811653137207
0,223389,2.941286087036133,17.024551391601562,-13.134298324584961,-5.7646403312683105
0,223393,-10.506970405578613,-31.181297302246094,-0.20656268298625946,32.90134811401367
0,223393,13.379622459411621,-6.387529373168945,0.6610919237136841,-1.274364709854126
0,223395,-2.735161304473877,25.295392990112305,11.400866508483887,-2.3713653087615967
0,223397,-10.64195728302002,2.0555245876312256,17.769914627075195,27.723161697387695
0,223399,-7.188499450683594,7.402947902679443,14.757479667663574,21.800668716430664
0,223401,17.876903533935547,4.025084972381592,-23.44355010986328,-16.738290786743164
0,223403,12.42998218536377,-16.9469051361084,-21.1160945892334,-50.64823913574219
0,223405,-16.633281707763672,-8.783108711242676,21.40046501159668,-22.673051834106445
0,223407,-4.08331823348999,2.9725606441497803,-4.116304397583008,42.52669906616211
0,223409,-2.94218111038208,2.2538135051727295,13.45231819152832,40.06632614135742
0,223411,21.174394607543945,17.745548248291016,-7.72675085067749,-14.3648042678833
0,223413,13.885807037353516,-5.65817928314209,-35.06078338623047,-39.68547821044922
0,223415,-25.96961212158203,-2.350060224533081,27.95730209350586,5.207208156585693
0,223417,-27.363134384155273,-2.508476495742798,17.37946891784668,36.256282806396484
0,223419,9.2560453414917,-15.899961471557617,-23.732717514038086,-8.928701400756836
0,223421,32.54978561401367,35.33740234375,-10.771910667419434,-13.779321670532227
0,223423,-17.114009857177734,-5.994019031524658,-5.016036510467529,9.038534164428711
0,223425,-13.328770637512207,-36.96672439575195,12.81637191772461,-13.821499824523926
0,223427,21.875877380371094,6.740789890289307,25.604398727416992,-6.623777866363525
0,223429,-15.489864349365234,3.963122606277466,-21.287208557128906,12.522490501403809
0,223431,-4.389825820922852,14.813277244567871,-13.925095558166504,-2.983764171600342
0,223433,18.711803436279297,-7.195688247680664,17.098886489868164,1.8135563135147095
0,223435,-6.386983871459961,-16.259254455566406,-1.4816244840621948,18.24898338317871
0,223437,10.923623085021973,38.76866912841797,10.596674919128418,4.323914527893066
0,223439,10.354089736938477,-10.92891788482666,9.912449836730957,-18.6572265625
0,223441,-26.79633331298828,-31.37116241455078,-5.50762414932251,-17.54290771484375
0,223443,-8.665949821472168,23.470584869384766,-4.1319580078125,-8.654467582702637
0,223445,18.64870834350586,13.336050987243652,-21.42967414855957,3.2261576652526855
0,223447,1.2446811199188232,8.498371124267578,7.259228229522705,11.813603401184082
0,223449,-18.47028350830078,-16.929529190063477,23.640926361083984,10.672567367553711
0,223451,3.4007537364959717,-6.2026543617248535,-6.924045562744141,13.627326965332031
0,223453,8.855506896972656,9.607054710388184,-2.1189653873443604,-16.833595275878906
0,223455,-2.9774978160858154,-29.90557861328125,-9.822905540466309,-16.922000885009766
0,223457,16.56983757019043,-0.04571455344557762,-16.446378707885742,11.405376434326172
0,223459,-7.806540489196777,24.354549407958984,12.109257698059082,1.8177434206008911
0,223461,-20.820436477661133,-5.160106182098389,10.830148696899414,12.668960571289062
0,223463,14.183764457702637,-10.605539321899414,-12.813254356384277,4.533566951751709
0,223465,5.728065490722656,9.756864547729492,-6.946012496948242,-12.640362739562988
0,223467,-10.784899711608887,2.1099560260772705,-0.6037143468856812,13.767305374145508
0,223469,0.9186615347862244,-10.834193229675293,15.540339469909668,11.177987098693848
0,223471,7.722785472869873,7.866731643676758,12.236525535583496,-33.689064025878906
0,223473,8.294549942016602,9.096709251403809,-22.782684326171875,-33.12382125854492
0,223475,-9.942357063293457,-0.3711514174938202,5.267819881439209,23.89969253540039
0,223477,-6.179051876068115,-1.6180657148361206,15.75584602355957,13.944405555725098
0,223479,-3.4713850021362305,-8.081819534301758,-18.386720657348633,-15.245787620544434
0,223481,-11.299498558044434,-0.1290278136730194,-6.97727108001709,16.221492767333984
0,223483,19.393712997436523,9.135705947875977,10.981114387512207,37.48686599731445
0,223485,14.469507217407227,-1.015831470489502,13.571518898010254,-11.838995933532715
0,223487,-7.358641147613525,-7.5409722328186035,-6.818615913391113,-56.749603271484375
0,223489,-1.516372799873352,8.553500175476074,-21.496315002441406,-1.761496663093567
0,223491,3.1231863498687744,10.29796314239502,14.918355941772461,48.11187744140625
0,223493,-0.27907153964042664,-15.328104019165039,35.96757888793945,17.784128189086914
0,223495,-7.053670883178711,-10.09777545928955,-22.930391311645508,-41.303375244140625
0,223497,0.8071901202201843,17.203229904174805,-42.221046447753906,-3.0597147941589355
0,223499,6.3931498527526855,13.679179191589355,16.669137954711914,37.85176467895508
0,223501,-8.80111026763916,-23.633840560913086,17.822465896606445,-18.170610427856445
0,223503,-23.065723419189453,-22.668352127075195,2.3082828521728516,-14.483763694763184
0,223505,12.363787651062012,15.744832038879395,22.758411407470703,16.317441940307617
0,223507,35.631404876708984,31.64732551574707,1.5589386224746704,8.450776100158691
0,223509,-21.908458709716797,-16.804140090942383,-34.723514556884766,-2.5687062740325928
0,223511,-24.32086753845215,-32.611572265625,-22.624767303466797,-28.963088989257812
0,223513,20.016611099243164,23.91651725769043,17.128767013549805,-6.3018107414245605
0,223515,-2.2724382877349854,10.039728164672852,21.643451690673828,30.286916732788086
0,223517,-1.8639955520629883,-4.499135494232178,-9.802059173583984,-3.003302812576294
0,223519,9.804078102111816,3.026710033416748,9.278854370117188,-17.269224166870117
0,223521,-4.288029670715332,-25.434001922607422,1.9370836019515991,-1.241692304611206
0,223523,3.0030081272125244,15.234794616699219,-34.438941955566406,17.174766540527344
0,223525,12.823902130126953,42.989013671875,17.09105110168457,1.926938772201538
0,223527,-4.642795562744141,-31.613183975219727,21.556407928466797,-23.827104568481445
0,223529,-23.65692901611328,-19.640594482421875,-23.7974853515625,24.26834487915039
0,223531,4.491311073303223,30.602018356323242,-4.167341232299805,4.575912952423096
0,223533,11.433655738830566,-11.903417587280273,2.879812240600586,-38.967933654785156
0,223535,3.8057146072387695,-22.56428337097168,12.18034839630127,27.41537857055664
0,223537,4.355196475982666,20.773042678833008,18.26793670654297,17.361305236816406
0,223539,3.712820291519165,12.692597389221191,-18.832021713256836,-19.463130950927734
0,223541,-13.706831932067871,-14.393988609313965,-11.102219581604004,3.967957019805908
0,223543,-19.323484420776367,-3.0425963401794434,9.95153522491455,-9.330949783325195
0,223545,22.87546730041504,-12.90360164642334,-12.889723777770996,-4.970399856567383
0,223547,4.251953125,-0.2976621091365814,-18.660810470581055,27.45200538635254
0,223549,-20.41397476196289,26.090871810913086,18.60791778564453,1.132804274559021
0,223551,2.1522836685180664,-1.1912058591842651,42.682655334472656,-27.43934440612793
0,223553,5.120824813842773,-15.122809410095215,-4.706563949584961,7.166457176208496
0,223555,4.903901100158691,11.184364318847656,-44.094974517822266,12.257512092590332
0,223557,-8.004983901977539,-10.010915756225586,-14.150554656982422,3.853628396987915
0,223559,0.37300974130630493,-16.40424156188965,22.502676010131836,-1.7529140710830688
0,223561,14.421038627624512,29.78727149963379,36.23367691040039,-3.6212470531463623
0,223563,4.583049774169922,-6.74005126953125,-3.9718310832977295,-20.296627044677734
0,223564,3.327366828918457,-27.206422805786133,-31.82712173461914,-16.249696731567383
0,223567,-21.73614501953125,9.041997909545898,9.51634693145752,41.94223403930664
0,223568,-4.3953633308410645,19.237171173095703,13.93714427947998,23.089527130126953
0,223571,18.6343936920166,12.322152137756348,-8.06928539276123,-33.623287200927734
0,223572,-12.06460952758789,-8.495564460754395,3.696470260620117,-17.599557876586914
0,223575,7.184332847595215,-5.530619144439697,-2.102241277694702,21.26506233215332
0,223576,16.199951171875,13.241803169250488,-9.996138572692871,5.587923049926758
0,223579,-7.322248935699463,4.703697204589844,-7.079510688781738,-15.53324031829834
0,223580,-25.088775634765625,-30.753175735473633,-8.79005241394043,10.603156089782715
0,223583,-14.744855880737305,-14.202554702758789,13.128032684326172,7.173563003540039
0,223584,31.667970657348633,36.59706115722656,7.89149284362793,-30.83381462097168
0,223587,8.15914535522461,13.623618125915527,1.223142147064209,12.113450050354004
0,223588,-7.361967086791992,-24.66512680053711,-9.794144630432129,13.853938102722168
0,223591,-1.384780764579773,-4.799468040466309,-16.989030838012695,-19.82144546508789
0,223592,-13.762988090515137,8.734335899353027,24.125524520874023,19.410884857177734
0,223595,8.592974662780762,-9.683631896972656,-9.117121696472168,-15.42417049407959
0,223596,-4.779984951019287,-6.34224796295166,-11.714754104614258,-11.563812255859375
0,223599,-10.311383247375488,0.36881446838378906,24.182559967041016,46.86564636230469
0,223600,27.9859676361084,8.011300086975098,4.6124467849731445,-6.558034420013428
1,223604,-2.058814287185669,1.5721158981323242,-14.964410781860352,-53.47673034667969
1,223605,-24.598596572875977,-15.348923683166504,-17.976736068725586,-13.196098327636719
1,223606,17.46938133239746,5.608532905578613,19.118247985839844,33.17560958862305
1,223609,10.533120155334473,10.828303337097168,21.347347259521484,23.310853958129883
1,223610,-13.714832305908203,-6.485610485076904,-8.7935791015625,8.622882843017578
1,223613,-1.545759677886963,-8.36000919342041,-8.41185474395752,-8.112870216369629
1,223614,10.842036247253418,17.021072387695312,2.2125227451324463,-35.34790802001953
1,223617,0.727104663848877,3.244745969772339,-5.868101596832275,12.625823020935059
1,223618,-6.498867511749268,-14.537344932556152,7.031931400299072,35.76748275756836
1,223621,9.784127235412598,18.348814010620117,8.366823196411133,-26.520217895507812
1,223622,-1.3937618732452393,16.434043884277344,-7.903195381164551,-23.163740158081055
1,223625,-25.031368255615234,-3.741591453552246,4.994480609893799,32.734535217285156
1,223626,9.653042793273926,-23.13982582092285,1.732077717781067,21.911882400512695
1,223629,18.45366096496582,-7.973027229309082,-10.355013847351074,-34.440887451171875
1,223630,-21.82646942138672,4.977837085723877,-12.568103790283203,-24.893468856811523
1,223633,-5.469358921051025,-1.484456181526184,6.02507209777832,28.5650577545166
1,223634,23.24461555480957,1.7554984092712402,13.93604564666748,7.549591064453125
1,223637,-2.5276143550872803,-11.586906433105469,-10.596081733703613,-3.668891668319702
1,223638,-26.003028869628906,10.984997749328613,-17.965240478515625,18.986116409301758
1,223641,3.9607040882110596,25.010791778564453,13.022385597229004,-12.081277847290039
1,223642,23.92787742614746,-5.148852348327637,26.529436111450195,-15.776786804199219
1,223645,-12.439179420471191,-19.51854133605957,-16.16061782836914,-5.240363597869873
1,223646,-20.003582000732422,-3.311138153076172,-21.802581787109375,8.488571166992188
1,223649,26.531476974487305,16.443849563598633,19.037260055541992,7.216714859008789
1,223789,8.611618041992188,-4.652157306671143,1.8328702449798584,-3.4674742221832275
1,223791,-12.043354988098145,-4.152200222015381,-6.204151630401611,27.24864959716797
1,223793,7.6794538497924805,11.744303703308105,15.186344146728516,-17.247121810913086
1,223794,-13.853750228881836,-16.653594970703125,-0.777410089969635,-26.14583969116211
1,223797,-11.669615745544434,15.897350311279297,1.5496630668640137,4.558984756469727
1,223798,20.28681182861328,2.3434109687805176,-6.6536173820495605,3.803058385848999
1,223801,23.66729736328125,-27.482906341552734,-12.086252212524414,15.698018074035645
1,223802,-4.853121757507324,16.863433837890625,6.295254230499268,-1.326600193977356
1,223805,-11.663535118103027,-11.797356605529785,-8.916523933410645,-6.535793781280518
1,223806,-9.958349227905273,-19.299579620361328,-0.9137815833091736,-16.041484832763672
1,223809,-7.132953643798828,19.428640365600586,12.267586708068848,17.448476791381836
1,223810,11.148774147033691,17.431020736694336,-3.046041965484619,20.991744995117188
1,223813,-5.0270514488220215,-3.4557383060455322,11.487360000610352,-40.13468933105469
1,223814,-5.288293838500977,-6.063546180725098,-3.477318286895752,-19.203609466552734
1,223817,4.598580837249756,-2.5203986167907715,-23.294605255126953,29.482093811035156
1,223818,-8.076263427734375,-6.560852527618408,13.65777587890625,32.31901550292969
1,223821,10.417373657226562,-5.132500171661377,10.78284740447998,-9.031392097473145
1,223822,10.13996696472168,19.435108184814453,-17.474632263183594,-31.437549591064453
1,223825,-11.394113540649414,3.8479535579681396,8.542641639709473,16.925710678100586
1,223826,9.489336967468262,-7.12961483001709,13.075688362121582,21.412803649902344
1,223831,10.909408569335938,17.914525985717773,0.21667598187923431,-30.395689010620117
1,223831,-4.7279229164123535,-19.320653915405273,2.27978515625,-6.0388264656066895
1,223832,-13.181721687316895,-9.759888648986816,-14.616095542907715,29.861928939819336
1,223835,-21.48312759399414,13.956128120422363,3.856843948364258,-11.647954940795898
1,223836,11.511133193969727,-12.180527687072754,-6.978174209594727,-20.226757049560547
1,223839,17.005563735961914,0.8116949200630188,-15.044050216674805,18.39299774169922
1,223840,-8.613245964050293,16.630294799804688,14.865184783935547,-5.248344421386719
1,223843,-12.035419464111328,1.805732011795044,11.983255386352539,0.1660505086183548
1,223844,-5.8733015060424805,-12.069488525390625,-9.346108436584473,10.164252281188965
1,223847,16.527305603027344,3.7898170948028564,-21.283981323242188,-16.118864059448242
1,223848,9.012322425842285,21.6648006439209,14.175055503845215,21.507850646972656
1,223851,-12.690659523010254,-7.091433048248291,13.871813774108887,-12.170222282409668
1,223852,13.124940872192383,-33.664085388183594,-28.557098388671875,-46.90174865722656
1,223855,12.91012954711914,3.6862683296203613,-1.694420576095581,28.386507034301758
1,223856,-24.10093116760254,23.398164749145508,45.910037994384766,40.77279281616211
1,223859,-11.320662498474121,-17.082006454467773,6.189819812774658,-1.7662484645843506
1,223860,25.75594711303711,2.931450366973877,-30.699796676635742,-6.2562665939331055
1,223863,-5.106893062591553,-2.398883104324341,4.422974586486816,-19.168134689331055
1,223864,-24.886228561401367,-25.12894630432129,15.19878101348877,-3.5585179328918457
1,223867,24.00775146484375,16.322582244873047,-6.700817584991455,15.73324203491211
1,223868,-0.4947529733181,5.9933929443359375,-7.0540032386779785,-12.707976341247559
1,223871,-24.119213104248047,9.917659759521484,-2.8289387226104736,3.2295429706573486
1,223872,16.325225830078125,14.547607421875,-18.496780395507812,2.690772771835327
1,223875,21.035646438598633,-16.37352180480957,8.49631118774414,-2.5720744132995605
1,223876,-1.0452181100845337,2.28725266456604,21.714929580688477,8.793724060058594
1,223879,-21.51173210144043,17.71842384338379,-26.92975425720215,-2.348635196685791
1,223880,-7.025915622711182,-14.774190902709961,3.6578760147094727,-1.6667653322219849
1,223883,22.426576614379883,-18.06533432006836,38.80418395996094,-10.560079574584961
1,223884,2.8028597831726074,12.316462516784668,-5.280610084533691,7.747928142547607
1,223887,-20.12358856201172,18.65033531188965,-23.6297607421875,10.084748268127441
1,223888,-2.9996681213378906,0.26212477684020996,-4.134833812713623,-17.80577850341797
1,223891,4.777838230133057,-18.618505477905273,19.195661544799805,-4.853892803192139
1,223892,4.515810966491699,-7.077543258666992,-12.332131385803223,2.8306939601898193
1,223895,9.615123748779297,-5.98868465423584,-22.740997314453125,-1.8584493398666382
1,223896,-7.624293804168701,2.334768772125244,21.165088653564453,7.377410888671875
1,223899,-7.008430004119873,15.613536834716797,2.2867140769958496,0.9857649207115173
1,223900,3.10892915725708,-2.206564426422119,-22.34635353088379,2.8568055629730225
1,223903,-5.255764484405518,7.370733261108398,10.514263153076172,1.351422905921936
1,223904,13.782365798950195,5.357702732086182,27.094478607177734,-3.1568987369537354
1,223907,13.019015312194824,-12.532970428466797,-18.522785186767578,13.218300819396973
1,223908,-14.868680953979492,-4.366498947143555,-10.850320816040039,-4.583956718444824
1,223911,-8.684289932250977,5.795499801635742,9.48537540435791,-9.137282371520996
1,223912,7.488370895385742,-7.444797992706299,-9.58012866973877,6.3343377113342285
1,223915,-12.296342849731445,-17.538732528686523,10.147211074829102,-2.7117233276367188
1,223916,0.5446016192436218,13.910979270935059,11.165590286254883,-25.315706253051758
1,223919,20.679664611816406,20.450393676757812,6.2774858474731445,9.753653526306152
1,223920,-8.344930648803711,-15.703458786010742,-13.231603622436523,29.099233627319336
1,223923,-3.8440186977386475,2.4021918773651123,-29.241580963134766,-25.434480667114258
1,223924,0.5540803074836731,18.228687286376953,19.228458404541016,8.517400741577148
1,223927,3.5069825649261475,-1.9268481731414795,43.152530670166016,22.122243881225586
1,223928,-6.993675708770752,8.030403137207031,-28.5665283203125,-11.212615966796875
1,223931,-11.360230445861816,-24.22332763671875,-30.820905685424805,2.3536617755889893
1,223932,26.478069305419922,-27.84147834777832,36.7320442199707,-25.28969383239746
1,223934,-1.3880646228790283,27.441789627075195,4.372387409210205,-8.208429336547852
1,223937,-26.987102508544922,13.290691375732422,-22.790414810180664,20.431074142456055
1,223938,18.72597312927246,-3.289497137069702,8.849014282226562,-7.5596184730529785
1,223941,6.117579936981201,-18.671043395996094,17.20587730407715,4.610788822174072
1,223942,-19.86130714416504,-20.5776424407959,-31.53432273864746,-6.869683742523193
1,223945,1.989902138710022,30.066343307495117,-21.074054718017578,2.3805503845214844
1,223946,0.719680905342102,-7.47471284866333,26.18214225769043,28.365171432495117
1,223949,16.677488327026367,-23.816022872924805,12.990326881408691,-18.852554321289062
1,223950,-4.270480155944824,44.84125900268555,9.6321439743042,-10.932561874389648
1,223953,-10.89161491394043,7.100029945373535,-8.538031578063965,13.601332664489746
1,223954,9.786067962646484,-35.901344299316406,-28.400053024291992,-11.85619068145752
1,223957,-13.954885482788086,14.538898468017578,4.7813720703125,9.11369800567627
1,223958,14.141160011291504,17.672576904296875,24.620325088500977,16.739543914794922
1,223961,7.833594799041748,-22.459701538085938,-12.645997047424316,-15.395519256591797
1,223962,-14.255385398864746,3.067617416381836,-9.16124153137207,-5.095402717590332
1,223965,14.653770446777344,19.404191970825195,10.811697959899902,-6.009256839752197
1,223966,-0.8454587459564209,-29.84357452392578,5.200282096862793,-11.15502643585205
1,223969,-10.562443733215332,-2.184692144393921,8.594223022460938,33.986778259277344
1,223970,13.736623764038086,43.886287689208984,-19.678871154785156,26.395122528076172
1,223973,-5.0131425857543945,-9.196765899658203,2.7642762660980225,-28.188140869140625
1,223974,-1.4987825155258179,-21.478498458862305,32.61008834838867,-24.5465145111084
1,223977,2.982438564300537,-0.4686071574687958,-7.5313334465026855,13.47217845916748
1,223978,-22.42931365966797,-4.071963310241699,-1.3849061727523804,12.020715713500977
1,223981,9.195950508117676,9.249978065490723,-4.92047643661499,-14.29753589630127
1,223982,1.3000457286834717,5.793994426727295,-21.031129837036133,-8.91309642791748
1,223985,-8.430294036865234,4.726474285125732,0.06475552171468735,12.176857948303223
1,223986,21.929357528686523,-1.9315096139907837,5.534752368927002,11.346985816955566
1,223989,2.8396196365356445,-23.842153549194336,4.184405326843262,-15.759638786315918
1,223990,-23.03034782409668,-9.359469413757324,-9.853437423706055,-9.684832572937012
1,223993,-18.601402282714844,9.613428115844727,-16.206438064575195,-7.015581130981445
1,223994,13.996858596801758,13.596291542053223,15.199772834777832,-7.913834095001221
1,223997,22.428739547729492,8.13983154296875,11.076031684875488,29.36077117919922
1,223998,-4.913963317871094,0.5064292550086975,-21.535953521728516,0.4889270067214966
1,224001,-2.80971622467041,6.238106727600098,4.311894416809082,-8.05728530883789
1,224002,9.108194351196289,-12.505799293518066,10.502123832702637,17.14805030822754
1,224005,-16.3411922454834,-21.215614318847656,10.111167907714844,-22.799243927001953
1,224006,-14.13940143585205,-4.130463123321533,3.679414987564087,-9.693795204162598
1,224009,21.17310333251953,14.818853378295898,-16.64971160888672,39.93829345703125
1,224010,16.358341217041016,14.97696590423584,0.1594683825969696,-1.6026325225830078
1,224013,-9.583478927612305,-7.310123920440674,6.483243942260742,-17.86457061767578
1,224014,-4.57994270324707,16.3575439453125,19.772092819213867,18.55947494506836
1,224017,11.788512229919434,4.799286365509033,1.3235161304473877,0.6907259821891785
1,224018,1.5531859397888184,-47.29067611694336,-30.870079040527344,-20.736927032470703
1,224021,-7.190787315368652,7.420901775360107,1.7481095790863037,-29.21013832092285
1,224022,-6.415886402130127,24.113534927368164,7.901054859161377,-3.3215835094451904
1,224025,-10.047364234924316,-15.40442180633545,-8.483541488647461,22.334455490112305
1,224026,-7.480988025665283,5.443615436553955,23.038511276245117,12.722940444946289
1,224029,-0.7257781028747559,3.6040055751800537,-3.0598092079162598,-1.2455949783325195
1,224030,14.826988220214844,-17.796066284179688,-9.365169525146484,2.9731616973876953
1,224033,8.03355598449707,-7.674875736236572,9.90342903137207,16.776155471801758
1,224035,-10.640105247497559,44.80976104736328,-23.899084091186523,-3.4113805294036865
1,224037,-13.17507553100586,1.4530601501464844,-1.126761794090271,-9.139806747436523
1,224039,1.8389217853546143,-57.675479888916016,13.346126556396484,3.6572632789611816
1,224041,19.43735122680664,33.786338806152344,1.7356547117233276,1.1996665000915527
1,224043,-2.953989028930664,30.42401695251465,-4.89077615737915,-16.48122215270996
1,224045,-6.534072399139404,-21.490541458129883,-11.952594757080078,-16.244277954101562
1,224047,5.313305854797363,11.27672290802002,14.926473617553711,9.344769477844238
1,224049,9.917577743530273,-17.597965240478516,9.91565990447998,9.164271354675293
1,224051,7.03566837310791,-8.84785270690918,-17.94921112060547,5.51198673248291
1,224053,-33.77247619628906,36.63916015625,15.653874397277832,14.04123592376709
1,224056,-14.724254608154297,-23.393136978149414,18.64429473876953,-11.816658020019531
1,224057,43.79667282104492,-23.4350528717041,-31.229087829589844,-15.739792823791504
1,224058,-0.5212768316268921,18.23043441772461,-1.1406502723693848,27.409223556518555
1,224061,-22.232160568237305,-10.698945999145508,28.894018173217773,-0.12504930794239044
1,224062,17.529542922973633,9.341723442077637,-15.34825611114502,-32.328800201416016
1,224065,-7.556029319763184,8.503519058227539,-21.59203338623047,20.766199111938477
1,224066,3.255638837814331,-7.477051258087158,6.211502552032471,-0.1540643572807312
1,224069,7.416449069976807,11.118234634399414,17.298742294311523,-21.349863052368164
1,224070,-21.113664627075195,-7.570613384246826,7.577509880065918,14.338077545166016
1,224073,11.388458251953125,-12.446574211120605,-27.288219451904297,-11.775290489196777
1,224074,-0.47346436977386475,20.38396453857422,-13.633520126342773,-12.619386672973633
1,224077,6.092972278594971,8.661097526550293,36.47407150268555,12.192351341247559
1,224078,20.236051559448242,-11.207188606262207,2.453585147857666,15.726758003234863
1,224081,-33.93850326538086,-3.13594913482666,-19.989858627319336,20.972440719604492
1,224082,-10.845893859863281,-15.358464241027832,10.619723320007324,-15.74545669555664
1,224085,20.140226364135742,0.7860960960388184,-4.471640586853027,-34.0551872253418
1,224086,-13.568937301635742,7.922418594360352,-7.690186023712158,22.014591217041016
1,224089,-5.778298854827881,1.733669638633728,-4.111636161804199,18.28789710998535
1,224090,13.588488578796387,3.1770853996276855,-10.864885330200195,-11.119199752807617
1,224093,6.202714443206787,0.43656760454177856,20.398025512695312,-8.61605167388916
1,224094,-0.05517805740237236,13.02512264251709,17.44115447998047,1.447413444519043
1,224097,-4.105803966522217,-15.217524528503418,-14.054627418518066,27.972759246826172
1,224098,7.280009746551514,-14.87861442565918,-4.955165386199951,-2.3197619915008545
1,224101,12.069225311279297,28.07801628112793,6.4095072746276855,-27.28622055053711
1,224102,2.9943909645080566,-2.104241132736206,1.4514261484146118,-2.995380163192749
1,224105,-19.563735961914062,-39.447593688964844,-6.9013190269470215,-1.5057111978530884
1,224106,-15.310209274291992,13.33614444732666,9.046573638916016,17.50823974609375
1,224109,23.973283767700195,29.217443466186523,-1.895145297050476,11.877720832824707
1,224110,8.230205535888672,-26.353944778442383,-18.482030868530273,-24.564971923828125
1,224113,-17.016979217529297,4.005946636199951,-0.8425834774971008,-9.27990436553955
1,224114,-14.295647621154785,14.460143089294434,5.423822402954102,1.3763974905014038
1,224117,0.41795748472213745,-15.642505645751953,4.373773097991943,1.5466059446334839
1,224118,17.119483947753906,9.739831924438477,12.814112663269043,25.371112823486328
1,224121,-3.392932653427124,8.222684860229492,23.80554962158203,11.796822547912598
1,224122,-5.697941780090332,-15.542304992675781,-11.367524147033691,-50.112857818603516
1,224125,10.597827911376953,-5.10574197769165,-22.881389617919922,-1.528050422668457
1,224126,-7.679081916809082,22.595521926879883,-2.21024751663208,55.564659118652344
1,224129,-5.674739837646484,0.9220889806747437,3.1829726696014404,-14.262102127075195
1,224130,10.799604415893555,-23.00872230529785,18.67447853088379,-12.769831657409668
1,224133,2.840050220489502,15.054850578308105,9.22604751586914,20.01372718811035
1,224134,4.992890357971191,28.678953170776367,-27.961761474609375,-26.570392608642578
1,224137,-9.791844367980957,-26.521129608154297,-27.080554962158203,-16.452320098876953
1,224138,-17.878171920776367,-29.702360153198242,20.047557830810547,33.23987579345703
1,224141,1.0550837516784668,18.0302791595459,11.505967140197754,0.8593400120735168
1,224142,9.512543678283691,18.30081558227539,-17.020774841308594,-12.092008590698242
1,224145,1.4462696313858032,-5.424664497375488,8.25637149810791,7.601131439208984
1,224146,-11.93413257598877,-8.678311347961426,15.836816787719727,-6.851452827453613
1,224149,16.57022476196289,-0.47378620505332947,-5.90138053894043,-10.762674331665039
1,224150,8.714401245117188,0.06392517685890198,-12.580848693847656,-17.84746551513672
1,224153,-9.533164024353027,7.379610061645508,-1.4058486223220825,4.824169158935547
1,224154,-2.6943178176879883,-6.957897663116455,3.6707074642181396,26.25533103942871
1,224157,-4.2395148277282715,-23.39745330810547,-8.13161849975586,1.5250953435897827
1,224158,16.789268493652344,21.777679443359375,10.457245826721191,4.351797103881836
1,224161,2.0873863697052,14.088088035583496,12.34936237335205,5.675597190856934
1,224162,-3.4909377098083496,-32.386322021484375,-17.502643585205078,-34.78473663330078
1,224165,-6.960749626159668,5.194681644439697,4.046947002410889,-9.635552406311035
1,224167,-11.47377872467041,13.09089183807373,19.342485427856445,42.38624572753906
1,224169,17.388282775878906,-0.6838609576225281,-0.30584099888801575,0.9862709641456604
1,224171,2.0561447143554688,9.193065643310547,-12.735784530639648,-10.889328002929688
1,224173,-6.658691883087158,1.5760318040847778,-16.20893096923828,0.2736890912055969
1,224175,14.699195861816406,-5.026327610015869,15.472043991088867,-2.596506357192993
1,224177,-4.002662181854248,-0.910982608795166,27.92073631286621,11.707544326782227
1,224179,-19.726106643676758,13.098572731018066,-28.741125106811523,-22.969327926635742
1,224181,-3.3511910438537598,-4.123833656311035,-13.006354331970215,-4.424415111541748
1,224183,19.250228881835938,-14.393258094787598,24.75029182434082,27.407766342163086
1,224185,12.058570861816406,5.760003089904785,-21.911128997802734,-8.912611961364746
1,224187,-38.185791015625,3.794299602508545,-16.088132858276367,1.4668290615081787
1,224190,-9.345129013061523,-7.4190897941589355,29.636432647705078,6.863785743713379
1,224191,24.534650802612305,2.4337494373321533,12.499544143676758,-26.3596134185791
1,224193,1.1795048713684082,4.902292251586914,-24.53263282775879,-11.451706886291504
1,224195,3.813502073287964,-15.287322998046875,-12.959246635437012,6.520527362823486
1,224197,-8.128735542297363,1.2633836269378662,19.325531005859375,15.295400619506836
1,224199,-7.346134662628174,7.701032638549805,15.881418228149414,21.484052658081055
1,224201,12.006499290466309,-1.887532353401184,10.140315055847168,-13.534028053283691
1,224203,3.775949239730835,26.93453025817871,-11.23537826538086,-11.888216972351074
1,224205,4.911927700042725,-1.5225719213485718,-32.70444107055664,4.839599132537842
1,224207,14.120564460754395,-29.783607482910156,14.886781692504883,11.888915061950684
1,224209,-23.84027099609375,-4.109920024871826,20.29064178466797,8.945684432983398
1,224211,-16.853776931762695,4.320699214935303,-22.29629135131836,-23.48685646057129
1,224213,20.634170532226562,-3.586512804031372,-7.294848918914795,-0.26456549763679504
1,224215,-3.959257125854492,-15.450684547424316,16.365867614746094,17.94807243347168
1,224217,-1.5526074171066284,13.253472328186035,9.741972923278809,-7.527820110321045
1,224219,7.907679557800293,23.596933364868164,-10.600107192993164,12.062233924865723
1,224221,-22.817081451416016,-23.76950454711914,-20.26163673400879,-6.857174396514893
1,224223,1.5101758241653442,9.497742652893066,23.319339752197266,-22.25762939453125
1,224225,73.79937744140625,36.82795715332031,20.329648971557617,11.807157516479492
1,224227,29.49283218383789,9.312729835510254,-40.52141571044922,0.9924906492233276
1,224229,-120.71617126464844,-17.147462844848633,4.3218584060668945,1.550124168395996
1,224231,-94.37547302246094,-111.619140625,27.182344436645508,-6.298258304595947
1,224233,40.059898376464844,30.342771530151367,-31.37847137451172,-25.322124481201172
1,224235,38.4449577331543,181.28077697753906,-6.191655158996582,-1.9397594928741455
1,224237,97.5547103881836,-129.30824279785156,32.18046569824219,58.946659088134766
1,224239,76.98475646972656,-93.71258544921875,-0.4114707112312317,17.432262420654297
1,224241,-111.07315826416016,137.94119262695312,-25.65645408630371,-66.73567199707031
1,224243,-63.781246185302734,-51.276084899902344,11.454946517944336,-3.3797101974487305
1,224245,49.42818832397461,-18.979278564453125,24.051164627075195,29.053897857666016
1,224247,32.716670989990234,39.61626052856445,-21.223115921020508,1.0689777135849
1,224249,13.120795249938965,5.780205726623535,1.4119361639022827,20.52403450012207
1,224251,22.166927337646484,72.45753479003906,14.061681747436523,6.157888889312744
1,224253,-5.784541130065918,-16.994070053100586,-3.488111972808838,-42.06431579589844
1,224255,-76.92288208007812,-42.1015739440918,1.120255947113037,-19.29445457458496
1,224257,-80.14942932128906,-34.29270553588867,-30.921674728393555,21.697263717651367
1,224259,12.782617568969727,-164.69802856445312,-11.517485618591309,26.506452560424805
1,224261,74.12451934814453,35.972496032714844,41.30453109741211,6.740907669067383
1,224263,29.362483978271484,145.12100219726562,-2.6917173862457275,-36.547786712646484
1,224265,3.7774100303649902,-77.92605590820312,-21.759105682373047,-1.7039377689361572
1,224267,-21.273523330688477,56.89847946166992,28.36322021484375,32.17207336425781
1,224269,-16.2099666595459,95.50958251953125,3.4776451587677,-15.861600875854492
1,224271,30.47482681274414,-44.091556549072266,-9.43720531463623,-25.33645248413086
1,224273,7.328865051269531,-33.752349853515625,-11.787421226501465,4.378063678741455
1,224275,-6.372514724731445,6.2890119552612305,0.4234158396720886,3.2310149669647217
1,224277,4.680440425872803,40.57140350341797,31.33512306213379,11.89614486694336
1,224279,-21.260934829711914,-6.345607280731201,-29.774049758911133,17.68844223022461
1,224281,-28.13567543029785,-19.82973289489746,-23.491579055786133,-19.380937576293945
1,224283,1.8115594387054443,11.609570503234863,18.82505226135254,-14.611942291259766
1,224285,10.413765907287598,-20.46516227722168,-5.293772220611572,27.634624481201172
1,224287,4.344928741455078,-56.85597610473633,2.971914291381836,22.697595596313477
1,224289,7.097361087799072,-13.159521102905273,17.1926212310791,-11.344578742980957
1,224291,3.59298038482666,21.23097038269043,-6.70399808883667,-32.08784484863281
1,224293,8.413504600524902,-2.2826390266418457,-10.137677192687988,9.860844612121582
1,224295,5.654162883758545,15.921683311462402,14.834837913513184,31.051050186157227
1,224297,-20.271747589111328,34.05844497680664,12.579934120178223,-20.661148071289062
1,224299,-7.664238452911377,-0.11905699968338013,8.2145357131958,-24.715404510498047
1,224300,14.681154251098633,1.4439324140548706,-23.48975944519043,6.6632466316223145
1,224303,-20.92460060119629,11.452839851379395,-20.8568058013916,1.1484577655792236
1,224304,-10.896099090576172,-26.70313835144043,30.92810821533203,-10.359457015991211
1,224307,26.136064529418945,-22.88668441772461,11.308947563171387,29.59889030456543
1,224308,9.974339485168457,-0.4392470419406891,-22.75844955444336,18.932498931884766
1,224311,9.749881744384766,2.5577127933502197,-10.210021018981934,-42.030723571777344
1,224312,-3.732100486755371,10.58931827545166,-0.6575540900230408,-23.055082321166992
1,224315,-3.182584285736084,-0.6979736089706421,2.228367328643799,42.33820343017578
1,224316,0.840211808681488,1.5420358180999756,-4.858395576477051,24.550107955932617
1,224319,-6.496042251586914,6.575128078460693,-5.735260963439941,-33.81782150268555
1,224320,-0.40598928928375244,2.018969774246216,6.5422821044921875,-14.816659927368164
1,224323,-15.042922019958496,13.20007610321045,4.435944557189941,14.022401809692383
1,224324,5.666786193847656,-2.1972978115081787,-2.2334060668945312,4.871936798095703
1,224327,17.495168685913086,-3.8381731510162354,3.8151187896728516,1.2233659029006958
1,224328,-10.414946556091309,-1.8347982168197632,7.294190406799316,8.280145645141602
1,224331,-4.4922709465026855,-35.75543212890625,-17.68971824645996,-10.63430118560791
1,224332,8.095780372619629,-15.113847732543945,1.9703623056411743,-2.0075855255126953
1,224335,-10.532673835754395,23.50356101989746,17.05801010131836,2.5537025928497314
1,224336,6.482892036437988,30.891178131103516,7.065163612365723,-23.161954879760742
1,224339,19.33256721496582,10.92264461517334,12.797675132751465,28.940845489501953
1,224341,-14.746586799621582,-10.124821662902832,-27.107454299926758,15.27080249786377
1,224343,-3.4675960540771484,-1.4550095796585083,-22.711997985839844,-44.735164642333984
1,224345,7.600179672241211,-7.888208866119385,34.398887634277344,15.95991039276123
1,224347,-6.64858865737915,-9.95507526397705,12.556663513183594,29.260162353515625
1,224349,-10.0472412109375,-3.305319309234619,-15.249104499816895,-19.641048431396484
1,224351,-8.968645095825195,-12.500329971313477,3.346353530883789,-20.431434631347656
1,224353,16.837690353393555,13.37637996673584,-9.67383861541748,-1.570613145828247
1,224355,8.734039306640625,26.097881317138672,-6.992774486541748,20.25458335876465
1,224357,1.8819376230239868,-10.502266883850098,10.459697723388672,2.8288960456848145
1,224359,9.341922760009766,-16.5992374420166,-5.9877848625183105,-9.1759033203125
1,224361,-10.328947067260742,20.292015075683594,5.09943151473999,3.057119607925415
1,224363,-45.17604446411133,-50.6625862121582,3.418170928955078,-2.8372485637664795
1,224365,-30.66255760192871,-49.63166809082031,-6.321690559387207,8.321036338806152
1,224367,51.147003173828125,137.23377990722656,7.301487445831299,-5.0298686027526855
1,224369,40.99551773071289,26.865163803100586,-1.1041014194488525,9.051688194274902
1,224371,-13.944050788879395,-99.98458099365234,-6.5701003074646,26.167898178100586
1,224373,11.623109817504883,34.02745056152344,2.686633348464966,-23.823766708374023
1,224375,20.26521873474121,79.6322250366211,10.234603881835938,-23.02483367919922
1,224377,-27.523603439331055,23.03528594970703,-6.055598258972168,24.106674194335938
1,224379,-49.86251449584961,-281.7612609863281,-22.954694747924805,2.9981818199157715
1,224381,-29.9470157623291,-135.308837890625,10.150860786437988,-19.68819808959961
1,224383,36.176734924316406,337.7683410644531,6.394495487213135,3.4696433544158936
1,224385,81.52559661865234,54.13168716430664,-27.816682815551758,-4.582040309906006
1,224387,4.011354923248291,-79.11174011230469,25.06162452697754,-10.133905410766602
1,224389,-71.42168426513672,124.93285369873047,17.204736709594727,3.7813990116119385
1,224391,-24.50642967224121,-62.84110641479492,-12.59276294708252,24.390363693237305
1,224393,48.90140914916992,-64.23780059814453,20.444313049316406,4.674864768981934
1,224395,20.88289451599121,26.574115753173828,-17.2370548248291,-26.70610809326172
1,224397,-57.73881912231445,-64.34768676757812,-13.642840385437012,0.5014931559562683
1,224399,-24.832326889038086,57.52310562133789,-2.3691866397857666,2.554741382598877
1,224401,27.585519790649414,54.10435485839844,-28.06170654296875,-9.834413528442383
1,224403,58.49970245361328,-91.5407485961914,26.9138240814209,40.46403121948242
1,224405,37.95191192626953,0.055974844843149185,27.57851791381836,19.22408103942871
1,224407,-50.0367431640625,64.0575180053711,-0.5058028697967529,-43.324676513671875
1,224409,-46.932106018066406,-60.47046661376953,5.187616348266602,-6.911284923553467
1,224411,-20.649133682250977,-169.25399780273438,-18.711898803710938,-9.479791641235352
1,224413,-4.3727498054504395,-2.8792905807495117,-4.142432689666748,-3.5097405910491943
1,224415,39.52458190917969,223.87542724609375,17.32037353515625,41.310882568359375
1,224417,68.23491668701172,55.80681228637695,-2.8998501300811768,9.798982620239258
1,224419,24.60129737854004,-111.7254638671875,-5.327617645263672,-12.591972351074219
1,224421,-59.50132751464844,7.085327625274658,3.3858680725097656,-31.134641647338867
1,224423,-70.20988464355469,62.86555862426758,3.7708568572998047,-9.486736297607422
1,224425,-11.13930892944336,-90.52383422851562,-3.212873935699463,33.725006103515625
1,224427,7.921494960784912,156.11656188964844,-51.965606689453125,-2.54034423828125
1,224429,3.5277204513549805,124.5586166381836,-7.900604248046875,-7.496394157409668
1,224431,61.91975021362305,-398.61700439453125,53.51422882080078,16.57241439819336
1,224433,38.560726165771484,-2.031632423400879,1.455684781074524,-3.288666009902954
1,224435,-31.175928115844727,265.1354064941406,-9.96020221710205,-31.036766052246094
1,224437,-2.2525784969329834,-86.71546936035156,6.958749771118164,-2.3382394313812256
1,224439,-0.40278351306915283,-35.53364944458008,20.152711868286133,41.89917755126953
1,224441,-16.423311233520508,54.107757568359375,-2.1539158821105957,-10.851472854614258
1,224443,-62.74951934814453,141.6651153564453,-16.9396915435791,-42.9033317565918
1,224445,-40.97824478149414,-53.83028030395508,4.786327838897705,9.342329025268555
1,224447,85.91627502441406,-558.968994140625,-12.990960121154785,7.19002103805542
1,224449,43.50303268432617,-86.53660583496094,-27.495412826538086,2.5302696228027344
1,224451,72.77472686767578,481.0431823730469,-1.427946925163269,25.064483642578125
1,224453,77.02423095703125,214.9025421142578,35.317230224609375,23.01438331604004
1,224455,-219.9245147705078,-86.1158676147461,24.055986404418945,-6.8739495277404785
1,224457,-136.61798095703125,-96.75209045410156,16.213096618652344,-24.17744255065918
1,224459,169.73507690429688,124.40306854248047,-24.308012008666992,3.3636226654052734
1,224461,57.33213424682617,56.87921905517578,-41.527320861816406,-9.353194236755371
1,224462,-75.44019317626953,-144.11805725097656,24.107698440551758,-37.215843200683594
1,224465,-12.982539176940918,104.88523864746094,1.234239101409912,-7.304018020629883
1,224466,46.711341857910156,-53.384307861328125,-10.228986740112305,48.92146301269531
1,224469,41.6378173828125,-367.24896240234375,22.568391799926758,32.86131286621094
1,224470,-32.38600540161133,117.98307800292969,-8.893636703491211,-22.3631534576416
1,224473,-44.46481704711914,299.9063720703125,-9.596075057983398,-29.075172424316406
1,224474,2.8202478885650635,-26.788057327270508,3.553074359893799,-16.55350685119629
1,224477,-10.733111381530762,-308.96453857421875,-16.640274047851562,6.213140964508057
1,224478,11.64532470703125,-238.4122772216797,-8.887137413024902,41.14358139038086
1,224481,40.12015914916992,370.2411193847656,25.47422981262207,28.29257583618164
1,224482,69.95777893066406,468.6881103515625,29.5052490234375,-21.369556427001953
1,224485,7.942073345184326,17.646432876586914,1.414074182510376,-26.8313045501709
1,224486,-121.01470184326172,-382.6352233886719,-20.958887100219727,-6.7397966384887695
1,224489,-43.4310188293457,-350.64788818359375,-24.54439926147461,11.867043495178223
1,224490,18.302635192871094,301.72222900390625,-4.660902976989746,-15.227020263671875
1,224493,32.264366149902344,236.45330810546875,5.1064534187316895,-11.531685829162598
1,224494,40.404483795166016,-106.39103698730469,-1.6058239936828613,41.03327941894531
1,224497,-51.273109436035156,-42.69582748413086,24.28170394897461,12.862761497497559
1,224498,-10.72544002532959,-213.23033142089844,5.6292901039123535,-23.2897891998291
1,224501,69.27462005615234,-49.93757247924805,0.2000640630722046,-13.180845260620117
1,224504,9.095396041870117,196.7902374267578,7.731063365936279,-9.087347984313965
1,224505,-44.139949798583984,-96.12136840820312,-43.43722915649414,5.245016098022461
1,224506,12.972759246826172,-125.50816345214844,0.7816446423530579,32.49351501464844
1,224509,30.94365692138672,113.42742156982422,35.96131134033203,15.464506149291992
1,224510,-27.473037719726562,76.43138885498047,-14.860556602478027,-30.88265037536621
1,224513,1.6608003377914429,193.2616729736328,-28.948177337646484,-24.98330307006836
1,224514,25.300905227661133,-14.224126815795898,28.80634880065918,36.58779525756836
1,224517,-48.12622833251953,-221.58705139160156,21.76443862915039,22.684978485107422
1,224518,-64.21034240722656,7.764338970184326,-27.158592224121094,-44.514469146728516
1,224521,37.78163146972656,30.75407600402832,13.609576225280762,-27.39504623413086
1,224522,49.76625442504883,2.899026393890381,7.047691822052002,9.684882164001465
1,224525,-15.780289649963379,80.04434204101562,-17.203765869140625,9.756121635437012
1,224526,-1.2809576988220215,51.35520935058594,2.647941827774048,8.406583786010742
1,224529,16.54515266418457,-94.08930969238281,4.886751174926758,24.34020233154297
1,224530,-0.3745724558830261,-63.76986312866211,-9.7188081741333,-13.428424835205078
1,224533,-12.307744979858398,42.242095947265625,2.7705392837524414,-24.043912887573242
1,224534,-6.829189777374268,27.22426986694336,34.06820297241211,33.20954132080078
1,224537,-7.138272762298584,26.601274490356445,-8.062089920043945,-5.576676368713379
1,224538,4.916930198669434,-47.74247741699219,-41.95575714111328,-6.281496047973633
1,224541,35.086822509765625,-98.21214294433594,-13.13098430633545,0.9662880897521973
1,224542,11.80569839477539,30.017929077148438,5.889604568481445,-33.671939849853516
1,224545,-24.887371063232422,78.73038482666016,35.57685470581055,38.493167877197266
1,224546,-15.927546501159668,39.789825439453125,12.547607421875,33.463130950927734
1,224549,8.02185344696045,-16.57332420349121,-22.963642120361328,-51.15052795410156
1,224550,2.596357583999634,13.335992813110352,-0.15785086154937744,-21.49268913269043
1,224553,-68.52122497558594,61.68733596801758,-2.2278554439544678,21.055593490600586
1,224554,-51.32179260253906,-72.55658721923828,-3.7165350914001465,1.5239232778549194
1,224557,64.87806701660156,-72.2677230834961,-2.220775842666626,12.626381874084473
1,224558,70.52619934082031,183.5556640625,13.023560523986816,16.01336669921875
1,224561,60.89562225341797,-84.68067932128906,9.686450958251953,4.216928005218506
1,224562,10.236034393310547,-293.060791015625,-10.605074882507324,-1.0082696676254272
1,224565,-112.1920166015625,51.01641845703125,-8.238435745239258,-30.798152923583984
1,224566,-47.36177444458008,106.5470962524414,0.6820501685142517,-9.345670700073242
1,224569,78.3721694946289,116.24091339111328,8.299673080444336,18.639129638671875
1,224570,31.524023056030273,4.749298095703125,-3.8717873096466064,7.271815299987793
1,224573,-47.841102600097656,-19.889036178588867,-6.150435924530029,-6.136631011962891
1,224574,-10.036218643188477,49.476097106933594,-4.9871954917907715,-16.04425621032715
1,224577,23.28174591064453,-89.82182312011719,27.96379852294922,0.14778141677379608
1,224578,0.5369771718978882,-22.478174209594727,2.7269890308380127,10.21602725982666
1,224581,1.897294521331787,20.970903396606445,-39.654502868652344,3.670517921447754
1,224582,15.864032745361328,15.393869400024414,15.565140724182129,6.636143684387207
1,224585,-16.633344650268555,32.77415084838867,10.14004898071289,6.530069351196289
1,224586,-59.247982025146484,14.433011054992676,-2.77474308013916,0.9873772263526917
1,224589,-7.582807540893555,43.046146392822266,10.145646095275879,-20.351612091064453
1,224590,37.448089599609375,43.70323181152344,-27.64876365661621,-33.88050079345703
1,224593,38.986698150634766,-136.69224548339844,7.768824577331543,44.696624755859375
1,224594,41.67460250854492,-196.8756103515625,48.6860237121582,43.638389587402344
1,224597,-36.571109771728516,70.18319702148438,-31.79313850402832,-47.38230514526367
1,224598,-68.12197875976562,111.72967529296875,-50.90592956542969,-14.540464401245117
1,224601,23.185216903686523,11.429027557373047,26.777833938598633,17.8150577545166
1,224602,32.22543716430664,39.27940368652344,38.90279006958008,-5.382482051849365
1,224605,-24.83509635925293,12.70171070098877,-20.4105281829834,-15.105490684509277
1,224606,-19.489065170288086,-25.94858169555664,-18.2984619140625,2.4223406314849854
1,224609,-1.9896504878997803,114.23789978027344,32.92341613769531,25.435747146606445
1,224610,29.451692581176758,49.95330047607422,-0.46682196855545044,-16.058340072631836
1,224613,65.97734832763672,-347.10504150390625,-19.44752311706543,-17.02277183532715
1,224614,-15.177621841430664,-280.4758605957031,-18.369617462158203,8.926048278808594
1,224617,-86.00772094726562,244.11016845703125,-28.186017990112305,-11.959868431091309
1,224618,-28.89000129699707,322.85406494140625,28.072153091430664,34.280479431152344
1,224621,63.4725456237793,55.457115173339844,44.805545806884766,27.81401824951172
1,224622,72.1777572631836,-62.557395935058594,-18.50108528137207,-42.0878791809082
1,224625,-39.24125671386719,-135.63926696777344,-28.514305114746094,-11.614453315734863
1,224626,-49.07328796386719,-6.128272533416748,30.40500831604004,32.730133056640625
1,224629,21.176250457763672,66.58472442626953,11.097712516784668,-15.524420738220215
1,224630,5.712944507598877,-0.4043383002281189,-10.802102088928223,-28.011262893676758
1,224633,-15.607549667358398,-1.600785732269287,3.920612335205078,19.61579704284668
1,224634,0.08806168287992477,-4.67860746383667,-26.824058532714844,-12.499401092529297
1,224637,6.022197723388672,3.6606810092926025,13.859879493713379,7.308623313903809
1,224638,6.290715217590332,-17.372966766357422,13.894474029541016,35.85272216796875
1,224641,17.78864288330078,-20.049646377563477,-23.423280715942383,-23.621234893798828
1,224642,-7.337139129638672,-42.793758392333984,1.2472728490829468,-11.659783363342285
1,224645,-25.64735984802246,-27.422199249267578,-7.119700908660889,10.289128303527832
1,224646,-4.054234981536865,17.39905548095703,21.67502212524414,7.033392906188965
1,224649,4.996885299682617,9.59757137298584,22.999879837036133,22.24615478515625
1,224650,15.345682144165039,28.853546142578125,-33.5808219909668,-17.073888778686523
1,224653,-11.44009780883789,15.645218849182129,-20.420495986938477,-23.6829891204834
1,224654,-13.462984085083008,-6.482913494110107,14.85581111907959,21.744522094726562
1,224657,17.630949020385742,28.591670989990234,26.18817901611328,11.359898567199707
1,224658,-6.636641502380371,8.210003852844238,-6.525725364685059,-27.878215789794922
1,224661,5.842580795288086,-28.057823181152344,-19.143596649169922,-7.029900550842285
1,224662,-1.5967304706573486,-1.8901060819625854,22.505552291870117,23.011165618896484
1,224665,8.33188247680664,11.49332332611084,2.2549257278442383,-7.845285892486572
1,224667,112.97547912597656,-14.434978485107422,-8.308822631835938,3.0429179668426514
1,224669,-46.68994903564453,-15.040403366088867,-9.171829223632812,3.745100736618042
1,224671,-171.05226135253906,11.70702838897705,-16.248981475830078,-21.13880157470703
1,224673,56.21842575073242,9.620667457580566,24.45974349975586,8.656904220581055
1,224675,72.78079223632812,-4.575119972229004,6.758116245269775,13.6494779586792
1,224680,-8.3110933303833,2.3628742694854736,-8.29601764678955,-15.64223575592041
1,224680,10.293322563171387,13.622732162475586,8.052490234375,-28.91631317138672
1,224681,-29.278818130493164,-7.094893455505371,-18.716081619262695,-1.1198309659957886
1,224683,-37.64579391479492,-40.564208984375,-22.14649772644043,24.79116439819336
1,224685,-6.595523834228516,5.829573631286621,19.82308006286621,31.448421478271484
1,224687,23.1273136138916,18.115367889404297,3.7576229572296143,18.706003189086914
1,224689,8.863274574279785,-9.710789680480957,-10.043343544006348,-9.604223251342773
1,224691,-1.1074069738388062,8.185842514038086,16.02400016784668,-13.505735397338867
1,224693,24.3338623046875,8.101274490356445,-3.3039443492889404,-25.156517028808594
1,224695,18.340139389038086,22.506668090820312,-4.323455810546875,-18.276601791381836
1,224697,-13.526515007019043,4.340281963348389,6.431718826293945,16.545778274536133
1,224699,-9.319595336914062,-30.324932098388672,-5.639690399169922,29.829368591308594
1,224701,-3.0683960914611816,6.015874862670898,3.684703826904297,4.638258457183838
1,224703,-14.910887718200684,2.4825963973999023,19.284339904785156,-24.465017318725586
1,224705,11.9326810836792,-18.91667938232422,-5.583984375,-19.921937942504883
1,224707,1.4337646961212158,13.130760192871094,-20.76071548461914,16.196758270263672
1,224709,-14.0132474899292,-16.353532791137695,-5.572438716888428,15.217835426330566
1,224711,18.292118072509766,-7.967380046844482,5.389283657073975,-14.548881530761719
1,224713,-0.4479917883872986,48.89336013793945,7.638433933258057,20.512311935424805
1,224715,-8.773112297058105,-0.5851354598999023,10.353404998779297,1.83843994140625
1,224717,7.857268333435059,-22.203325271606445,2.024296522140503,-16.19023895263672
1,224719,2.336517810821533,14.047111511230469,-10.688726425170898,12.98580551147461
1,224721,-11.338329315185547,-35.80936050415039,-5.198138236999512,-23.6190128326416
1,224723,-1.2189674377441406,-25.223556518554688,4.392954349517822,-1.5194014310836792
1,224725,11.436779975891113,40.463645935058594,13.051472663879395,18.262344360351562
1,224727,-8.071488380432129,10.624754905700684,15.152935028076172,-16.42970848083496
1,224729,-11.523247718811035,-8.992834091186523,-14.952655792236328,-10.080609321594238
1,224731,-1.1620430946350098,16.221561431884766,-28.544918060302734,15.626036643981934
1,224733,12.802909851074219,9.074531555175781,3.7804007530212402,21.337289810180664
1,224735,6.399350166320801,-28.533851623535156,16.945701599121094,-8.714804649353027
1,224737,-18.518213272094727,-5.156090259552002,7.678141117095947,-6.588202953338623
1,224739,-9.250246047973633,21.45020866394043,-12.772612571716309,-3.654141664505005
1,224741,46.735504150390625,-1.6833254098892212,-19.97348403930664,-25.665576934814453
1,224743,10.608339309692383,-7.6599578857421875,-15.560768127441406,-30.539159774780273
1,224745,-55.32252883911133,-0.8245065808296204,21.536649703979492,25.57902717590332
1,224747,2.508211612701416,6.582597732543945,38.26945495605469,61.145240783691406
1,224749,33.040531158447266,8.251619338989258,-4.640902042388916,-19.091257095336914
1,224751,-7.423343658447266,-16.41318130493164,7.2778425216674805,-12.884655952453613
1,224753,-7.768825054168701,-6.110512733459473,-15.933666229248047,24.900428771972656
1,224755,28.348712921142578,25.961240768432617,-30.646442413330078,-9.898993492126465
1,224757,-7.266133785247803,-16.0013427734375,20.22582244873047,4.497121810913086
1,224759,-30.9345760345459,-16.41839599609375,2.2173449993133545,0.8371385931968689
1,224761,-7.579722881317139,16.00775718688965,-18.843509674072266,-36.47334671020508
1,224763,9.363471031188965,-5.871089458465576,5.5685038566589355,-12.294384956359863
1,224765,10.232845306396484,11.902499198913574,11.187554359436035,26.003820419311523
1,224767,23.88376808166504,0.3234978914260864,-4.9801859855651855,22.751420974731445
1,224769,6.445806503295898,-40.06864929199219,-4.4206671714782715,-15.192078590393066
1,224771,-64.76114654541016,9.044407844543457,3.1706385612487793,-21.900880813598633
1,224773,-4.002897262573242,17.890575408935547,-6.787079334259033,7.517756462097168
1,224775,39.37068557739258,-17.318262100219727,1.488869071006775,2.4071834087371826
1,224777,-5.982727527618408,19.611507415771484,36.18317413330078,22.85647201538086
1,224779,2.030473232269287,16.34600067138672,-9.122332572937012,14.526716232299805
1,224781,16.74412727355957,-12.672408103942871,-33.40092468261719,-31.1660099029541
1,224783,-9.045775413513184,7.916424751281738,26.09876823425293,11.172115325927734
1,224785,-39.679935455322266,1.8709203004837036,7.809329032897949,28.491100311279297
1,224787,2.722517251968384,-11.582322120666504,-14.014039993286133,-33.392093658447266
1,224789,44.779266357421875,4.860062599182129,-13.322121620178223,-16.461212158203125
1,224791,4.872520446777344,15.429368019104004,-10.109115600585938,21.44750213623047
1,224793,23.35248374938965,8.86722469329834,28.55680274963379,-20.375898361206055
1,224795,13.775920867919922,-10.804853439331055,9.265122413635254,-6.068284511566162
1,224797,-57.72599792480469,-19.434917449951172,-19.080520629882812,30.15268898010254
1,224799,-21.107166290283203,-8.450674057006836,7.580211639404297,1.2762086391448975
1,224801,6.461060047149658,-3.4609427452087402,-2.3281490802764893,-3.578044891357422
1,224803,9.283267974853516,13.825722694396973,-26.66382598876953,-5.057737827301025
1,224805,2.1732873916625977,0.7573025822639465,16.62950325012207,-16.91909408569336
1,224807,-9.138577461242676,-24.471078872680664,22.7891845703125,-6.702301979064941
1,224809,0.0173431895673275,6.028069019317627,-16.79010772705078,2.7124431133270264
1,224811,13.931950569152832,26.4659366607666,-4.592216968536377,6.208845615386963
1,224813,11.376580238342285,-4.703837871551514,4.060400485992432,8.653158187866211
1,224815,-32.6995964050293,-21.819631576538086,-9.949082374572754,-0.1428232640028
1,224817,1.1723942756652832,8.311805725097656,14.119438171386719,-2.2621777057647705
1,224819,27.68094253540039,13.832037925720215,17.463991165161133,6.846502780914307
1,224821,-0.16835689544677734,5.8764848709106445,-17.025876998901367,-2.533029794692993
1,224823,-7.319530010223389,3.893008232116699,-4.56183385848999,4.358641624450684
1,224825,8.399799346923828,-11.978090286254883,2.0765793323516846,13.304672241210938
1,224827,3.877692461013794,-0.5987656116485596,-2.7389674186706543,-1.0024775266647339
1,224829,-37.17367172241211,3.8926784992218018,8.369701385498047,-23.6408748626709
1,224831,16.510671615600586,-3.60766863822937,7.246646881103516,-17.408138275146484
1,224833,32.665279388427734,8.951818466186523,-5.857946872711182,29.472944259643555
1,224835,-20.517932891845703,-1.6637778282165527,-34.160728454589844,6.188941955566406
1,224837,6.44209623336792,-8.558431625366211,7.693230628967285,-23.0179443359375
1,224839,10.635000228881836,1.763384222984314,50.61369705200195,19.101192474365234
1,224841,-3.865114688873291,1.751605749130249,-20.087800979614258,2.2212462425231934
1,224843,-21.65152359008789,-11.789018630981445,-39.549835205078125,-20.331707000732422
1,224845,-5.888919353485107,-0.23012572526931763,8.974404335021973,-5.067862033843994
1,224847,21.754941940307617,28.6708984375,25.23897361755371,11.551107406616211
1,224848,-8.850679397583008,-10.303296089172363,15.611475944519043,29.770484924316406
1,224851,-7.70639181137085,-34.45431137084961,-19.665802001953125,-15.473469734191895
1,224852,-0.12210889160633087,18.033370971679688,-27.654895782470703,-30.54895782470703
1,224855,1.716722846031189,20.42607879638672,9.60312557220459,13.288342475891113
1,224856,-10.44027328491211,-24.96286392211914,29.447811126708984,18.525615692138672
1,224859,-2.8610293865203857,-4.644170761108398,-1.9152672290802002,-14.13744068145752
1,224860,22.121103286743164,23.755064010620117,-5.748213768005371,-7.943699836730957
1,224863,-7.1632184982299805,-7.862694263458252,2.827543020248413,12.480854988098145
1,224864,4.3951616287231445,-17.744001388549805,-6.136079788208008,-5.4060516357421875
1,224868,7.606206893920898,5.44689416885376,-7.8522748947143555,3.68149733543396
1,224869,-13.264694213867188,33.93734359741211,6.806422710418701,23.18742561340332
1,224870,7.419302940368652,12.591303825378418,11.07318115234375,8.772089004516602
1,224873,-12.954924583435059,-48.643863677978516,-32.44746780395508,-25.71013832092285
1,224874,-1.8372743129730225,-11.508081436157227,-21.5224552154541,-30.505599975585938
1,224877,5.0562310218811035,26.35250473022461,25.866252899169922,6.047929286956787
1,224878,3.005276918411255,-10.36180591583252,15.675695419311523,10.094402313232422
1,224881,21.13071632385254,8.733057022094727,2.6565427780151367,4.451450824737549
1,224882,-10.580742835998535,4.799202919006348,15.187578201293945,12.408607482910156
1,224885,-8.160012245178223,-23.875957489013672,-11.293359756469727,-7.264108180999756
1,224886,-8.584421157836914,25.35280418395996,-12.150781631469727,12.594917297363281
1,224889,4.9373650550842285,14.991703033447266,15.87197208404541,1.3958666324615479
1,224890,11.554476737976074,-35.144962310791016,-1.458611011505127,-41.0861930847168
1,224893,-21.45821189880371,3.5771727561950684,-9.815271377563477,11.939652442932129
1,224894,18.758991241455078,25.90223503112793,4.809295177459717,23.97267723083496
1,224897,23.107173919677734,-7.222752571105957,7.663136005401611,0.6548062562942505
1,224898,-34.870059967041016,-19.379623413085938,-2.0097227096557617,6.249980926513672
1,224901,1.3445676565170288,-16.657211303710938,-14.593737602233887,-23.150115966796875
1,224902,8.002066612243652,4.7877278327941895,-20.146923065185547,-4.937292098999023
1,224905,-20.25056266784668,26.768068313598633,19.397478103637695,14.342097282409668
1,224906,21.905534744262695,17.870216369628906,21.012845993041992,-11.147149085998535
1,224909,-3.431999921798706,10.679399490356445,-18.8046875,-4.032798767089844
1,224910,-20.883041381835938,6.976711273193359,24.06510353088379,4.62384033203125
1,224913,40.797611236572266,-27.991724014282227,9.338238716125488,2.6710174083709717
1,224914,9.307638168334961,-21.97873878479004,-45.5978889465332,2.312408447265625
1,224917,-52.218318939208984,16.704029083251953,16.97968292236328,1.8629485368728638
1,224918,1.2932060956954956,-5.028507232666016,22.06252670288086,6.922589302062988
1,224921,25.781024932861328,-12.350591659545898,-30.01732063293457,-8.439729690551758
1,224922,9.792567253112793,9.34099292755127,-1.3660587072372437,-12.979073524475098
1,224925,-1.8009089231491089,4.108999252319336,3.489975690841675,13.602460861206055
1,224926,-13.098856925964355,-5.138090133666992,-10.230937004089355,4.578222751617432
1,224929,0.9224026203155518,-4.691720962524414,1.882541537284851,-8.742554664611816
1,224930,-20.551471710205078,7.55119514465332,5.435991287231445,6.299715995788574
1,224933,19.928022384643555,-4.207797527313232,16.168155670166016,-5.898855686187744
1,224934,46.19117736816406,-14.677441596984863,-1.2638607025146484,-1.07624351978302
1,224937,-32.823184967041016,8.123040199279785,-16.09235954284668,23.40813636779785
1,224938,-26.957172393798828,16.13921546936035,10.534224510192871,2.8473024368286133
1,224941,6.385006427764893,12.655487060546875,-11.652974128723145,-29.882783889770508
1,224942,-10.851962089538574,-3.7784080505371094,-15.808890342712402,-23.53023338317871
1,224945,16.959495544433594,-12.89868450164795,32.65138244628906,26.444040298461914
1,224946,-10.535362243652344,-6.707511901855469,-8.037604331970215,17.13323211669922
1,224949,-8.475225448608398,-4.564937114715576,0.6765102744102478,-10.13410758972168
1,224950,49.417388916015625,-0.38678497076034546,40.80921173095703,13.270529747009277
1,224953,-5.384228229522705,-2.2832095623016357,-44.4974250793457,-9.928046226501465
1,224954,-42.743099212646484,13.211041450500488,-38.68130111694336,-20.682634353637695
1,224957,-17.358783721923828,21.183788299560547,43.48554229736328,0.3115535378456116
1,224958,9.583526611328125,-12.902511596679688,17.649553298950195,6.4594221115112305
1,224961,42.85479736328125,3.374088764190674,-13.448448181152344,17.407032012939453
1,224962,15.462480545043945,14.476910591125488,-12.329821586608887,13.136956214904785
1,224965,-24.423847198486328,-24.777971267700195,7.6696929931640625,-2.102642297744751
1,224966,-2.390501022338867,2.631568431854248,24.156373977661133,-11.470795631408691
1,224969,-0.767347514629364,4.483000755310059,-26.00863265991211,2.772676706314087
1,224970,-12.906417846679688,-34.20124816894531,-20.733728408813477,-11.728175163269043
1,224973,-17.190216064453125,6.478424549102783,11.93342399597168,-13.033122062683105
1,224974,10.615699768066406,26.54994010925293,5.850216865539551,18.465606689453125
1,224977,28.403827667236328,-10.858996391296387,18.79125213623047,7.76050329208374
1,224978,-3.5556833744049072,10.479622840881348,1.7970210313796997,9.721003532409668
