Aktueller Finger,timestamp_ms,sensor_0,sensor_1,sensor_2,sensor_3
0,445841,14.134296417236328,-46.49971008300781,-59.167842864990234,32.99604797363281
0,445842,88.89707946777344,-44.10928726196289,0.38212308287620544,-29.209678649902344
0,445844,-30.450088500976562,10.853968620300293,49.35921096801758,9.94693374633789
0,445846,-34.38800811767578,33.205345153808594,-6.742713451385498,34.510677337646484
0,445848,-20.93059539794922,21.719501495361328,-18.097312927246094,-15.895965576171875
0,445850,-148.9181671142578,21.253192901611328,11.412930488586426,-18.482942581176758
0,445852,-162.7362823486328,26.14682960510254,20.934349060058594,50.75128936767578
0,445854,71.13388061523438,-98.6055908203125,-44.609745025634766,23.982913970947266
0,445864,191.0228729248047,-31.882770538330078,-30.982492446899414,-49.69853973388672
0,445864,18.36406707763672,93.94925689697266,23.91098403930664,5.178920745849609
0,445864,-37.0796012878418,-50.659202575683594,18.01058578491211,34.997459411621094
0,445865,93.944091796875,-48.59849548339844,10.438802719116211,-36.64572525024414
0,445865,107.64008331298828,39.11594772338867,-13.6974458694458,-79.67619323730469
0,445866,-3.8244144916534424,-3.796488046646118,-2.9986424446105957,15.767745971679688
0,445869,-44.348384857177734,4.6934919357299805,8.467301368713379,44.53334045410156
0,445870,-82.80707550048828,42.220760345458984,11.56769847869873,-15.504627227783203
0,445873,-140.7606201171875,1.4494938850402832,9.372862815856934,59.56289291381836
0,445874,-3.4068007469177246,-61.48855209350586,-39.29059600830078,40.262142181396484
0,445877,234.9014892578125,-41.80353546142578,-24.034767150878906,-82.74357604980469
0,445878,160.8011932373047,11.157378196716309,0.9178009629249573,-44.33100891113281
0,445881,-126.95164489746094,53.94908142089844,22.567230224609375,20.578060150146484
0,445882,-127.78272247314453,49.66029739379883,35.471920013427734,20.776573181152344
0,445885,-25.799671173095703,-40.51707458496094,-22.581411361694336,11.403451919555664
0,445886,10.966753959655762,-38.822540283203125,-3.702509641647339,-10.826057434082031
0,445909,31.369657516479492,41.633365631103516,43.02204513549805,-7.232609272003174
0,445909,-34.027584075927734,41.779659271240234,10.070755958557129,-16.69211769104004
0,445910,-66.60206604003906,3.2417163848876953,-15.685157775878906,6.461169242858887
0,445910,-76.55577850341797,-9.695462226867676,-11.146897315979004,40.528926849365234
0,445910,-58.445457458496094,3.338979482650757,-5.0698418617248535,11.594499588012695
0,445910,-12.869420051574707,0.8594244718551636,-2.604795455932617,9.57908821105957
0,445910,35.25787353515625,-36.44314956665039,-1.5006194114685059,17.553010940551758
0,445910,96.34545135498047,-30.77179527282715,-1.1599568128585815,-8.568316459655762
0,445911,96.46598052978516,-1.6845053434371948,-14.257688522338867,-23.301742553710938
0,445911,44.94285202026367,3.513519048690796,-7.4724555015563965,-10.457194328308105
0,445911,20.683502197265625,21.94745635986328,2.6508021354675293,-3.2368767261505127
0,445912,-31.41092872619629,-5.355554103851318,-22.601848602294922,-6.378724575042725
0,445912,-53.05604934692383,-21.976470947265625,-2.2753589153289795,21.52165985107422
0,445914,57.056861877441406,-5.295797348022461,13.195524215698242,8.965279579162598
0,445916,165.2853240966797,-56.53626251220703,-15.043210983276367,-46.504520416259766
0,445918,117.8331527709961,-30.039321899414062,-1.1913261413574219,-50.957916259765625
0,445921,-82.06803131103516,100.79241180419922,30.372005462646484,-5.208946228027344
0,445922,-165.1888885498047,70.5202407836914,12.923297882080078,45.8989372253418
0,445925,-78.6352767944336,-39.16328811645508,-11.433830261230469,36.33819580078125
0,445926,7.8618316650390625,-23.861209869384766,4.909276008605957,-12.003973960876465
0,445929,39.62811279296875,16.89665412902832,-2.3068771362304688,-27.56952476501465
0,445930,-61.45112991333008,39.9381103515625,21.643911361694336,-4.074027061462402
0,445933,-152.0518035888672,5.67067289352417,19.606130599975586,45.57865905761719
0,445934,-12.537099838256836,-54.483131408691406,-34.762489318847656,31.407344818115234
0,445937,223.704345703125,-33.64509963989258,-26.2600040435791,-42.71643829345703
0,446051,-210.24960327148438,11.78703498840332,-14.09691047668457,34.09844207763672
0,446051,66.45931243896484,-27.551685333251953,-4.768709659576416,20.89286231994629
0,446051,146.3453369140625,-1.9893757104873657,15.072548866271973,-28.444122314453125
0,446051,0.7230676412582397,31.292715072631836,8.188572883605957,-42.376060485839844
0,446051,-56.19060134887695,5.220482349395752,-16.612932205200195,17.03535270690918
0,446051,-46.832176208496094,2.918783187866211,10.685396194458008,38.15240478515625
0,446052,-60.668357849121094,5.583448886871338,9.52631950378418,-3.534754753112793
0,446052,-8.019020080566406,-22.817195892333984,-35.42973327636719,-3.442009687423706
0,446052,36.78306198120117,-24.866212844848633,0.1014128103852272,17.25884437561035
0,446052,89.72057342529297,-1.010567307472229,14.85073184967041,-27.456342697143555
0,446052,118.16486358642578,-19.38187026977539,-21.334714889526367,-42.78268051147461
0,446052,59.39727020263672,-14.772529602050781,-27.29106330871582,6.173681259155273
0,446053,4.025115489959717,20.603445053100586,2.371426820755005,11.900253295898438
0,446053,-15.09364128112793,-3.561983823776245,29.398578643798828,0.40638381242752075
0,446053,-36.40412521362305,7.849839210510254,-0.08849912136793137,7.036369800567627
0,446053,-55.688655853271484,26.173215866088867,3.1048824787139893,15.884325981140137
0,446053,-58.806297302246094,4.668802738189697,19.158376693725586,24.690528869628906
0,446053,2.940342903137207,5.257426738739014,-14.071032524108887,-13.705556869506836
0,446054,42.620574951171875,-0.9954016208648682,-4.998413562774658,-23.27815055847168
0,446054,27.815465927124023,-15.807579040527344,0.36146995425224304,2.7578320503234863
0,446054,37.639915466308594,-25.662797927856445,-4.328479290008545,3.6200497150421143
0,446054,38.38815689086914,1.9006046056747437,13.918251037597656,-9.371380805969238
0,446054,10.944395065307617,13.910717010498047,2.14501690864563,-24.110855102539062
0,446054,-26.777679443359375,11.91392707824707,7.107747554779053,-7.898362159729004
0,446056,13.30498218536377,8.031168937683105,8.231171607971191,-6.579685211181641
0,446056,19.701847076416016,-17.553022384643555,-15.601546287536621,15.552568435668945
0,446056,-61.67219161987305,-7.697423458099365,-14.365321159362793,34.22633361816406
0,446059,52.155818939208984,6.140231132507324,5.5292134284973145,-52.04701614379883
0,446060,40.05459213256836,41.90028762817383,35.55734634399414,-35.8387336730957
0,446063,-203.24932861328125,38.45458221435547,20.760581970214844,75.33782958984375
0,446064,-112.33528900146484,-27.32195281982422,-40.20740509033203,63.877689361572266
0,446067,70.286376953125,-31.837879180908203,-20.316843032836914,-36.76038360595703
0,446068,29.60222816467285,14.769193649291992,34.83957290649414,-39.50263595581055
0,446071,-102.2254867553711,34.06878662109375,8.314071655273438,57.039730072021484
0,446072,-95.8775634765625,-11.068572998046875,-15.339659690856934,28.618364334106445
0,446075,175.5713653564453,-59.92778778076172,-20.066333770751953,-37.34223937988281
0,446076,174.50306701660156,-31.902725219726562,-35.6527214050293,-24.32772445678711
0,446079,40.37284469604492,25.076152801513672,21.853540420532227,-54.33817672729492
0,446080,-0.08237935602664948,33.01874923706055,57.52229309082031,-38.96070861816406
0,446137,-64.01923370361328,-26.287954330444336,-44.80649185180664,80.91411590576172
0,446138,81.59004974365234,-20.881784439086914,-61.74623489379883,23.749683380126953
0,446138,81.21786499023438,49.75197219848633,27.936946868896484,-76.41915130615234
0,446138,-31.184362411499023,1.875597357749939,16.62239646911621,4.2272047996521
0,446138,-50.72964096069336,-9.635950088500977,7.475872039794922,44.35927963256836
0,446138,-70.10424041748047,47.84971618652344,28.238126754760742,5.438754081726074
0,446138,-64.87071990966797,24.222856521606445,-4.659340858459473,-4.0660295486450195
0,446139,-79.86708068847656,-22.065635681152344,-4.692444801330566,8.771522521972656
0,446139,-54.6724739074707,-19.419607162475586,24.132549285888672,12.547810554504395
0,446139,-1.3712996244430542,12.981956481933594,-0.30787765979766846,-10.30229663848877
0,446139,40.646881103515625,-11.118895530700684,-24.03131866455078,-16.297121047973633
0,446139,57.28335952758789,-44.04527282714844,-13.76103401184082,12.185942649841309
0,446139,34.818355560302734,1.2172529697418213,17.249420166015625,17.366989135742188
0,446140,0.2204451858997345,17.768573760986328,11.444696426391602,-3.2535855770111084
0,446140,-26.271772384643555,-15.11472225189209,-27.718769073486328,-15.082640647888184
0,446140,-20.774600982666016,-3.5126233100891113,17.33038902282715,-9.320383071899414
0,446140,-25.683929443359375,4.441556453704834,23.353776931762695,22.725069046020508
0,446140,-33.72926330566406,4.7477803230285645,-23.743419647216797,29.198793411254883
0,446140,-7.606678485870361,7.861427307128906,-3.8011281490325928,-0.6576866507530212
0,446141,-5.286944389343262,0.9315083026885986,13.815569877624512,-9.160784721374512
0,446141,26.367338180541992,-23.319316864013672,0.8175081014633179,-7.209490776062012
0,446141,55.93398666381836,-31.501815795898438,-9.453024864196777,11.692763328552246
0,446141,15.208271026611328,17.713533401489258,-0.242014080286026,-12.887462615966797
0,446141,1.454087495803833,12.450550079345703,-11.95505142211914,-39.500694274902344
0,446142,0.9051786065101624,-13.522594451904297,-17.766508102416992,3.406860113143921
0,446142,-18.744321823120117,22.94261360168457,11.43009090423584,-1.0228406190872192
0,446142,-11.524393081665039,16.005672454833984,8.90644359588623,-15.245977401733398
0,446142,-9.003754615783691,-32.14801788330078,-7.887385845184326,23.689041137695312
0,446143,-61.45558547973633,-33.097354888916016,5.485976696014404,38.33246612548828
0,446144,-29.39263153076172,-2.4432950019836426,8.010531425476074,14.708131790161133
0,446144,79.27379608154297,29.43229103088379,-4.818326473236084,-10.44782543182373
0,446145,29.39825439453125,-1.8155795335769653,7.773462295532227,-13.734381675720215
0,446146,-22.309581756591797,-61.462093353271484,-8.89243221282959,-14.43059253692627
0,446148,18.80428123474121,7.778730869293213,-28.34740447998047,-22.765592575073242
0,446150,-67.00031280517578,68.69856262207031,26.498430252075195,13.670077323913574
0,446152,-88.11862182617188,5.279069900512695,41.81778335571289,62.36414337158203
0,446154,165.81881713867188,-28.203697204589844,-40.58673095703125,-14.693435668945312
0,446156,218.7556915283203,-20.196557998657227,-52.992366790771484,-66.68247985839844
0,446158,77.7978744506836,22.97273826599121,30.679128646850586,-21.539575576782227
0,446160,-36.82489776611328,58.46832275390625,25.1483097076416,-24.333112716674805
0,446162,-229.40086364746094,16.701072692871094,-8.156091690063477,63.8260612487793
0,446164,-111.56265258789062,16.470842361450195,20.373205184936523,97.811767578125
0,446166,62.0533332824707,19.806493759155273,8.734782218933105,-52.09566879272461
0,446168,14.969208717346191,-45.31515121459961,-18.466915130615234,-118.81510925292969
0,446171,-64.42313385009766,-1.3950282335281372,4.454179763793945,-33.37297821044922
0,446172,-102.56929779052734,23.883209228515625,15.3771390914917,131.65560913085938
0,446175,113.20098876953125,-87.61322021484375,-33.00228500366211,76.2441635131836
0,446245,143.25418090820312,10.86713981628418,6.087872505187988,-90.44615173339844
0,446245,-97.46976470947266,94.9565200805664,40.963768005371094,-21.712671279907227
0,446245,-75.22850036621094,-62.494873046875,-22.994272232055664,21.457744598388672
0,446245,63.5974006652832,-52.44281005859375,-23.861095428466797,-9.01040267944336
0,446245,87.78805541992188,43.546958923339844,-4.600915431976318,-19.928390502929688
0,446245,41.44208526611328,-5.027851104736328,-2.248072624206543,-8.555547714233398
0,446246,6.113163471221924,-27.6680965423584,1.4173941612243652,24.167232513427734
0,446246,-4.27980899810791,9.830008506774902,15.860179901123047,6.092236518859863
0,446246,-41.71611785888672,21.152673721313477,16.15520668029785,4.6788740158081055
0,446246,-65.42595672607422,6.9878411293029785,-19.122285842895508,-4.189499378204346
0,446246,-52.69105911254883,-10.110939025878906,-16.818788528442383,-15.24825382232666
0,446246,-19.032987594604492,5.440871715545654,8.086974143981934,19.596494674682617
0,446247,2.3972227573394775,-7.415109634399414,-1.4883755445480347,17.286848068237305
0,446247,26.906795501708984,-26.933454513549805,-5.355955600738525,-15.722710609436035
0,446247,39.03078842163086,19.786651611328125,14.002676010131836,-6.443557262420654
0,446247,30.961528778076172,26.241857528686523,8.997522354125977,9.755072593688965
0,446247,45.04782485961914,-23.769887924194336,3.0321011543273926,0.49094903469085693
0,446247,13.00029182434082,-15.589656829833984,7.923404693603516,9.412802696228027
0,446248,-28.752134323120117,26.754947662353516,-22.237083435058594,-5.796607971191406
0,446248,-32.03285598754883,21.921831130981445,-7.360449314117432,-12.389286994934082
0,446248,-38.744911193847656,-1.2243266105651855,29.109474182128906,9.08960247039795
0,446248,-15.479399681091309,-18.750024795532227,-21.524517059326172,-11.638306617736816
0,446248,4.35489559173584,-2.7312569618225098,-1.7057557106018066,-4.862429141998291
0,446248,10.167183876037598,12.041366577148438,37.25979995727539,-2.0165364742279053
0,446249,20.8720760345459,-25.31303596496582,-20.971115112304688,-11.133443832397461
0,446249,5.808060169219971,-4.486623287200928,-7.929234504699707,7.8317155838012695
0,446249,13.081575393676758,47.27537155151367,21.672250747680664,-11.501112937927246
0,446249,16.781410217285156,-0.671123743057251,-14.305237770080566,0.9744030833244324
0,446249,-37.31654357910156,-31.37135887145996,-5.427884101867676,35.13172149658203
0,446250,-44.91682434082031,11.523694038391113,14.764813423156738,2.5676636695861816
0,446250,2.251307487487793,8.063241004943848,-12.518569946289062,-14.277118682861328
0,446250,-4.649416923522949,-16.32061195373535,-12.50114631652832,8.212564468383789
0,446250,-29.121427536010742,-2.2982265949249268,15.050274848937988,9.122535705566406
0,446250,9.563328742980957,9.020030975341797,11.318716049194336,5.270624160766602
0,446250,45.64516830444336,4.7853102684021,-22.123767852783203,1.2519149780273438
0,446252,12.7312593460083,-39.921836853027344,-28.096050262451172,-1.1395747661590576
0,446252,-5.638757705688477,-30.58009910583496,2.6521012783050537,3.3435449600219727
0,446252,34.55839920043945,48.695945739746094,21.434307098388672,-16.711841583251953
0,446252,21.5029354095459,6.422612190246582,2.6986587047576904,-9.44700813293457
0,446255,92.97695922851562,-81.00302124023438,-34.37788391113281,-3.765841007232666
0,446256,195.3180389404297,-23.149255752563477,-10.032449722290039,-16.782955169677734
0,446259,40.174129486083984,82.24855041503906,33.385013580322266,-48.095340728759766
0,446260,-148.03659057617188,56.04155349731445,17.32602310180664,-29.552743911743164
0,446263,-201.54965209960938,-10.9017915725708,0.6962204575538635,87.83495330810547
0,446264,-90.36428833007812,-37.911319732666016,-4.346022129058838,74.05418395996094
0,446267,41.5462760925293,2.3753175735473633,-4.009971618652344,-48.82486343383789
0,446268,10.381570816040039,55.772621154785156,17.326374053955078,-126.74747467041016
0,446271,-101.62031555175781,21.07254981994629,19.541648864746094,23.31202507019043
0,446272,-71.79508972167969,-34.3064079284668,-18.494543075561523,207.587646484375
0,446274,98.15861511230469,-56.259151458740234,-30.09124183654785,9.676674842834473
0,446276,184.47509765625,-34.58794021606445,-7.767581462860107,-159.15391540527344
0,446278,132.29718017578125,17.604381561279297,5.810483932495117,-13.112518310546875
0,446280,-100.05329895019531,82.95519256591797,49.22468185424805,71.13607025146484
0,446282,-168.48202514648438,31.985328674316406,13.95246410369873,8.036092758178711
0,446284,-11.2626953125,-58.81470489501953,-46.35298156738281,-3.011052131652832
0,446366,76.68545532226562,-22.474061965942383,1.246640920639038,18.044361114501953
0,446366,67.30359649658203,6.269742012023926,3.4350481033325195,-6.1909613609313965
0,446366,-25.919607162475586,4.498856544494629,-8.885587692260742,-16.159221649169922
0,446366,-80.27342987060547,10.94710636138916,8.531564712524414,-1.5316518545150757
0,446366,-71.77794647216797,16.7560977935791,10.060750007629395,-16.400793075561523
0,446367,-38.83137130737305,4.770279884338379,-0.29989489912986755,-9.727511405944824
0,446367,4.062692642211914,-22.197101593017578,-16.87894630432129,3.0685718059539795
0,446367,25.580490112304688,-13.374455451965332,4.042111873626709,7.184648036956787
0,446367,59.75096130371094,-14.081206321716309,-8.153633117675781,3.1099393367767334
0,446367,67.45594024658203,-24.915842056274414,-22.054664611816406,-23.38508415222168
0,446367,35.5838623046875,4.993293762207031,11.076141357421875,-21.40583610534668
0,446368,40.78465270996094,38.134403228759766,17.39757537841797,-20.278888702392578
0,446368,1.133965015411377,9.805476188659668,10.677865982055664,-2.7653591632843018
0,446368,-58.73103332519531,-5.834275722503662,5.488589286804199,26.33334732055664
0,446368,-66.10496520996094,16.459423065185547,12.380561828613281,13.424491882324219
0,446368,-46.50493621826172,-9.367690086364746,8.927273750305176,-8.58023452758789
0,446369,-12.64266300201416,-5.782843112945557,-25.462495803833008,-8.623686790466309
0,446369,2.1138317584991455,18.06991958618164,-31.669519424438477,11.526182174682617
0,446369,39.111732482910156,-14.729634284973145,-2.430244207382202,19.65937042236328
0,446369,33.19527816772461,-24.00663185119629,12.443704605102539,-5.472796440124512
0,446369,12.872417449951172,-2.5172195434570312,8.729082107543945,-8.98298454284668
0,446369,-1.395681619644165,6.378011703491211,9.830376625061035,9.922625541687012
0,446370,-12.225688934326172,14.588750839233398,4.119712829589844,7.602097511291504
0,446370,2.4069011211395264,15.731024742126465,-1.7744208574295044,-3.309206962585449
0,446370,-39.35296630859375,-11.841814041137695,-7.508094787597656,1.4233916997909546
0,446370,-37.63410949707031,-21.51247787475586,-5.353274345397949,22.93210792541504
0,446370,10.326896667480469,-2.821539878845215,11.004900932312012,17.536251068115234
0,446370,27.056352615356445,2.409156322479248,5.605918884277344,-5.380608081817627
0,446371,21.732133865356445,9.471729278564453,-5.12700891494751,-5.745092391967773
0,446371,31.984533309936523,-8.723074913024902,-14.260173797607422,-13.038583755493164
0,446371,39.411827087402344,-11.496673583984375,-6.574126720428467,-12.741231918334961
0,446371,4.454682350158691,-0.14529140293598175,5.649641036987305,4.9171977043151855
0,446371,-18.05970573425293,-1.353932499885559,6.634191989898682,5.208558559417725
0,446372,-3.157114267349243,19.826753616333008,12.702919960021973,-1.2554688453674316
0,446372,5.913033962249756,12.881071090698242,1.8724595308303833,2.366760730743408
0,446372,-18.24655532836914,-8.963343620300293,-5.263960838317871,3.6692054271698
0,446372,-11.973004341125488,-8.83719253540039,-9.001008033752441,3.5874388217926025
0,446372,7.569963455200195,7.817154884338379,-2.647000551223755,-6.055625915527344
0,446372,11.451591491699219,8.222269058227539,13.211587905883789,-24.215103149414062
0,446373,36.89507293701172,-11.973177909851074,-13.160651206970215,-7.290506839752197
0,446373,11.488836288452148,-17.15375518798828,-5.179985046386719,5.776261806488037
0,446374,26.725950241088867,10.95928955078125,1.6773297786712646,-35.53076934814453
0,446374,53.00055694580078,12.96292781829834,-27.690650939941406,-22.4420223236084
0,446374,-45.761680603027344,-7.33551025390625,16.87876319885254,17.21942710876465
0,446374,-44.56753921508789,4.415436267852783,16.035322189331055,-0.28668323159217834
0,446376,58.280513763427734,-32.374263763427734,-34.53799819946289,7.519706726074219
0,446378,133.39202880859375,-17.68055534362793,6.388248443603516,-42.3532600402832
0,446380,-7.847718715667725,79.83818817138672,53.430240631103516,11.540191650390625
0,446382,-248.42379760742188,70.4993896484375,21.739906311035156,157.98329162597656
0,446384,-117.35374450683594,-19.18001365661621,-5.2150559425354,33.88619613647461
0,446386,62.226356506347656,-74.61592864990234,-35.525325775146484,-176.4416046142578
0,446388,13.474332809448242,-53.54438018798828,-28.813976287841797,-119.5731430053711
0,446391,-108.58073425292969,39.85580825805664,33.34298324584961,193.66136169433594
0,446392,-119.1751480102539,52.929298400878906,8.766289710998535,251.49990844726562
0,446395,183.4140167236328,-73.51123046875,-46.76259231567383,-406.9024353027344
0,446396,247.34091186523438,-70.16329193115234,-16.541412353515625,-395.3459777832031
0,446399,43.22458267211914,72.42825317382812,38.64317321777344,717.3873901367188
0,446400,-68.22966766357422,83.87646484375,41.89639663696289,550.3845825195312
0,446403,-195.4102020263672,-18.12660026550293,-16.02155876159668,-676.5186157226562
0,446404,-57.397464752197266,-47.72294235229492,-43.59816360473633,-494.3194580078125
0,446407,121.44754791259766,8.293819427490234,25.012414932250977,607.0748291015625
0,446408,51.45610809326172,39.152976989746094,31.78211784362793,352.71600341796875
0,446502,44.44194412231445,22.06980323791504,-2.501816511154175,-368.5569763183594
0,446502,17.135997772216797,-1.4540523290634155,-0.9931607246398926,-94.18314361572266
0,446502,-107.5860595703125,-13.347339630126953,-3.7220053672790527,69.96116638183594
0,446503,-96.2330093383789,-9.751066207885742,0.6244300007820129,-69.21871185302734
0,446503,-5.262213706970215,2.167149305343628,-7.754870414733887,-42.93634033203125
0,446503,27.704069137573242,-31.111173629760742,-17.45785903930664,-34.94264602661133
0,446503,32.979312896728516,-38.36232376098633,-6.59710693359375,-42.146881103515625
0,446503,62.054473876953125,13.036913871765137,2.178737163543701,-4.438689231872559
0,446503,57.96337890625,13.071155548095703,3.063568115234375,-6.573312282562256
0,446504,-1.4136351346969604,-2.6905908584594727,2.1463570594787598,-34.26860809326172
0,446504,-29.966886520385742,3.335813522338867,-9.672439575195312,10.429037094116211
0,446504,-40.74642562866211,1.273451805114746,11.570666313171387,20.963523864746094
0,446504,-45.19535827636719,-9.497194290161133,14.666732788085938,-20.339672088623047
0,446504,-23.33841323852539,8.149189949035645,-10.552164077758789,-0.18509824573993683
0,446505,-18.089828491210938,15.18757438659668,0.18246549367904663,11.007014274597168
0,446505,1.0361241102218628,-31.328996658325195,-3.82700777053833,-7.247183799743652
0,446505,40.981842041015625,-18.236040115356445,-30.29090118408203,-14.9993896484375
0,446505,37.18576431274414,23.51282501220703,-10.868531227111816,8.285938262939453
0,446505,28.092121124267578,11.405717849731445,47.38807678222656,31.34995460510254
0,446505,7.0080413818359375,3.3476176261901855,20.994054794311523,4.741288185119629
0,446506,-33.28805160522461,12.064962387084961,-26.770889282226562,4.781985759735107
0,446506,-16.715734481811523,4.537775993347168,-21.388795852661133,2.326265335083008
0,446506,-18.049591064453125,-10.424375534057617,4.920032024383545,12.220348358154297
0,446506,-26.3084774017334,-5.505260467529297,7.239712715148926,14.507863998413086
0,446506,9.430156707763672,-2.679920196533203,-30.54444694519043,-17.907773971557617
0,446506,7.261956214904785,-0.21414531767368317,12.782094955444336,-3.852534294128418
0,446507,20.577878952026367,0.3481367826461792,22.443361282348633,-3.9496631622314453
0,446507,32.42644119262695,-26.084352493286133,-27.509414672851562,2.470857620239258
0,446507,12.501994132995605,11.212104797363281,20.161584854125977,14.417057991027832
0,446507,6.136178970336914,36.185794830322266,12.498510360717773,8.980168342590332
0,446507,-4.1929545402526855,-26.73959732055664,-26.200307846069336,14.225332260131836
0,446507,-18.524953842163086,-2.2791805267333984,23.456096649169922,15.250640869140625
0,446508,-20.743213653564453,33.83061981201172,10.302718162536621,28.865503311157227
0,446508,-0.4836746156215668,-4.581060409545898,-26.304689407348633,30.39859390258789
0,446508,-9.820762634277344,-11.759285926818848,15.529598236083984,-3.6843655109405518
0,446508,-9.04922866821289,7.088432312011719,25.849037170410156,-24.477712631225586
0,446508,11.604992866516113,0.5455161929130554,-15.42668628692627,13.377066612243652
0,446508,6.71731424331665,-3.3710999488830566,-6.160476207733154,29.17508316040039
0,446509,18.859350204467773,11.189682960510254,18.190937042236328,9.453207969665527
0,446509,-0.3100600838661194,-3.879112720489502,3.6954519748687744,-10.995790481567383
0,446509,-30.4132080078125,-16.642183303833008,-21.962154388427734,-23.337806701660156
0,446509,-20.210172653198242,-4.164401531219482,-2.4724419116973877,10.688507080078125
0,446509,-8.945618629455566,8.420795440673828,12.751946449279785,2.7333314418792725
0,446509,-10.177810668945312,10.39236831665039,-9.608689308166504,-29.32675552368164
0,446510,10.835351943969727,-3.637225389480591,2.974118232727051,-4.651889801025391
0,446510,27.387636184692383,-9.838961601257324,-1.5447447299957275,3.4733641147613525
0,446510,-3.327120304107666,-7.75985860824585,-12.830824851989746,-25.093385696411133
0,446511,-27.680397033691406,-30.274015426635742,-21.797685623168945,67.67303466796875
0,446511,9.98858642578125,-33.269535064697266,-14.067557334899902,79.16850280761719
0,446512,40.08310317993164,28.533952713012695,5.936877250671387,-98.0128173828125
0,446512,14.272661209106445,33.49031066894531,-12.012453079223633,-65.1868667602539
0,446513,55.999794006347656,-35.239376068115234,17.633939743041992,-32.15351867675781
0,446514,110.51556396484375,-36.38004684448242,11.365931510925293,-116.626708984375
0,446516,88.46165466308594,-4.270755290985107,-14.115702629089355,-19.30839729309082
0,446518,80.86577606201172,28.897499084472656,28.963407516479492,246.96446228027344
0,446520,-65.36383819580078,60.493160247802734,13.161615371704102,295.4892883300781
0,446522,-251.77828979492188,55.66026306152344,11.49616813659668,-279.4358215332031
0,446524,-93.08064270019531,6.9641618728637695,36.55840301513672,-595.93701171875
0,446526,37.733219146728516,-41.3968391418457,-20.985511779785156,-237.842041015625
0,446528,-40.978397369384766,-2.041933536529541,-46.49693298339844,622.6214599609375
0,446530,-84.89444732666016,-1.820067286491394,12.611576080322266,524.4834594726562
0,446532,-80.65086364746094,-41.094844818115234,14.166787147521973,-994.0802001953125
0,446534,116.59952545166016,-67.84965515136719,-69.59918212890625,22.572132110595703
0,446536,218.91632080078125,-26.872211456298828,-30.052560806274414,1344.8782958984375
0,446538,109.7779312133789,107.46398162841797,68.97663116455078,-224.7760467529297
0,446540,-30.484174728393555,78.459716796875,59.74559020996094,-649.7787475585938
0,446542,-215.84365844726562,-24.76199722290039,15.764540672302246,234.9505157470703
0,446544,-74.07391357421875,-14.32353687286377,-26.213951110839844,285.20343017578125
0,446546,139.02696228027344,-0.7902730107307434,-13.010997772216797,-216.8577117919922
0,446548,28.190982818603516,-9.326178550720215,-6.573789596557617,-420.8264465332031
0,446654,-23.301368713378906,-45.2585334777832,-40.53627395629883,186.86477661132812
0,446654,-38.67537307739258,-33.117610931396484,-3.7055890560150146,320.4464111328125
0,446654,-65.49459838867188,62.93294906616211,34.92658233642578,-200.5027313232422
0,446654,-14.273051261901855,24.172061920166016,2.8425285816192627,-167.87030029296875
0,446655,-3.4069602489471436,-48.3048210144043,-11.130758285522461,-24.70876121520996
0,446655,25.601734161376953,-27.427165985107422,-22.372175216674805,-44.56106185913086
0,446655,55.73210144042969,-27.616470336914062,-34.98936462402344,45.93427658081055
0,446655,90.29827117919922,-25.73615074157715,1.182908058166504,76.58895874023438
0,446655,97.43580627441406,15.603894233703613,13.08120059967041,78.86454772949219
0,446656,3.1319580078125,38.23992919921875,30.52762222290039,46.266326904296875
0,446656,-37.364681243896484,16.48768424987793,48.26435089111328,-10.281063079833984
0,446656,-20.071388244628906,34.127567291259766,7.142511367797852,-42.930335998535156
0,446656,-42.123512268066406,47.65739822387695,-16.350862503051758,-94.30718231201172
0,446656,-62.5726318359375,-7.304052829742432,-4.660735130310059,-106.81878662109375
0,446656,-35.35684585571289,-35.537872314453125,-0.5200945138931274,-47.34703826904297
0,446657,-0.44007372856140137,-18.406435012817383,-21.568071365356445,-13.391749382019043
0,446657,36.56690979003906,-15.24040412902832,-21.44846534729004,10.425187110900879
0,446657,46.8361930847168,-9.68502426147461,-2.898083209991455,61.766334533691406
0,446657,19.218870162963867,27.941272735595703,19.419883728027344,76.71102142333984
0,446657,8.006429672241211,32.098697662353516,26.011098861694336,95.5980224609375
0,446657,-22.82204818725586,13.704939842224121,-1.6787903308868408,84.69982147216797
0,446658,-48.92167282104492,8.851778984069824,-6.659684181213379,6.763026714324951
0,446658,-48.94645690917969,-18.72437286376953,0.34828537702560425,-18.584808349609375
0,446658,-31.89095115661621,-14.022408485412598,11.34972095489502,-6.338409900665283
0,446658,5.813564777374268,9.657814025878906,-7.847471714019775,-27.685087203979492
0,446658,10.99335765838623,-12.837685585021973,-13.6351957321167,-14.721909523010254
0,446658,-4.6137166023254395,-12.975752830505371,13.182394027709961,25.114566802978516
0,446659,10.494322776794434,10.343229293823242,-3.590510845184326,15.718454360961914
0,446659,29.029314041137695,5.0268449783325195,-16.69146728515625,-6.517782211303711
0,446659,23.248371124267578,-2.3679919242858887,-11.647128105163574,-23.788116455078125
0,446659,-18.07061004638672,0.8131857514381409,8.666831016540527,-25.67242431640625
0,446659,-30.772165298461914,15.10041332244873,33.72704315185547,-53.07670211791992
0,446660,3.4644572734832764,18.058298110961914,12.225825309753418,-83.5239028930664
0,446660,-4.10067892074585,-12.097345352172852,-25.892349243164062,-27.8715763092041
0,446660,-23.74466323852539,-25.015474319458008,-16.297956466674805,29.508434295654297
0,446660,2.0733261108398438,0.4904863238334656,21.266998291015625,23.572429656982422
0,446660,24.695402145385742,12.41384220123291,13.391267776489258,10.40396785736084
0,446660,15.75450325012207,-9.88536262512207,-8.013447761535645,23.370372772216797
0,446660,25.16410255432129,-26.128047943115234,-10.020179748535156,17.347457885742188
0,446661,2.4949746131896973,35.041168212890625,-6.653953552246094,-2.4553980827331543
0,446661,-37.10067367553711,22.389209747314453,3.260931968688965,-10.812525749206543
0,446661,-6.431227684020996,-42.933677673339844,-6.72277307510376,-17.12504768371582
0,446661,-12.387750625610352,4.343368053436279,-5.518631458282471,14.08115005493164
0,446661,-27.53145408630371,16.40086555480957,-6.586118698120117,-19.88883399963379
0,446661,0.42661356925964355,-31.83540153503418,-17.911516189575195,-115.27723693847656
0,446662,2.8239145278930664,-21.00079345703125,4.8896965980529785,-45.29127502441406
0,446662,1.8939896821975708,16.59014892578125,23.044559478759766,53.076202392578125
0,446662,19.908533096313477,10.440441131591797,9.477445602416992,27.4522705078125
0,446662,33.969478607177734,-1.9811216592788696,-28.897113800048828,24.648218154907227
0,446662,-6.432112216949463,-4.586165428161621,-15.431341171264648,51.933013916015625
0,446663,-16.41884994506836,-12.217045783996582,24.120712280273438,34.09043502807617
0,446663,12.135905265808105,-0.7095405459403992,2.9364988803863525,20.625408172607422
0,446663,-7.831336498260498,17.222002029418945,-1.921738862991333,63.32451629638672
0,446664,-28.762733459472656,-31.277050018310547,-6.713862419128418,-95.45762634277344
0,446664,-7.974198818206787,-21.99596405029297,-2.7197165489196777,-118.41219329833984
0,446664,35.27275848388672,27.001161575317383,11.52269458770752,188.781982421875
0,446665,20.95905876159668,-13.397391319274902,-7.009339332580566,164.64271545410156
0,446665,-11.606772422790527,3.519571542739868,4.407772064208984,18.92680549621582
0,446666,10.552519798278809,0.2571192979812622,4.561082363128662,145.72027587890625
0,446669,-62.1949462890625,-25.250226974487305,-19.487945556640625,203.1560516357422
0,446670,-81.03119659423828,43.21949768066406,9.929023742675781,-164.58045959472656
0,446673,105.31652069091797,13.193609237670898,16.282880783081055,-654.5344848632812
0,446674,160.99522399902344,-46.75286865234375,-23.63613510131836,-269.5115051269531
0,446677,190.07159423828125,8.087244033813477,16.364145278930664,738.8472290039062
0,446678,94.96839904785156,37.75263595581055,29.294361114501953,423.5144958496094
0,446681,-276.5554504394531,62.40559387207031,4.342965602874756,-497.4884033203125
0,446682,-236.74105834960938,34.869712829589844,18.227975845336914,-261.0260925292969
0,446685,57.32838439941406,-39.938575744628906,8.721067428588867,214.99099731445312
0,446686,72.25457763671875,-18.081497192382812,-0.14246170222759247,741.6284790039062
0,446689,-28.763465881347656,41.2026481628418,-5.716908931732178,240.79319763183594
0,446690,-122.86983489990234,8.480793952941895,-33.14617156982422,-1937.759521484375
0,446692,-103.07914733886719,-78.43130493164062,-106.85652160644531,-2632.99267578125
0,446694,105.4294662475586,-96.64946746826172,-15.121308326721191,1646.049560546875
0,446696,278.2118225097656,-58.136234283447266,131.16726684570312,3952.130859375
0,446698,124.22622680664062,52.026580810546875,-18.927640914916992,-618.163818359375
0,446700,-155.2803497314453,108.87734985351562,-54.1971435546875,-1743.7698974609375
0,446702,-191.39236450195312,51.247886657714844,65.39529418945312,300.3656311035156
0,446704,46.26673889160156,-5.483460426330566,7.806191921234131,31.139406204223633
0,446820,220.84536743164062,-78.25129699707031,-35.19031524658203,-47.202728271484375
0,446820,59.66843795776367,-53.92595291137695,-11.18066692352295,292.40447998046875
0,446820,-125.33771514892578,77.01065826416016,28.960506439208984,319.46417236328125
0,446820,-90.34527587890625,75.98604583740234,36.83326721191406,47.82609939575195
0,446821,-72.39097595214844,-14.707666397094727,-0.790937066078186,-175.3310546875
0,446821,-79.35546112060547,-22.74532699584961,-15.487357139587402,-268.6803894042969
0,446821,-9.024950981140137,-5.527551174163818,-18.719078063964844,-315.7763671875
0,446821,19.993202209472656,-25.866056442260742,-15.926091194152832,-242.29747009277344
0,446821,22.367841720581055,-33.50334930419922,-8.08305835723877,-114.26160430908203
0,446821,48.472862243652344,-17.712759017944336,-5.183439254760742,3.1735680103302
0,446822,58.002220153808594,8.285648345947266,5.952108383178711,103.96845245361328
0,446822,24.913066864013672,29.747329711914062,22.000032424926758,163.71249389648438
0,446822,-6.0935235023498535,20.623579025268555,9.42760944366455,112.83306121826172
0,446822,-41.665138244628906,7.177473068237305,2.174715757369995,26.42920684814453
0,446822,-54.80619812011719,4.1915202140808105,-5.848099231719971,-33.67982864379883
0,446822,-17.27393913269043,0.7419441938400269,-5.8925461769104,-114.39244079589844
0,446823,9.202905654907227,-9.910123825073242,6.175529479980469,-143.3739776611328
0,446823,9.910090446472168,-2.1298069953918457,-11.325393676757812,-89.3874740600586
0,446823,15.524369239807129,-6.937042236328125,-20.651885986328125,13.99781608581543
0,446823,34.49211883544922,-21.223581314086914,4.5439043045043945,97.82919311523438
0,446823,29.978580474853516,-8.284652709960938,21.41303825378418,155.56565856933594
0,446824,14.466557502746582,-1.1212282180786133,-3.630167007446289,183.21287536621094
0,446824,-8.369916915893555,18.513710021972656,-2.948605537414551,123.66068267822266
0,446824,-25.736553192138672,19.01681900024414,17.19725227355957,38.38517379760742
0,446824,-15.578227043151855,17.353246688842773,1.8664547204971313,-31.261146545410156
0,446824,-11.648212432861328,7.89210844039917,-11.34805965423584,-82.69731140136719
0,446824,-23.57154083251953,-36.93950271606445,-8.500795364379883,-114.96458435058594
0,446825,1.8887146711349487,-14.038497924804688,-2.931640625,-103.83314514160156
0,446825,44.57929229736328,22.651216506958008,-2.021510124206543,-48.42588424682617
0,446825,23.057302474975586,-10.167551040649414,-10.342351913452148,16.12531280517578
0,446825,-12.293272018432617,-23.011825561523438,-9.681892395019531,68.83181762695312
0,446825,7.187561988830566,2.2688868045806885,10.841041564941406,65.06382751464844
0,446825,2.0214052200317383,27.031347274780273,21.405208587646484,52.60441970825195
0,446826,-6.936341285705566,27.45539093017578,16.003503799438477,25.00059700012207
0,446826,-3.0406301021575928,-24.02577781677246,-9.378056526184082,-8.783036231994629
0,446826,-17.80198860168457,-16.665464401245117,-19.984975814819336,13.83504581451416
0,446826,0.5710446238517761,28.08104705810547,11.12371826171875,0.23765870928764343
0,446826,-2.3645756244659424,3.2236075401306152,0.8228219151496887,-28.2188663482666
0,446826,-7.442529678344727,-11.699522018432617,-15.687625885009766,31.76121711730957
0,446827,16.86418342590332,-23.428939819335938,-8.392130851745605,86.23687744140625
0,446827,21.900066375732422,-35.779354095458984,-12.650137901306152,67.25079345703125
0,446827,-14.377047538757324,-7.274742126464844,7.443741321563721,64.88467407226562
0,446827,-34.57242202758789,18.216829299926758,22.615623474121094,38.505226135253906
0,446827,19.847978591918945,8.758357048034668,0.3390662372112274,-26.868717193603516
0,446827,15.409154891967773,-3.805962562561035,-9.671504020690918,-60.73069763183594
0,446828,-31.55058479309082,19.505233764648438,7.275345802307129,-78.35486602783203
0,446828,-12.006135940551758,30.305818557739258,-5.485231876373291,-84.35485076904297
0,446828,1.562487244606018,-16.383127212524414,-27.232929229736328,-83.33615112304688
0,446828,4.204489707946777,-26.268550872802734,18.23150634765625,-72.07057189941406
0,446828,4.851853847503662,22.08839988708496,33.96907043457031,-44.93113708496094
0,446828,6.382027626037598,18.469083786010742,-19.127342224121094,-12.855252265930176
0,446829,-3.5985591411590576,10.695581436157227,-4.722762107849121,6.295467853546143
0,446829,-10.418959617614746,17.067859649658203,17.768434524536133,11.624828338623047
0,446829,-17.147680282592773,-27.71176528930664,0.19947493076324463,13.419028282165527
0,446829,-23.699851989746094,-21.45868682861328,5.115250587463379,11.666086196899414
0,446829,28.227256774902344,37.324485778808594,-7.049781799316406,-1.6023261547088623
0,446829,14.652985572814941,0.6074643135070801,-5.3187479972839355,20.233184814453125
0,446830,-27.655481338500977,-37.0960578918457,25.629093170166016,53.75190734863281
0,446831,13.979222297668457,-3.4766883850097656,3.876572608947754,0.607109785079956
0,446831,31.840036392211914,-25.53009796142578,-35.43168640136719,-38.33147430419922
0,446831,13.015501022338867,-33.60174560546875,-14.604349136352539,-1.4426273107528687
0,446831,9.379283905029297,17.852197647094727,13.061281204223633,42.41468048095703
0,446832,3.3702759742736816,5.892736911773682,-10.687765121459961,54.7249641418457
0,446833,71.64724731445312,-6.449435234069824,-5.665804862976074,87.82945251464844
0,446834,137.58631896972656,6.733445167541504,8.597125053405762,54.496578216552734
0,446837,144.6392364501953,-26.94911003112793,-13.153557777404785,-293.3738708496094
0,446838,19.695009231567383,-21.694456100463867,-19.224607467651367,-157.59725952148438
0,446841,-277.0816650390625,71.81214141845703,43.66858673095703,454.8024597167969
0,446842,-209.02415466308594,89.9367904663086,67.9798355102539,168.80357360839844
0,446845,59.41038131713867,21.543441772460938,-38.40403747558594,-288.48187255859375
0,446846,41.282596588134766,-19.807035446166992,-47.786376953125,-39.41316223144531
0,446849,-106.14202880859375,-26.07179832458496,33.93777084350586,-117.66533660888672
0,446850,-123.03783416748047,21.381935119628906,32.79715347290039,-42.44660568237305
0,446853,101.97331237792969,-69.6322250366211,-45.24658203125,314.79522705078125
0,446854,158.4599151611328,-100.50963592529297,-64.27506256103516,12.86870288848877
0,446857,127.78862762451172,42.30940628051758,35.5366325378418,-109.08536529541016
0,446858,92.36872863769531,75.78702545166016,57.966827392578125,-159.50335693359375
0,446861,-224.7636260986328,34.798622131347656,-29.314332962036133,-494.6363220214844
0,446862,-196.22763061523438,-35.54944610595703,-32.27330017089844,6.4129109382629395
0,446865,118.85082244873047,-51.25752639770508,41.31795883178711,815.603759765625
0,446866,94.78797912597656,6.663827896118164,25.230791091918945,270.1074523925781
0,446868,9.976357460021973,49.13986587524414,-59.13416290283203,-498.91400146484375
0,446870,-106.28915405273438,32.29237747192383,-12.641286849975586,-351.9544372558594
0,446872,-162.91427612304688,-18.597497940063477,78.1403579711914,182.7681121826172
0,446874,122.34818267822266,-70.86077880859375,-20.8629207611084,400.24420166015625
0,447001,150.84791564941406,24.4049015045166,-24.699159622192383,-94.16073608398438
0,447001,-82.31410217285156,93.24691009521484,42.760704040527344,-203.7666778564453
0,447001,-14.239459991455078,-61.486637115478516,-36.32124710083008,82.84806823730469
0,447002,86.277099609375,-58.08299255371094,-12.465826988220215,13.706872940063477
0,447002,58.1502799987793,11.148809432983398,5.657143592834473,-48.51808166503906
0,447002,23.65155601501465,-18.305051803588867,-10.390406608581543,14.329057693481445
0,447002,-3.6332390308380127,22.740312576293945,27.06373405456543,17.577173233032227
0,447002,-36.53837585449219,40.70771408081055,-3.6232779026031494,-1.2634040117263794
0,447002,-72.78233337402344,0.4224647581577301,-22.30814552307129,-10.36506462097168
0,447003,-91.41714477539062,-14.105061531066895,7.988565444946289,36.24812316894531
0,447003,-53.966896057128906,7.879574775695801,6.183104991912842,52.10112762451172
0,447003,21.927114486694336,-5.142123699188232,-18.600574493408203,1.0490341186523438
0,447003,23.310338973999023,-26.77760887145996,-4.725244045257568,0.014416302554309368
0,447003,32.849971771240234,-11.814972877502441,11.946595191955566,-3.0169544219970703
0,447003,62.497711181640625,11.254720687866211,3.005702257156372,-37.39250946044922
0,447004,44.38176345825195,-0.09918908029794693,7.0926833152771,-30.703351974487305
0,447004,6.669879913330078,-1.88486909866333,7.932928085327148,12.084959983825684
0,447004,-19.779512405395508,34.61530303955078,2.067781925201416,-10.394614219665527
0,447004,-32.9608154296875,15.821681022644043,-7.368439197540283,-27.645343780517578
0,447004,-48.85567092895508,-2.9594013690948486,0.20040646195411682,6.6600189208984375
0,447005,-28.119903564453125,-7.916355609893799,6.598725318908691,1.3308855295181274
0,447005,3.0810434818267822,-7.488021373748779,-1.678649663925171,-6.795764446258545
0,447005,17.214828491210938,21.528396606445312,5.741311073303223,-33.917572021484375
0,447005,34.33476638793945,-10.377378463745117,-9.871508598327637,-50.866024017333984
0,447005,22.627832412719727,-38.36351776123047,-3.3865578174591064,-22.32728385925293
0,447005,19.75260353088379,12.502573013305664,8.009542465209961,-25.262556076049805
0,447006,30.625307083129883,22.131919860839844,-9.973207473754883,-33.193641662597656
0,447006,-29.035385131835938,-7.479831695556641,-6.431634902954102,-6.4348602294921875
0,447006,-44.8172607421875,22.209672927856445,7.327423572540283,21.316965103149414
0,447006,-2.2166430950164795,15.69446086883545,-1.3532674312591553,20.240190505981445
0,447006,-32.699405670166016,-28.946876525878906,9.900541305541992,16.049692153930664
0,447006,-20.968870162963867,4.523423671722412,6.251615524291992,13.19537353515625
0,447007,35.56501007080078,2.4681389331817627,-24.465394973754883,0.21193736791610718
0,447007,20.50840187072754,-22.079151153564453,2.0005078315734863,5.226507186889648
0,447007,19.06197738647461,6.454652786254883,1.6631231307983398,15.27457046508789
0,447007,25.352975845336914,-4.629277229309082,-12.40451431274414,15.898395538330078
0,447007,0.21082192659378052,-27.6960391998291,5.230801582336426,-3.910686492919922
0,447007,-20.49030303955078,3.4942057132720947,18.052488327026367,-4.252729892730713
0,447008,-21.208419799804688,29.049259185791016,19.98348045349121,12.026784896850586
0,447008,-15.465559005737305,13.377201080322266,0.3573613464832306,15.904670715332031
0,447008,-26.317354202270508,-9.715890884399414,-18.764780044555664,41.043861389160156
0,447008,2.2239463329315186,-25.1643123626709,-23.202377319335938,44.06011199951172
0,447008,10.311176300048828,-8.607945442199707,12.113476753234863,33.70375061035156
0,447008,3.0232768058776855,8.223053932189941,10.527563095092773,15.118390083312988
0,447009,2.748044729232788,-0.607068657875061,-32.40391159057617,14.330842018127441
0,447009,-8.240835189819336,6.453495502471924,7.692131996154785,-2.6855602264404297
0,447009,2.372126340866089,0.8261165022850037,22.54828453063965,-28.75484275817871
0,447009,-1.6594568490982056,-11.491785049438477,-3.3814268112182617,-2.4009878635406494
0,447009,5.2766289710998535,9.860376358032227,6.758093357086182,-21.525325775146484
0,447009,2.7346673011779785,5.6496076583862305,-1.878017783164978,-31.944000244140625
0,447010,-1.901595950126648,-11.790873527526855,-6.445152282714844,-28.083723068237305
0,447010,-2.9297256469726562,-18.19843292236328,-6.110742568969727,-51.63004684448242
0,447010,6.319033145904541,-13.548860549926758,6.188966274261475,-35.6709098815918
0,447010,31.24434471130371,16.349727630615234,5.942620754241943,-10.328214645385742
0,447010,7.505176544189453,14.684267044067383,-4.274736404418945,-27.174360275268555
0,447010,11.735496520996094,-10.515530586242676,11.99118709564209,-33.479095458984375
0,447011,26.718950271606445,13.182622909545898,-7.752527236938477,-31.912458419799805
0,447011,-11.437052726745605,12.578097343444824,-11.892157554626465,-48.38612365722656
0,447011,-9.711637496948242,-27.230934143066406,-8.912701606750488,16.00686264038086
0,447011,8.751008033752441,-24.801395416259766,-13.02028751373291,108.17854309082031
0,447011,-17.579429626464844,-4.519284248352051,16.74022674560547,101.84801483154297
0,447011,-4.215425968170166,5.391473293304443,-10.158600807189941,72.1302261352539
0,447012,15.60361385345459,3.7517900466918945,-20.830575942993164,92.02371215820312
0,447013,50.10986328125,-16.179386138916016,0.06420572847127914,252.9424285888672
0,447013,60.73283386230469,-14.586183547973633,-13.319157600402832,138.9495391845703
0,447013,-38.59682083129883,32.14662170410156,12.645262718200684,-227.46214294433594
0,447013,-38.024654388427734,19.748701095581055,30.981061935424805,-103.69732666015625
0,447014,20.974061965942383,17.731597900390625,21.097393035888672,26.056808471679688
0,447014,14.399618148803711,30.29294776916504,-8.423406600952148,-69.94097137451172
0,447015,58.625240325927734,-37.5263557434082,-23.832019805908203,-92.48086547851562
0,447016,107.40699005126953,-15.19908618927002,15.87835693359375,-329.80828857421875
0,447018,15.086447715759277,90.74188995361328,47.6043815612793,-44.13682556152344
0,447020,-182.05455017089844,107.0544204711914,38.22899627685547,201.83705139160156
0,447022,-198.87770080566406,-10.962526321411133,-0.3350144326686859,-157.76593017578125
0,447024,-40.85618209838867,-109.45218658447266,-28.553022384643555,168.15078735351562
0,447026,24.052309036254883,-19.759220123291016,-21.875568389892578,215.74658203125
0,447028,-18.06911277770996,63.76416015625,-0.774351179599762,-228.1920166015625
0,447030,-106.82257843017578,-18.100025177001953,24.983154296875,-97.9828872680664
0,447032,30.72623062133789,-105.42469024658203,-15.919894218444824,293.2518310546875
0,447034,215.36741638183594,-26.843637466430664,-69.56175994873047,150.929443359375
0,447036,167.5984649658203,14.214537620544434,-33.00394058227539,-259.63037109375
0,447038,34.975162506103516,-29.65406036376953,6.1720147132873535,-565.5794067382812
0,447040,-161.6009063720703,68.14140319824219,68.06242370605469,314.2293701171875
0,447042,-110.2575912475586,41.674217224121094,38.33004379272461,951.5303344726562
0,447045,34.37984085083008,-62.71567916870117,-50.61870574951172,-682.5267333984375
0,447046,23.136186599731445,-7.765545845031738,-25.6456298828125,-466.08758544921875
0,447049,-39.13673782348633,31.87993621826172,26.215229034423828,483.6443786621094
0,447050,-126.43953704833984,21.497976303100586,8.78555965423584,-111.97808074951172
0,447053,53.34697341918945,-18.297008514404297,-19.08539581298828,148.3273162841797
0,447054,189.35862731933594,-57.537410736083984,3.6005966663360596,262.69329833984375
0,447057,111.03263092041016,-10.695914268493652,19.388689041137695,-163.40350341796875
0,447058,23.16786766052246,65.03153991699219,26.89399528503418,-117.66006469726562
0,447196,-102.52007293701172,-5.01144552230835,-46.9263801574707,-28.192276000976562
0,447196,-7.182423114776611,-68.89739227294922,-49.00758361816406,-75.47608184814453
0,447197,99.83596801757812,24.020627975463867,41.98163604736328,-20.342655181884766
0,447197,44.69813919067383,38.94731521606445,7.779149532318115,-1.41977858543396
0,447197,2.1953768730163574,-8.21191120147705,-22.97646713256836,-6.12099552154541
0,447197,-58.70802307128906,4.591232776641846,14.8996000289917,48.75114822387695
0,447197,-110.0262222290039,33.9697380065918,34.454833984375,36.52168655395508
0,447197,-107.46980285644531,30.988536834716797,23.934040069580078,20.318063735961914
0,447198,-65.82582092285156,16.517459869384766,0.08341854065656662,20.236129760742188
0,447198,-36.59449768066406,-0.6247222423553467,-23.39242172241211,-26.8803653717041
0,447198,-0.3270541727542877,-39.24319076538086,-18.07979965209961,-32.39653015136719
0,447198,54.39547348022461,-15.585329055786133,7.1287031173706055,-3.1890981197357178
0,447198,64.67249298095703,16.767702102661133,9.720039367675781,12.775062561035156
0,447199,45.44698715209961,7.8152618408203125,9.00816535949707,-0.9123412370681763
0,447199,17.680091857910156,4.913050174713135,4.027853012084961,1.548387885093689
0,447199,-28.310733795166016,-1.4300663471221924,-16.958314895629883,18.598102569580078
0,447199,-43.63106155395508,9.148345947265625,-1.1021419763565063,19.66421890258789
0,447199,-36.81058883666992,3.7647578716278076,7.9516472816467285,22.434459686279297
0,447199,-51.032997131347656,-37.044124603271484,-20.98308753967285,11.847212791442871
0,447200,-29.286638259887695,-27.120895385742188,-7.713258743286133,-2.734470844268799
0,447200,40.59185791015625,20.541906356811523,10.178130149841309,-33.330238342285156
0,447200,46.96809005737305,-4.832039833068848,2.6585092544555664,-15.26351261138916
0,447200,37.755455017089844,-19.110124588012695,-4.8573079109191895,8.936923027038574
0,447200,49.347049713134766,1.4941869974136353,-8.708003044128418,-26.909683227539062
0,447200,7.223077774047852,-14.282727241516113,8.014816284179688,2.2577176094055176
0,447201,-11.202166557312012,14.868147850036621,2.6636223793029785,21.359519958496094
0,447201,-24.265684127807617,18.22185516357422,-3.6915476322174072,8.776006698608398
0,447201,-48.959075927734375,-4.945093631744385,7.082613468170166,10.784361839294434
0,447201,-16.19528579711914,6.152089595794678,1.0528864860534668,-15.80858325958252
0,447201,9.745133399963379,-12.205591201782227,7.20737361907959,-2.9371607303619385
0,447201,5.3017683029174805,-15.70127010345459,-3.1242876052856445,8.250983238220215
0,447202,20.170608520507812,26.469160079956055,-1.141459345817566,-18.028854370117188
0,447202,28.72064971923828,4.073666095733643,11.326173782348633,-12.991292953491211
0,447202,20.793378829956055,-19.380287170410156,-10.782624244689941,-2.812049388885498
0,447202,12.301291465759277,11.602225303649902,-7.421514987945557,-17.815452575683594
0,447202,-17.328067779541016,0.7358205914497375,-8.918170928955078,0.10093387216329575
0,447202,-23.405208587646484,-12.104574203491211,2.861670732498169,30.145484924316406
0,447203,1.817240834236145,6.243729591369629,20.492172241210938,20.31239128112793
0,447203,-3.8815793991088867,12.65540885925293,-1.2679396867752075,-1.4286857843399048
0,447203,-21.059242248535156,-4.8992743492126465,-18.21400260925293,-21.30656623840332
0,447203,-2.6116695404052734,-1.3029253482818604,-12.547934532165527,-6.982543468475342
0,447203,24.286510467529297,10.971251487731934,11.143266677856445,6.0242438316345215
0,447203,23.914432525634766,6.881500244140625,-3.304518222808838,-20.008211135864258
0,447204,3.838444471359253,-32.488956451416016,-14.234227180480957,-8.818089485168457
0,447204,-11.889418601989746,-20.633455276489258,15.189034461975098,20.844005584716797
0,447204,4.156132698059082,43.384944915771484,12.987859725952148,19.692981719970703
0,447204,-9.530887603759766,11.104777336120605,3.8232882022857666,-4.259114742279053
0,447204,-25.239774703979492,-30.350927352905273,0.0071981558576226234,-18.04513168334961
0,447204,-0.47287553548812866,-10.66225814819336,-22.224794387817383,6.482521057128906
0,447205,-7.746830463409424,-17.294071197509766,-3.4404795169830322,17.410579681396484
0,447205,-1.0196996927261353,7.888120174407959,13.92888069152832,-11.125686645507812
0,447205,22.581876754760742,30.412912368774414,0.514691948890686,-13.058553695678711
0,447205,15.823847770690918,-8.558374404907227,-5.046618461608887,6.865091800689697
0,447205,3.9710984230041504,-7.605692386627197,2.846536874771118,0.9202340245246887
0,447206,1.969618797302246,4.2075724601745605,9.184913635253906,12.651283264160156
0,447206,-0.3615249693393707,21.58557891845703,-13.368522644042969,17.351144790649414
0,447206,-0.4971580505371094,12.017518997192383,0.5759108066558838,-15.290511131286621
0,447206,5.252590179443359,-26.915321350097656,20.842832565307617,-13.975357055664062
0,447206,-9.988874435424805,12.00441837310791,-2.930131435394287,9.476717948913574
0,447206,-20.608110427856445,22.895015716552734,-4.3469414710998535,3.5695159435272217
0,447207,8.509238243103027,-25.243209838867188,15.320387840270996,-11.181764602661133
0,447207,17.182741165161133,-4.436452865600586,7.447815418243408,-12.838215827941895
0,447207,3.2470309734344482,3.0576698780059814,-1.0202128887176514,6.22942590713501
0,447207,-3.5269265174865723,-17.084369659423828,-0.4034571647644043,18.253774642944336
0,447207,-6.7132344245910645,17.76326560974121,-15.371052742004395,-4.869306564331055
0,447207,5.497630596160889,21.602231979370117,-3.2826805114746094,-18.290307998657227
0,447208,-14.056455612182617,-5.9824538230896,12.84003734588623,-2.767244577407837
0,447208,-21.921781539916992,13.174931526184082,-11.200287818908691,8.331879615783691
0,447208,1.71177339553833,9.891669273376465,-14.905011177062988,7.461184978485107
0,447209,-46.01409149169922,-29.646265029907227,14.733909606933594,28.523971557617188
0,447209,-47.387569427490234,-10.278514862060547,11.697360038757324,12.999394416809082
0,447210,38.96854782104492,11.371856689453125,-18.760194778442383,-31.047393798828125
0,447210,31.465892791748047,-3.1809170246124268,-10.13549518585205,3.183056116104126
0,447210,-4.485482692718506,-11.871644973754883,7.303062915802002,27.168489456176758
0,447210,13.978616714477539,-15.075538635253906,5.367398738861084,-14.036513328552246
0,447211,36.74117660522461,-32.69889450073242,-14.78930950164795,-17.17168426513672
0,447213,91.02249145507812,-58.12135696411133,-41.58609390258789,-24.527406692504883
0,447214,113.8870620727539,-19.579299926757812,-13.799529075622559,-64.75190734863281
0,447217,155.18687438964844,63.198795318603516,27.364852905273438,-4.9474616050720215
0,447218,49.159095764160156,108.9224853515625,60.231300354003906,35.124046325683594
0,447221,-277.2255859375,41.627662658691406,15.243496894836426,22.11192512512207
0,447222,-189.22865295410156,-72.04244232177734,-43.273902893066406,47.3626594543457
0,447225,51.23566818237305,-60.854644775390625,-10.77414608001709,28.143550872802734
0,447226,-23.002595901489258,16.438508987426758,-0.8756850361824036,-22.27326011657715
0,447229,-110.6343765258789,77.01008605957031,36.146820068359375,-52.9840087890625
0,447230,-79.46378326416016,53.12065124511719,29.562517166137695,11.420180320739746
0,447233,101.90507507324219,-91.2933578491211,-49.98966979980469,106.90577697753906
0,447234,153.98826599121094,-86.1190414428711,-44.54750442504883,-7.982049942016602
0,447237,135.30682373046875,29.03544044494629,7.7584228515625,-212.4029998779297
0,447238,74.18233489990234,44.75798416137695,50.89742660522461,-105.19711303710938
0,447241,-228.80030822753906,46.408878326416016,24.89702033996582,234.7380828857422
0,447242,-157.0501251220703,13.742289543151855,-14.575373649597168,138.32376098632812
0,447245,124.52645111083984,-57.45976257324219,-17.614290237426758,-114.78884887695312
0,447246,42.338687896728516,-35.724159240722656,-21.495325088500977,-0.11988802254199982
0,447249,-85.24044036865234,76.10103607177734,35.974388122558594,-7.559076309204102
0,447250,-97.1010971069336,30.578006744384766,32.441776275634766,-5.63471794128418
0,447253,62.58888626098633,-110.25445556640625,-52.66561508178711,24.06844711303711
0,447254,140.3218994140625,-31.03475570678711,-34.550045013427734,-17.661949157714844
0,447403,-68.61419677734375,99.1294174194336,48.88485336303711,50.86552810668945
0,447403,-102.86212158203125,28.45962905883789,35.95823287963867,-12.193146705627441
0,447403,71.59272766113281,-49.33604431152344,-47.47562789916992,-65.38443756103516
0,447403,94.24109649658203,-36.015865325927734,-35.850074768066406,-11.391181945800781
0,447404,46.75503158569336,1.1275705099105835,22.418622970581055,-18.09383201599121
0,447404,55.466583251953125,28.067609786987305,8.826949119567871,-20.617441177368164
0,447404,9.771622657775879,-4.604781150817871,-15.656527519226074,16.800310134887695
0,447404,-62.7008171081543,18.329925537109375,12.645316123962402,35.97066116333008
0,447404,-73.95191192626953,33.278743743896484,25.271560668945312,23.722625732421875
0,447404,-62.56901550292969,-30.338712692260742,5.1977081298828125,10.729044914245605
0,447405,-42.58238983154297,-9.816349029541016,-1.837791919708252,16.843990325927734
0,447405,-2.7127997875213623,21.45134735107422,-5.238250732421875,-3.675570487976074
0,447405,27.73906707763672,-24.19035530090332,-8.50390911102295,-34.61934280395508
0,447405,56.80824661254883,-36.66521072387695,-11.113133430480957,-27.71361541748047
0,447405,71.90324401855469,-4.409389972686768,-4.849811553955078,-6.610804080963135
0,447405,31.6921329498291,9.144344329833984,-4.857205867767334,-5.739635944366455
0,447406,-18.605466842651367,6.333351135253906,-3.4756131172180176,-0.9332160949707031
0,447406,-39.866458892822266,0.9056347608566284,14.131677627563477,4.106647968292236
0,447406,-44.10085678100586,7.401282787322998,15.407731056213379,24.918184280395508
0,447406,-39.897979736328125,17.60445785522461,2.409479856491089,26.249013900756836
0,447406,-16.959823608398438,2.300419330596924,-13.715079307556152,-14.145770072937012
0,447406,5.76474142074585,-18.992107391357422,-11.830755233764648,-4.921638011932373
0,447407,18.28746795654297,-9.784527778625488,12.988113403320312,-5.838147163391113
0,447407,47.21564483642578,32.75345230102539,0.7403944134712219,-23.503536224365234
0,447407,22.777997970581055,5.31821346282959,-7.183257102966309,-3.6234230995178223
0,447407,1.255721926689148,-14.10033893585205,16.244237899780273,7.540736198425293
0,447407,-13.506217956542969,20.437015533447266,12.875252723693848,0.723900556564331
0,447408,-42.217628479003906,8.103796005249023,-6.415594100952148,8.464265823364258
0,447408,-7.716907024383545,6.777585506439209,-14.289948463439941,16.330602645874023
0,447408,-16.22064208984375,-8.780220031738281,-6.968561172485352,-2.4078829288482666
0,447408,-46.42027282714844,-30.075420379638672,-6.910366535186768,-1.1220430135726929
0,447408,-6.202698230743408,-13.287240028381348,-7.736072540283203,28.9415225982666
0,447408,28.403614044189453,13.039114952087402,9.506573677062988,23.74124526977539
0,447409,30.128944396972656,-0.5717494487762451,6.996142864227295,-22.84394073486328
0,447409,22.685007095336914,-19.95466423034668,-7.7433180809021,0.24995990097522736
0,447409,9.005828857421875,11.727400779724121,-3.8176770210266113,20.280935287475586
0,447409,11.420552253723145,14.621601104736328,11.794635772705078,-27.0723876953125
0,447409,14.175558090209961,-15.383894920349121,-6.955448150634766,-16.22361946105957
0,447409,-7.723974227905273,-11.57278060913086,-18.484983444213867,-0.6421887278556824
0,447410,-32.23359680175781,21.008146286010742,25.518796920776367,-1.378066897392273
0,447410,-15.958344459533691,9.6738862991333,17.130483627319336,0.18719282746315002
0,447410,19.815210342407227,-12.621986389160156,-18.209903717041016,-12.81495475769043
0,447410,25.937984466552734,-5.505990982055664,-13.218974113464355,11.2962007522583
0,447410,10.485814094543457,8.191071510314941,9.300199508666992,8.502846717834473
0,447410,7.651126861572266,1.4779467582702637,7.861616134643555,-20.92572593688965
0,447410,4.680805683135986,-20.185941696166992,-4.327273845672607,5.457070827484131
0,447411,12.045493125915527,1.1395723819732666,-11.999838829040527,9.968847274780273
0,447411,14.565638542175293,-0.22111718356609344,-8.96514892578125,-8.29999828338623
0,447411,-4.688179969787598,-9.346694946289062,4.5406084060668945,20.491626739501953
0,447411,-10.512893676757812,6.759814262390137,-6.067380905151367,12.24150562286377
0,447411,-13.258642196655273,4.460180759429932,17.980308532714844,-29.788976669311523
0,447412,17.233585357666016,-3.781196355819702,18.37113380432129,0.28477659821510315
0,447412,9.213959693908691,-1.9251822233200073,-9.87669849395752,10.31106948852539
0,447412,-9.83248519897461,-2.8286898136138916,-21.053096771240234,-43.957916259765625
0,447412,25.190317153930664,-2.231901168823242,0.057928331196308136,-15.306642532348633
0,447412,16.039281845092773,23.210891723632812,35.48860549926758,22.380708694458008
0,447412,-6.8744215965271,16.968679428100586,-4.1681809425354,-5.257497310638428
0,447413,-24.09197235107422,-10.312970161437988,-17.781660079956055,6.809813976287842
0,447413,-2.913574695587158,-8.897001266479492,4.418133735656738,19.59385871887207
0,447413,-2.8984763622283936,2.7560958862304688,9.351556777954102,2.318535327911377
0,447413,-25.308799743652344,2.719266176223755,4.561202526092529,-8.258923530578613
0,447413,15.84071159362793,7.601907253265381,-26.192445755004883,0.43152907490730286
0,447413,-1.3203115463256836,-9.417922973632812,-7.44868803024292,13.39568042755127
0,447414,-1.376728892326355,-21.22612762451172,8.338504791259766,-13.130254745483398
0,447414,29.57649803161621,5.43387508392334,-15.37282943725586,3.975532054901123
0,447414,-1.0754724740982056,6.048342704772949,9.84202766418457,12.260995864868164
0,447414,-4.867181301116943,-4.945707321166992,24.86678123474121,-15.223092079162598
0,447414,-8.445016860961914,4.910379886627197,6.16970682144165,16.238121032714844
0,447414,-16.895217895507812,11.949138641357422,-3.5186688899993896,2.1876301765441895
0,447415,28.989261627197266,1.6932660341262817,-12.931891441345215,-15.75220012664795
0,447415,2.015774965286255,-8.498418807983398,-10.144481658935547,5.598404407501221
0,447415,-23.801427841186523,3.004533052444458,8.028587341308594,-5.821259021759033
0,447415,31.75058937072754,17.566415786743164,7.749106407165527,-7.70288610458374
0,447415,11.741033554077148,-1.4167659282684326,3.508683681488037,4.202765941619873
0,447417,17.107059478759766,-3.6654584407806396,-0.44947871565818787,-23.352195739746094
0,447417,17.107250213623047,12.64637565612793,-1.7592073678970337,-19.318588256835938
0,447417,-57.64472579956055,-8.271007537841797,15.469730377197266,23.610260009765625
0,447417,-24.08554458618164,-0.0540052093565464,-4.077808380126953,3.437683582305908
0,447417,9.054539680480957,23.31914710998535,-4.138586521148682,-4.96508264541626
0,447417,-34.78862762451172,-0.7124015688896179,13.011127471923828,18.70376205444336
0,447418,-10.759064674377441,0.29213738441467285,-8.923373222351074,5.1790361404418945
0,447419,-38.0820426940918,13.114605903625488,4.227364540100098,-6.061500549316406
0,447420,-119.90821838378906,11.157149314880371,8.913627624511719,62.62620162963867
0,447423,-84.75361633300781,-20.922771453857422,-7.991117477416992,58.904788970947266
0,447424,10.415596008300781,-39.39698028564453,-10.9478759765625,-52.88916015625
0,447427,49.958770751953125,14.657071113586426,-0.6113258004188538,-21.337169647216797
0,447428,-33.55555725097656,32.249671936035156,16.478038787841797,35.00938034057617
0,447431,-50.33600997924805,-54.988739013671875,-34.486454010009766,15.295557022094727
0,447432,136.54208374023438,-70.62630462646484,-38.362483978271484,-8.873372077941895
0,447435,299.02777099609375,-4.635484218597412,6.612487316131592,-84.34750366210938
0,447436,172.67764282226562,7.7366042137146,-3.252964735031128,-81.32234954833984
0,447439,-144.21730041503906,85.94396209716797,44.610713958740234,23.698421478271484
0,447440,-194.5162811279297,56.57807159423828,25.73741912841797,51.00170135498047
0,447443,-35.92158889770508,-58.547908782958984,-37.638427734375,30.88898468017578
0,447444,29.16742706298828,-15.107939720153809,13.607069969177246,18.713764190673828
0,447447,18.70462989807129,29.36383819580078,21.358821868896484,-36.890018463134766
0,447448,-79.62468719482422,19.026426315307617,4.459723949432373,-8.220149993896484
0,447450,-116.10474395751953,-5.893853187561035,-5.999030113220215,58.92857360839844
0,447452,83.97321319580078,-38.22492980957031,-28.464088439941406,7.677346706390381
0,447454,168.1558074951172,-44.54704284667969,-24.626720428466797,-48.4220085144043
0,447456,119.73932647705078,-6.888806343078613,-17.974885940551758,-80.68001556396484
0,447458,60.18150329589844,25.956682205200195,35.10226821899414,-20.326337814331055
0,447460,-203.17691040039062,43.02036666870117,39.66477966308594,96.00154876708984
0,447462,-148.37396240234375,16.7573299407959,-23.817241668701172,49.242183685302734
0,447464,103.774658203125,-44.918731689453125,-15.371593475341797,-33.901771545410156
0,447623,71.0223617553711,-3.507502317428589,25.58211326599121,-13.174909591674805
0,447623,16.3183536529541,53.17183303833008,0.704775333404541,-9.164732933044434
0,447623,-54.60045623779297,14.91058349609375,-7.878255844116211,-3.4908640384674072
0,447623,-100.02708435058594,-13.401439666748047,28.156625747680664,20.434406280517578
0,447623,-58.39215850830078,3.47359037399292,0.1972372978925705,1.9632620811462402
0,447623,-22.1621150970459,-13.920501708984375,-29.9998836517334,-5.370855331420898
0,447624,12.474737167358398,-18.8013973236084,6.438325881958008,6.6739726066589355
0,447624,50.16140365600586,8.85728931427002,7.895349979400635,-10.170442581176758
0,447624,72.57067108154297,-33.30592346191406,-32.407073974609375,-42.873016357421875
0,447624,68.07669830322266,-33.34138488769531,-13.136537551879883,-18.894798278808594
0,447624,37.76795196533203,25.21059799194336,13.7949800491333,19.563671112060547
0,447625,-11.517221450805664,25.012300491333008,14.80134105682373,3.4922895431518555
0,447625,-42.734222412109375,-4.059041976928711,10.07061767578125,5.428369522094727
0,447625,-37.65835952758789,-7.766689300537109,-7.612709999084473,27.58555793762207
0,447625,-40.97957992553711,9.183510780334473,-12.836665153503418,27.3928165435791
0,447625,-39.65046310424805,7.054169178009033,10.113293647766113,13.490375518798828
0,447625,0.7769335508346558,5.060234069824219,11.236939430236816,-1.0677825212478638
0,447626,38.64680099487305,-17.849706649780273,-14.312336921691895,-5.453917980194092
0,447626,44.32627868652344,-5.7806572914123535,-6.355971813201904,-22.91631507873535
0,447626,32.77971267700195,9.692453384399414,-5.1728339195251465,-24.35117530822754
0,447626,20.292747497558594,-23.912033081054688,-10.351625442504883,12.08187198638916
0,447626,-4.942594051361084,20.296144485473633,16.854341506958008,8.504130363464355
0,447626,-17.664297103881836,37.12785720825195,15.392308235168457,-21.29757308959961
0,447627,-31.63744354248047,-3.2939915657043457,3.081303119659424,10.356306076049805
0,447627,-50.8598747253418,-6.6871185302734375,21.41849708557129,30.245885848999023
0,447627,-13.5272798538208,-5.052903652191162,-10.625137329101562,11.25236988067627
0,447627,15.361579895019531,7.909787178039551,-18.144180297851562,2.570561408996582
0,447627,-0.017665911465883255,0.4747452139854431,21.643783569335938,-10.678621292114258
0,447628,28.46497917175293,-7.773488998413086,0.9127684831619263,-2.5138959884643555
0,447628,25.10619354248047,-2.7207541465759277,-19.906896591186523,14.469470024108887
0,447628,-6.286330699920654,7.939258575439453,-12.098433494567871,-9.10063648223877
0,447628,-4.650880336761475,5.317990779876709,-1.1935075521469116,-21.063167572021484
0,447628,-13.679011344909668,-30.620901107788086,2.176342487335205,-6.090414524078369
0,447628,-13.991622924804688,-3.064826250076294,0.07353298366069794,6.846637725830078
0,447629,-34.81325912475586,14.535761833190918,5.350958347320557,5.624601364135742
0,447629,-7.170060157775879,-32.50764465332031,-3.3039028644561768,-5.425522327423096
0,447629,36.068729400634766,-5.872353553771973,-3.7429604530334473,-12.561182022094727
0,447629,-3.9311630725860596,12.026174545288086,-10.368268966674805,-2.749253988265991
0,447629,0.17390619218349457,-19.860504150390625,-7.997404098510742,-0.6517331600189209
0,447629,37.403011322021484,-4.0602545738220215,6.092428684234619,-7.599956035614014
0,447630,11.67534065246582,28.805587768554688,1.2426261901855469,20.61896514892578
0,447630,1.0908610820770264,14.706547737121582,9.670234680175781,0.09355973452329636
0,447630,8.757447242736816,-11.490570068359375,-5.725991249084473,-14.88334846496582
0,447630,-17.858537673950195,6.022374629974365,1.1260422468185425,15.8014554977417
0,447630,1.3610659837722778,10.77707576751709,26.543458938598633,8.994152069091797
0,447630,25.706005096435547,-0.06221381202340126,-4.392946720123291,-4.256870269775391
0,447631,-1.9192103147506714,-1.555640459060669,-22.037553787231445,-7.349431991577148
0,447631,8.070066452026367,-18.401710510253906,-7.918892860412598,-6.505095958709717
0,447631,6.644420146942139,-28.048725128173828,21.432636260986328,9.572598457336426
0,447631,6.851078510284424,24.78917694091797,14.648276329040527,-5.113846778869629
0,447631,32.96877670288086,33.40420150756836,-21.30380630493164,-32.83079528808594
0,447631,-7.8124260902404785,-31.49927520751953,0.425089031457901,-14.573846817016602
0,447632,-41.67953109741211,-21.735349655151367,13.498879432678223,15.359259605407715
0,447632,4.739134311676025,25.994760513305664,0.8779611587524414,29.13856315612793
0,447632,27.036788940429688,19.57840919494629,-8.912847518920898,-1.7356860637664795
0,447632,-28.296785354614258,-2.808044910430908,-21.546384811401367,-19.693023681640625
0,447632,-19.78364372253418,-0.16580326855182648,6.799666404724121,-18.17168426513672
0,447632,32.01911926269531,-17.857315063476562,16.48723793029785,4.967255115509033
0,447633,12.213780403137207,-18.246503829956055,-16.919601440429688,34.43278503417969
0,447633,-11.314059257507324,4.12331485748291,-9.166641235351562,-5.066154956817627
0,447633,-8.62015438079834,1.9312220811843872,13.361260414123535,-20.183597564697266
0,447633,15.263524055480957,16.355506896972656,-5.212474822998047,5.199916839599609
0,447633,7.342914581298828,0.7336382865905762,-14.151872634887695,19.48413848876953
0,447633,-26.939878463745117,-14.567553520202637,17.49057960510254,3.687424421310425
0,447634,0.02989012748003006,16.13374900817871,11.16537857055664,-10.682759284973145
0,447634,13.536108016967773,7.4265666007995605,-20.71084213256836,15.911555290222168
0,447634,1.2169004678726196,-10.786626815795898,18.414840698242188,10.16710376739502
0,447634,1.0757509469985962,2.5332772731781006,13.238017082214355,-14.516335487365723
0,447634,-8.016182899475098,6.3482747077941895,-19.602205276489258,-11.736711502075195
0,447634,7.013382434844971,13.79609489440918,22.968860626220703,-12.455191612243652
0,447635,32.64485168457031,-5.86097526550293,7.264710426330566,-11.37363052368164
0,447635,-1.92750883102417,-22.783267974853516,-18.716943740844727,8.612491607666016
0,447635,-28.026683807373047,18.304039001464844,9.939717292785645,3.095283269882202
0,447635,1.6027275323867798,12.744564056396484,-0.7368659377098083,-8.258827209472656
0,447635,-5.580698490142822,-11.264928817749023,-9.06631851196289,10.632752418518066
0,447635,-5.685503005981445,18.585176467895508,7.396975994110107,-10.752910614013672
0,447636,-9.964383125305176,1.7853131294250488,6.175429821014404,1.7165526151657104
0,447636,-14.32927417755127,-21.170658111572266,-3.2577919960021973,19.162687301635742
0,447636,36.47499084472656,19.976789474487305,-17.581356048583984,-18.135087966918945
0,447637,-2.8728275299072266,23.024913787841797,2.0778160095214844,-14.399867057800293
0,447637,-52.348228454589844,3.372734308242798,18.47492790222168,4.112793445587158
0,447638,-16.7949275970459,-8.768120765686035,-0.8554279804229736,15.368431091308594
0,447638,-5.682948112487793,-15.018791198730469,-5.4372878074646,8.71744155883789
0,447638,-17.357358932495117,6.760911464691162,-0.6339982748031616,18.373878479003906
0,447638,-17.450607299804688,-5.811622619628906,9.80172348022461,6.665399551391602
0,447638,11.04091739654541,-21.932344436645508,9.017302513122559,-23.417278289794922
0,447640,-44.78781509399414,10.443737983703613,-11.42533016204834,33.276611328125
0,447641,-86.83855438232422,3.352163076400757,-14.457597732543945,57.9730339050293
0,447642,-0.14148782193660736,-23.355009078979492,-2.9245784282684326,-1.0110540390014648
0,447645,8.708086967468262,13.534284591674805,12.855399131774902,-27.130935668945312
0,447646,5.668964385986328,10.9788179397583,0.12758271396160126,-25.870119094848633
0,447649,-31.612913131713867,-15.615025520324707,-8.483633995056152,13.740283012390137
0,447650,-41.250022888183594,-1.8339396715164185,13.888303756713867,37.97694778442383
0,447653,212.22726440429688,-51.50282669067383,-27.524192810058594,-52.21398162841797
0,447654,258.4661560058594,-42.81911849975586,-45.82976531982422,-66.82404327392578
0,447657,62.098751068115234,66.05065155029297,44.54029083251953,-35.49376678466797
0,447658,-54.88675308227539,56.870182037353516,40.73700714111328,-10.227690696716309
0,447661,-227.9589080810547,-29.578344345092773,-45.43487548828125,74.74666595458984
0,447662,-128.95289611816406,-24.79912567138672,-1.944126009941101,22.94892120361328
0,447664,114.24283599853516,-0.14208930730819702,13.821833610534668,-25.420536041259766
0,447666,46.600128173828125,19.72140121459961,13.373476028442383,20.101839065551758
0,447668,-69.38467407226562,80.13471221923828,75.79118347167969,6.530170917510986
0,447670,-108.93132019042969,-0.7742035984992981,-37.37025451660156,31.87332534790039
0,447672,-7.53256368637085,-128.72796630859375,-106.9865493774414,7.328704357147217
0,447674,236.67156982421875,-61.59764099121094,-7.689798831939697,-69.32054901123047
0,447676,188.6334228515625,76.68717956542969,52.10829544067383,-37.78042221069336
0,447678,-142.7424774169922,95.79460906982422,44.41377639770508,5.933454990386963
0,447680,-193.23951721191406,-1.5655429363250732,-24.247936248779297,37.10427474975586
0,447682,-4.2628560066223145,-24.093772888183594,1.416015386581421,48.19794464111328
0,447684,49.43898010253906,-25.92428207397461,14.300769805908203,2.0969090461730957
0,447687,12.229996681213379,-32.20402526855469,-36.20199203491211,-92.8412857055664
1,447854,88.3347396850586,-18.746891021728516,-32.106876373291016,-40.280967712402344
1,447854,60.00341796875,-42.28199005126953,-8.118178367614746,100.4460678100586
1,447854,-138.0375518798828,43.19980239868164,39.83167266845703,14.453590393066406
1,447854,-83.6088638305664,53.76689529418945,19.12421989440918,-28.044435501098633
1,447854,38.408451080322266,-22.939228057861328,-4.508328914642334,31.152942657470703
1,447854,18.284706115722656,-8.687912940979004,-2.5429489612579346,-9.46240234375
1,447855,39.37508010864258,0.38646000623703003,-6.590038299560547,-24.0969181060791
1,447855,92.38542938232422,-13.311493873596191,11.51125431060791,-22.945404052734375
1,447855,55.927711486816406,-6.318569183349609,-9.71626091003418,-4.902980327606201
1,447855,-19.807361602783203,26.43656349182129,-7.962129592895508,20.357803344726562
1,447855,-23.13033676147461,36.084983825683594,24.876367568969727,-5.0345001220703125
1,447856,-33.78239440917969,11.836421966552734,9.280925750732422,-5.011152267456055
1,447856,-72.80760955810547,21.706947326660156,4.013564586639404,15.706007957458496
1,447856,-63.20639419555664,3.9390013217926025,9.588740348815918,15.261122703552246
1,447856,-26.44763946533203,-33.90394973754883,-3.076817750930786,-6.991840362548828
1,447856,7.860970497131348,-10.007980346679688,-13.55372142791748,-19.472200393676758
1,447856,42.076080322265625,8.002201080322266,-12.036172866821289,0.5968645811080933
1,447857,35.60485076904297,8.998608589172363,9.83005142211914,13.889991760253906
1,447857,27.431793212890625,-18.002826690673828,8.939149856567383,-5.768789768218994
1,447857,0.8669827580451965,-26.06157684326172,-13.189749717712402,-7.154629707336426
1,447857,-45.548065185546875,15.154458999633789,-5.356880187988281,22.491668701171875
1,447857,-21.78167152404785,28.610658645629883,24.49687957763672,2.487604856491089
1,447857,-24.854719161987305,6.201460361480713,0.6969729065895081,-10.444881439208984
1,447858,-57.348567962646484,0.11778879910707474,-26.15986442565918,20.08808135986328
1,447858,-10.835968971252441,-15.18666934967041,2.8905694484710693,-8.75440788269043
1,447858,38.43400192260742,-31.725130081176758,3.0065553188323975,-10.973634719848633
1,447858,16.080142974853516,3.3428807258605957,-8.597040176391602,32.39794158935547
1,447858,-2.408435821533203,0.9777835607528687,-2.7992522716522217,2.5897693634033203
1,447858,36.80925750732422,-13.847846984863281,-13.556914329528809,-22.198448181152344
1,447859,36.31001663208008,22.56090545654297,3.8210997581481934,-3.953049659729004
1,447859,-13.463739395141602,13.599736213684082,25.740808486938477,10.814528465270996
1,447859,-43.644466400146484,-9.627256393432617,-1.662950038909912,1.4871679544448853
1,447859,-20.919340133666992,6.269453525543213,-2.764359712600708,-0.2676118314266205
1,447859,16.681781768798828,2.053184747695923,2.74003005027771,19.8215274810791
1,447860,-17.134672164916992,-11.592386245727539,-9.978148460388184,0.31163856387138367
1,447860,-13.558067321777344,-10.337108612060547,4.493087291717529,-13.424493789672852
1,447860,36.26007843017578,-1.8437854051589966,7.13686466217041,-0.7191240191459656
1,447860,35.55526351928711,24.332847595214844,-11.315512657165527,-7.062124252319336
1,447860,19.875219345092773,-1.5587098598480225,-2.991476058959961,-9.300129890441895
1,447860,-6.065939903259277,-29.59858512878418,7.768130779266357,-11.458429336547852
1,447861,-12.066308975219727,15.8323974609375,-10.333382606506348,-26.29985809326172
1,447861,6.86448335647583,2.6088836193084717,-19.72969627380371,-2.928694009780884
1,447861,-13.527775764465332,-32.80526351928711,-2.5953621864318848,26.055072784423828
1,447861,-24.774444580078125,-3.7175967693328857,31.693843841552734,15.927350997924805
1,447861,18.471364974975586,38.63734436035156,7.509780406951904,-6.893362045288086
1,447861,18.55389404296875,3.1422295570373535,-18.247325897216797,-1.2665947675704956
1,447862,-8.568750381469727,-31.27521514892578,14.102758407592773,19.928590774536133
1,447862,-4.940633773803711,24.64277458190918,6.845510005950928,2.947821617126465
1,447862,2.5294225215911865,17.456018447875977,-15.995747566223145,-23.15584945678711
1,447862,22.90119743347168,-13.547751426696777,-10.799039840698242,-4.738122940063477
1,447862,10.162243843078613,-2.4361801147460938,5.562342643737793,28.498416900634766
1,447862,-34.8117561340332,-1.07826828956604,8.38082504272461,-0.6170979142189026
1,447863,-16.389638900756836,-0.605826199054718,3.867232322692871,-11.445204734802246
1,447863,22.81833839416504,16.047807693481445,11.20401668548584,11.868439674377441
1,447863,7.138398170471191,17.11896514892578,-2.0864970684051514,-18.387325286865234
1,447863,-19.647397994995117,-29.834341049194336,-13.529886245727539,-14.831389427185059
1,447863,2.3531205654144287,-13.028324127197266,0.023681296035647392,26.5286808013916
1,447863,23.676973342895508,7.391508102416992,3.3322854042053223,-11.07447338104248
1,447864,-11.032572746276855,-22.886926651000977,-3.1772005558013916,-15.868159294128418
1,447864,-7.246137619018555,14.731996536254883,1.4677886962890625,26.735902786254883
1,447864,12.156632423400879,24.49289894104004,-3.302232503890991,-6.187985420227051
1,447864,-11.132101058959961,-27.527238845825195,-3.1839778423309326,-11.27038860321045
1,447864,-1.1287027597427368,-10.32973575592041,14.4314603805542,4.712947368621826
1,447864,18.314149856567383,32.935157775878906,-20.02081871032715,-13.844828605651855
1,447865,-17.438386917114258,-10.835848808288574,-10.853477478027344,17.163185119628906
1,447865,-8.236489295959473,-24.97541046142578,29.444156646728516,17.291353225708008
1,447865,28.481632232666016,18.16033172607422,-17.281661987304688,-27.345050811767578
1,448120,150.17355346679688,-6.5833868980407715,-11.11506462097168,-45.887054443359375
1,448123,42.60378646850586,2.7342731952667236,20.382299423217773,2.8985729217529297
1,448124,-238.8140411376953,24.26075553894043,3.4860594272613525,77.06317138671875
1,448127,-61.587257385253906,-39.68872833251953,-14.509224891662598,-16.162038803100586
1,448128,65.34224700927734,-31.669178009033203,-10.924046516418457,-25.21756935119629
1,448972,89.99588012695312,-18.902917861938477,-6.851098537445068,31.937698364257812
1,448972,91.3554458618164,-28.960466384887695,-6.39159631729126,-36.89697265625
1,448973,-62.34540939331055,54.390586853027344,7.821412086486816,-9.120330810546875
1,448973,-23.528297424316406,40.579429626464844,-0.7052751779556274,11.191447257995605
1,448973,3.812600612640381,-12.836917877197266,3.406256675720215,-7.624239921569824
1,448973,-25.409765243530273,7.637514591217041,16.006956100463867,15.72826099395752
1,448973,16.853403091430664,-6.012217998504639,6.034606456756592,2.715228796005249
1,448973,24.444746017456055,3.8494749069213867,-9.249835968017578,-23.08283233642578
1,448974,-19.441015243530273,32.16914367675781,4.723996162414551,-15.580920219421387
1,448974,-11.006702423095703,22.04390525817871,11.562294006347656,2.7871716022491455
1,448974,8.36483383178711,14.448509216308594,10.183564186096191,11.56627368927002
1,448974,-23.791715621948242,4.184084415435791,21.277753829956055,16.481117248535156
1,448974,-29.380882263183594,-4.989930152893066,-9.498414039611816,7.26082181930542
1,448974,-13.286778450012207,-10.67863941192627,-10.746063232421875,1.278745174407959
1,448975,-9.287812232971191,-19.81866455078125,16.364267349243164,5.102770805358887
1,448975,9.232217788696289,-21.182676315307617,-4.763051509857178,0.7631115913391113
1,448975,12.900195121765137,-6.726198673248291,-26.776865005493164,-1.804729700088501
1,448975,-15.555850982666016,12.164595603942871,-8.7611665725708,-6.171066761016846
1,448975,-2.288198709487915,10.676497459411621,26.974210739135742,5.625690460205078
1,448976,17.849037170410156,18.146137237548828,8.826736450195312,25.715473175048828
1,448976,-15.048972129821777,10.907964706420898,-13.196759223937988,11.856279373168945
1,448976,-39.457847595214844,-22.48862075805664,-4.350948810577393,-10.14258098602295
1,448976,-15.374909400939941,-4.8304243087768555,-15.030669212341309,-19.93754768371582
1,448976,3.090338706970215,-0.10283911973237991,-12.51008129119873,9.894037246704102
1,448976,-4.273891925811768,-17.932466506958008,4.411293983459473,15.243487358093262
1,448976,-0.8439883589744568,8.11879825592041,7.418467998504639,-28.767822265625
1,448977,12.01293659210205,-2.597306966781616,-5.309718132019043,5.255923271179199
1,448977,4.429338455200195,-32.93751907348633,-7.428520679473877,23.015775680541992
1,448977,8.579275131225586,-3.055032253265381,14.215405464172363,-29.997926712036133
1,448977,6.693274974822998,29.56597137451172,16.107805252075195,-14.099799156188965
1,448977,-18.709333419799805,6.3994669914245605,-11.146932601928711,9.356046676635742
1,448978,15.729982376098633,-7.307164669036865,-6.146573066711426,-11.22128677368164
1,448978,9.851019859313965,-3.244760036468506,1.5681087970733643,-5.124855041503906
1,448978,-27.52751922607422,-3.5897409915924072,-8.160560607910156,14.343931198120117
1,448978,-0.7305852770805359,17.27252769470215,7.77065372467041,16.91367530822754
1,448978,18.794984817504883,-5.00390625,16.363065719604492,9.068305015563965
1,448978,14.148933410644531,-6.752413272857666,2.67110276222229,-5.003542423248291
1,448979,16.308116912841797,33.93555450439453,-22.7608699798584,-19.168054580688477
1,448979,7.599606037139893,-10.370558738708496,1.7602530717849731,7.809623718261719
1,448979,-9.107988357543945,-16.974157333374023,27.711671829223633,7.568395614624023
1,448979,-1.3366050720214844,14.521090507507324,-21.42241668701172,-22.55289649963379
1,448979,7.629918098449707,-16.388805389404297,-11.246919631958008,3.2146799564361572
1,448979,8.887587547302246,-8.68616008758545,18.699859619140625,9.75820541381836
1,448980,-10.157200813293457,19.422243118286133,-10.020995140075684,-10.198620796203613
1,448980,-18.502042770385742,-14.53235912322998,0.645515501499176,1.5416126251220703
1,448980,1.7436020374298096,-9.98354434967041,10.408855438232422,16.048120498657227
1,448980,7.884469509124756,27.399948120117188,-7.285350322723389,10.878783226013184
1,448980,6.202572822570801,1.6586073637008667,3.3760290145874023,0.18366405367851257
1,448980,13.652301788330078,-10.596643447875977,-3.8075475692749023,-23.008243560791016
1,448981,6.366392135620117,-4.876320838928223,-6.407898426055908,-5.189725875854492
1,448981,-16.363656997680664,10.337504386901855,13.51400375366211,26.040224075317383
1,448981,-9.067057609558105,3.1114232540130615,1.4466229677200317,1.8778433799743652
1,448981,12.86501407623291,-20.156023025512695,-8.097223281860352,-15.329156875610352
1,448981,-9.059832572937012,4.614298343658447,-3.7457263469696045,-3.2380058765411377
1,448983,-33.2375373840332,-6.231457233428955,2.2312817573547363,3.6381680965423584
1,448983,8.694180488586426,-29.037229537963867,10.642599105834961,-19.88158416748047
1,448983,32.085838317871094,14.099010467529297,-9.576664924621582,-16.36104393005371
1,448983,-6.61997652053833,22.722440719604492,-10.594398498535156,20.807985305786133
1,448983,-2.775041103363037,-12.877469062805176,5.216357707977295,17.83502769470215
1,448985,-5.206516265869141,-6.522585868835449,12.205185890197754,10.638152122497559
1,448986,-57.752410888671875,49.298118591308594,14.079302787780762,2.4357454776763916
1,448989,-49.719722747802734,-38.09769058227539,-52.55350875854492,-13.84249496459961
1,448990,85.46240234375,-105.52655792236328,-29.641036987304688,0.8791505098342896
1,448993,243.96047973632812,50.210235595703125,42.61764144897461,-12.72386360168457
1,448994,138.2288055419922,40.86298370361328,-6.84868860244751,-43.14698791503906
1,448997,-171.09298706054688,44.129364013671875,-0.736054003238678,-50.509857177734375
1,448998,-204.73440551757812,65.36835479736328,55.83534622192383,54.94792938232422
1,449001,-41.342018127441406,-62.325416564941406,3.583282947540283,117.99125671386719
1,449002,8.850447654724121,-19.18826675415039,-38.725807189941406,-32.74699401855469
1,449005,23.039953231811523,39.06834411621094,19.012147903442383,-57.35453796386719
1,449006,-56.71383285522461,9.733417510986328,17.10465431213379,56.04077911376953
1,449009,-68.91036224365234,-49.280845642089844,-35.88151550292969,70.05855560302734
1,449010,95.62744903564453,-67.12598419189453,-27.98815155029297,-37.72425842285156
1,449013,211.962890625,0.8909630179405212,-3.8037662506103516,-154.91075134277344
1,449014,112.81485748291016,19.612871170043945,4.468053340911865,-119.98247528076172
1,449017,-180.03929138183594,62.99016189575195,39.345314025878906,124.86722564697266
1,449018,-176.3671112060547,26.14434814453125,16.748701095581055,202.20663452148438
1,449021,39.61191177368164,-47.811092376708984,-28.839330673217773,-67.8251724243164
1,449022,36.62396240234375,0.9629318118095398,1.6131703853607178,-82.40530395507812
1,449140,57.22600173950195,14.588399887084961,12.049178123474121,43.97367477416992
1,449140,46.957801818847656,0.8161897659301758,1.5707306861877441,-24.647212982177734
1,449140,-77.65107727050781,12.704843521118164,4.5044097900390625,-7.7295756340026855
1,449140,-82.74092864990234,12.432621002197266,1.761398434638977,42.232906341552734
1,449141,-39.992401123046875,-23.65221405029297,5.70548152923584,2.9986562728881836
1,449141,-12.30111312866211,-11.003528594970703,2.346940040588379,1.216151475906372
1,449141,18.041881561279297,6.688966274261475,-29.93042755126953,4.073925495147705
1,449141,59.622127532958984,-36.510658264160156,-23.085418701171875,-29.776376724243164
1,449141,76.56607818603516,-35.397132873535156,13.57054615020752,-17.840940475463867
1,449141,48.74831008911133,28.064159393310547,13.619379043579102,-33.50320053100586
1,449142,10.714158058166504,18.252408981323242,-20.715715408325195,-20.450176239013672
1,449142,-21.291927337646484,-24.413522720336914,-3.213968276977539,42.31943130493164
1,449142,-27.663578033447266,29.8185977935791,37.749080657958984,10.08637523651123
1,449142,-36.99549865722656,40.26900100708008,2.6353325843811035,4.015739440917969
1,449142,-41.77615737915039,-4.785740852355957,-22.826139450073242,44.13078689575195
1,449142,-13.059913635253906,-9.792412757873535,-16.319046020507812,14.361385345458984
1,449143,7.129763603210449,-10.1003999710083,3.3703277111053467,-1.0338265895843506
1,449143,20.080299377441406,-9.449509620666504,11.996038436889648,-9.076170921325684
1,449143,46.43510818481445,3.485038995742798,6.1585564613342285,-26.091604232788086
1,449143,39.22007751464844,-2.6274847984313965,11.408578872680664,-8.81715202331543
1,449143,12.53116512298584,0.7074829936027527,-5.729215621948242,16.89718246459961
1,449144,-7.10191011428833,10.691117286682129,-6.609619617462158,-3.35296893119812
1,449144,-20.307384490966797,-6.87332820892334,17.558574676513672,-26.547279357910156
1,449144,-47.57725143432617,3.607569456100464,27.39314842224121,12.539216041564941
1,449144,-20.62993621826172,20.569107055664062,0.9681867361068726,0.5165064930915833
1,449144,23.46035385131836,-0.8424445390701294,-16.38218116760254,-28.173423767089844
1,449144,-19.68480682373047,-16.99443817138672,-0.02523539401590824,-8.571972846984863
1,449145,-12.462231636047363,-17.170236587524414,-17.19805908203125,-5.765105724334717
1,449145,28.25505828857422,4.7353739738464355,-19.28392219543457,-9.868887901306152
1,449145,15.326059341430664,3.5502264499664307,5.773859977722168,-11.370195388793945
1,449145,-7.517668724060059,-20.260902404785156,8.31583023071289,-13.63418197631836
1,449145,-9.21825122833252,25.167579650878906,-3.0792722702026367,28.2337646484375
1,449145,-14.89248275756836,37.66652297973633,-7.771108150482178,30.80012321472168
1,449146,-27.990882873535156,-8.087823867797852,11.005457878112793,10.687856674194336
1,449146,-2.1717987060546875,-11.455710411071777,-5.887223720550537,25.827289581298828
1,449146,-9.231145858764648,-7.016559600830078,-6.995686054229736,12.391929626464844
1,449146,-3.2518036365509033,-6.064331531524658,21.72515296936035,13.369325637817383
1,449146,39.26880645751953,-4.0967888832092285,-20.473833084106445,3.822075843811035
1,449146,6.1212592124938965,-21.91710662841797,-30.157258987426758,-7.920232772827148
1,449147,-12.875344276428223,-4.372885227203369,27.377239227294922,-3.0045647621154785
1,449147,24.575475692749023,13.31979751586914,14.6005859375,-22.581571578979492
1,449147,15.298233032226562,-19.05292320251465,-25.041492462158203,-28.95156478881836
1,449147,-19.932432174682617,-8.842105865478516,-6.901726245880127,4.844569206237793
1,449147,-16.123760223388672,4.570417881011963,20.474637985229492,19.830730438232422
1,449147,16.4063777923584,1.0929034948349,11.379518508911133,-16.065937042236328
1,449148,27.073068618774414,8.703022956848145,-16.168560028076172,-22.131027221679688
1,449148,-1.5684537887573242,-7.9963884353637695,-16.177152633666992,14.200169563293457
1,449148,1.747905969619751,17.54486656188965,17.818159103393555,3.4771840572357178
1,449148,20.869182586669922,12.912607192993164,5.016392707824707,-25.472606658935547
1,449148,6.857008934020996,-39.170318603515625,-19.801395416259766,-3.5657668113708496
1,449148,-5.41172456741333,8.871431350708008,20.51504135131836,25.618696212768555
1,449149,9.25269603729248,36.342079162597656,8.472029685974121,-0.6803390979766846
1,449149,27.770658493041992,-2.358447790145874,-15.611971855163574,-15.93327808380127
1,449149,-16.271018981933594,4.555241584777832,4.751163005828857,13.895516395568848
1,449149,-27.439733505249023,0.5244037508964539,11.935647964477539,3.191667079925537
1,449149,29.893814086914062,-11.384527206420898,6.882072925567627,-8.22195816040039
1,449149,7.737803936004639,-15.516024589538574,-20.91597557067871,4.847193241119385
1,449150,-25.753297805786133,-18.47820281982422,-4.980091571807861,14.04487133026123
1,449150,3.073086738586426,2.227113962173462,18.850282669067383,-5.633923530578613
1,449151,67.48684692382812,-9.60383415222168,-2.887166738510132,-25.395038604736328
1,449151,54.74966812133789,-17.640897750854492,-11.485111236572266,-2.5828793048858643
1,449151,-62.53560256958008,8.760107040405273,-8.432311058044434,9.341243743896484
1,449152,-42.20671844482422,22.738317489624023,3.5087528228759766,11.201817512512207
1,449152,15.661532402038574,10.518160820007324,13.258057594299316,17.5163631439209
1,449153,49.069313049316406,1.5964545011520386,-1.0191670656204224,-6.343628883361816
1,449154,69.55599975585938,18.079830169677734,-6.8441572189331055,-43.10527801513672
1,449156,-88.47029113769531,3.2240378856658936,18.887624740600586,-6.786587715148926
1,449158,-205.0439910888672,27.46588134765625,24.172264099121094,117.653076171875
1,449160,-107.70542907714844,52.647212982177734,4.6525678634643555,69.28192901611328
1,449162,33.54833221435547,-24.389501571655273,-20.081768035888672,-174.66970825195312
1,449164,67.27901458740234,-13.655131340026855,-15.209720611572266,-107.75782012939453
1,449166,-52.355838775634766,31.157005310058594,26.545761108398438,210.081787109375
1,449168,-87.95540618896484,-8.537774085998535,7.446830749511719,140.9803009033203
1,449170,169.2574005126953,-62.28245162963867,-39.330509185791016,-128.66482543945312
1,449172,214.90171813964844,-106.00743865966797,-44.829383850097656,-134.49655151367188
1,449174,59.438446044921875,-0.742483377456665,20.279752731323242,-205.11395263671875
1,449176,6.602289199829102,123.6698226928711,86.13818359375,26.05815887451172
1,449179,-194.97181701660156,44.95884323120117,3.4428367614746094,391.6077575683594
1,449180,-150.16600036621094,-51.25393295288086,-69.92513275146484,53.79755783081055
1,449183,90.15243530273438,-32.94375228881836,-33.88389587402344,-186.9399871826172
1,449184,55.52592849731445,-24.358013153076172,-45.91853713989258,-14.187257766723633
1,449187,-56.892391204833984,55.75153350830078,33.7343635559082,-28.602691650390625
1,449188,-82.21096801757812,47.98472213745117,55.8360710144043,-78.6241226196289
1,449191,101.63809204101562,-107.00078582763672,-8.268502235412598,102.5645980834961
1,449192,151.36912536621094,-27.790382385253906,32.622474670410156,92.08588409423828
1,449195,39.878753662109375,65.30670928955078,-22.990713119506836,-111.71859741210938
1,449324,-161.86721801757812,33.54765701293945,24.086017608642578,-2.7553720474243164
1,449324,-213.8074951171875,16.261335372924805,48.25575256347656,64.15176391601562
1,449324,185.78750610351562,-24.374839782714844,-50.009437561035156,-62.46425247192383
1,449324,147.64663696289062,-22.146495819091797,-6.428905487060547,-14.237733840942383
1,449325,-63.54142761230469,17.900890350341797,29.447101593017578,27.567407608032227
1,449325,-5.644267559051514,30.999996185302734,-6.648207664489746,-9.861122131347656
1,449325,-53.03730010986328,18.529268264770508,-28.597017288208008,29.3527774810791
1,449325,-91.83531951904297,-9.4071044921875,-5.3534135818481445,40.259281158447266
1,449325,-62.69218444824219,-24.656736373901367,2.1133978366851807,1.568203091621399
1,449326,5.619869232177734,-8.113080978393555,-24.883005142211914,7.3390302658081055
1,449326,54.21636199951172,-15.9621000289917,-12.373481750488281,-14.211705207824707
1,449326,69.66931915283203,-23.089811325073242,1.6287281513214111,-37.54094696044922
1,449326,49.258113861083984,-13.06000804901123,-16.33701515197754,-16.192277908325195
1,449326,18.362348556518555,-14.139789581298828,14.311175346374512,0.3808586597442627
1,449326,-0.8166940808296204,6.996568202972412,26.52240753173828,15.866151809692383
1,449327,-14.427477836608887,16.70456314086914,-1.5881997346878052,-13.863811492919922
1,449327,-19.403955459594727,-2.9374678134918213,-6.8325605392456055,-0.3607673943042755
1,449327,-45.249755859375,3.8470780849456787,-5.394778251647949,40.5728874206543
1,449327,-26.752405166625977,28.84741973876953,13.932339668273926,-2.2921223640441895
1,449327,12.551541328430176,-0.5533837676048279,-6.82048225402832,-22.077606201171875
1,449327,11.060108184814453,-26.55061149597168,-29.951374053955078,-13.891312599182129
1,449328,40.3936653137207,-11.521673202514648,-11.396485328674316,-12.000329971313477
1,449328,65.94084930419922,-14.345601081848145,10.327988624572754,-4.073718070983887
1,449328,35.03644943237305,-13.623215675354004,20.275264739990234,-14.947364807128906
1,449328,-21.41600227355957,-6.793989658355713,2.766571044921875,11.96240520477295
1,449328,-20.449609756469727,22.519187927246094,-7.441422462463379,17.584857940673828
1,449328,18.3883113861084,25.303590774536133,-0.2842704951763153,-16.271583557128906
1,449329,-20.892030715942383,-28.692834854125977,17.258663177490234,12.310791969299316
1,449329,-68.69416809082031,-7.210324287414551,16.361024856567383,24.027626037597656
1,449329,-7.447450637817383,32.939632415771484,-18.000463485717773,-11.996699333190918
1,449329,59.2264518737793,-7.977354049682617,-15.051519393920898,-13.96906566619873
1,449329,6.6783342361450195,-5.117208003997803,15.341657638549805,-4.613420486450195
1,449329,-6.507625102996826,22.04396629333496,10.769479751586914,-10.549647331237793
1,449330,54.01334762573242,-12.828782081604004,-1.8249801397323608,-0.3887971341609955
1,449330,7.375924587249756,0.7388162016868591,2.4633288383483887,-1.1413129568099976
1,449330,-22.04616355895996,40.11311721801758,4.975031852722168,-11.358962059020996
1,449330,-6.7721781730651855,6.438174724578857,-6.600977420806885,14.333285331726074
1,449330,-25.280376434326172,-7.8965959548950195,4.29054594039917,7.773245811462402
1,449330,-7.042392253875732,5.326250076293945,17.178730010986328,-9.005348205566406
1,449331,-3.826246738433838,1.7015626430511475,-13.183147430419922,-1.3383269309997559
1,449331,12.262956619262695,-3.752990245819092,-31.91727066040039,-4.656821250915527
1,449331,9.867128372192383,-25.56511878967285,-15.490015983581543,2.190692901611328
1,449331,-26.319747924804688,-18.323001861572266,14.16292667388916,0.050125591456890106
1,449331,17.510711669921875,8.334197998046875,30.567777633666992,-25.27931785583496
1,449331,28.127653121948242,7.484477996826172,-13.244405746459961,-28.214828491210938
1,449332,-28.677635192871094,8.227283477783203,-16.105567932128906,17.62994384765625
1,449332,-15.641392707824707,1.9225555658340454,32.20071792602539,14.033791542053223
1,449332,3.3990728855133057,-6.996028423309326,0.7369416356086731,-12.298470497131348
1,449332,-12.320342063903809,-4.20526647567749,-21.719478607177734,13.09158992767334
1,449332,3.9431092739105225,4.746564865112305,22.48334312438965,8.562858581542969
1,449332,20.303918838500977,-1.138877034187317,9.11902904510498,-17.234933853149414
1,449333,14.334611892700195,-5.612171173095703,-14.05004596710205,8.270936012268066
1,449333,2.1231260299682617,2.5907373428344727,22.840463638305664,34.359405517578125
1,449333,-1.652479887008667,-0.14468903839588165,10.607851028442383,-12.540144920349121
1,449333,-1.4392403364181519,28.0911808013916,-36.23650360107422,-25.453720092773438
1,449333,-9.541258811950684,7.406647205352783,-11.55510425567627,16.35736083984375
1,449333,-16.050018310546875,-26.37364387512207,28.276716232299805,10.326359748840332
1,449334,-8.245306968688965,-0.06135903298854828,-7.496356010437012,1.0536917448043823
1,449334,-9.647618293762207,5.226503372192383,-34.423282623291016,5.025883197784424
1,449334,-5.8920793533325195,2.4890286922454834,-4.820955753326416,-17.3687744140625
1,449334,3.5581247806549072,2.326997756958008,6.3492960929870605,0.766664981842041
1,449334,-13.58349323272705,10.490949630737305,5.873828887939453,20.27332878112793
1,449335,5.240564346313477,-5.902655601501465,0.316251277923584,0.4466817080974579
1,449335,19.223350524902344,-22.862491607666016,0.11680517345666885,33.37433624267578
1,449335,-30.33428955078125,7.953195095062256,24.575679779052734,44.189903259277344
1,449336,-59.832008361816406,40.01432800292969,13.268800735473633,81.3138427734375
1,449336,-28.481557846069336,31.4543514251709,-2.4787633419036865,68.7878189086914
1,449337,5.998225688934326,-31.049100875854492,3.2523183822631836,-54.019466400146484
1,449337,3.098508596420288,-28.94437599182129,7.231521129608154,-39.639461517333984
1,449337,23.1503849029541,20.906543731689453,-20.565818786621094,-1.0673096179962158
1,449337,16.13120460510254,-13.158248901367188,-27.436254501342773,-7.307481288909912
1,449338,-54.01431655883789,-66.83062744140625,-7.40899658203125,-14.30359935760498
1,449340,-40.5413932800293,-14.419300079345703,13.07065200805664,-49.703697204589844
1,449342,40.35184860229492,84.37897491455078,38.743038177490234,-43.66474533081055
1,449344,34.51705551147461,-1.7954999208450317,-24.831106185913086,-43.75211715698242
1,449346,-91.64694213867188,-126.64041900634766,-70.7120361328125,-51.48649597167969
1,449348,-69.787841796875,-0.006430227309465408,11.849810600280762,15.501678466796875
1,449350,231.4632110595703,118.5430679321289,78.03163146972656,66.13349914550781
1,449352,254.9608917236328,-15.504284858703613,-19.503578186035156,19.748144149780273
1,449354,36.3949089050293,-52.46223831176758,-55.32243347167969,-225.35427856445312
1,449356,-73.3042984008789,79.41124725341797,40.47944641113281,-63.87858963012695
1,449358,-213.08604431152344,65.8382339477539,35.965328216552734,421.6515808105469
1,449360,-100.90974426269531,-54.476566314697266,-26.650663375854492,85.12447357177734
1,449363,72.84821319580078,-59.46630096435547,-2.5885510444641113,-266.8280944824219
1,449364,37.84086227416992,63.752296447753906,41.342411041259766,-30.504579544067383
1,449367,-77.7425308227539,9.217479705810547,-11.170080184936523,82.96073913574219
1,449368,-99.39788818359375,-93.36542510986328,-33.582157135009766,76.99256896972656
1,449371,199.83712768554688,-14.587998390197754,23.062591552734375,-12.814887046813965
1,449372,200.86199951171875,7.300564765930176,30.673093795776367,-135.85679626464844
1,449375,-145.6412353515625,2.603959798812866,-57.63313674926758,-62.73175811767578
1,449376,-153.6112823486328,40.99994659423828,-42.20792770385742,36.1966667175293
1,449379,-40.179264068603516,52.80902099609375,89.41514587402344,101.1561279296875
1,449380,16.094715118408203,27.661638259887695,-49.167171478271484,64.09746551513672
1,449520,137.5106201171875,-50.95693588256836,-63.07826614379883,-105.56576538085938
1,449520,77.73262023925781,-32.92076110839844,133.95867919921875,-73.48713684082031
1,449520,-70.75054931640625,37.862213134765625,-30.36489486694336,40.25774383544922
1,449520,-79.91524505615234,-13.861671447753906,-73.78620147705078,19.994056701660156
1,449520,-61.769264221191406,-25.020160675048828,42.18124008178711,37.04806137084961
1,449521,-37.99186706542969,24.5623722076416,-1.4797228574752808,48.958465576171875
1,449521,-6.358338356018066,-2.296780586242676,10.199830055236816,-6.202708721160889
1,449521,34.20331573486328,-19.704740524291992,13.887207984924316,-14.47594928741455
1,449521,57.05972671508789,-10.432601928710938,-20.08980941772461,18.740467071533203
1,449521,52.533382415771484,-0.8889273405075073,-7.399193286895752,17.10024070739746
1,449521,51.19115447998047,5.319558620452881,8.691096305847168,-18.251893997192383
1,449522,7.4477434158325195,-17.97708511352539,-5.605751991271973,4.072202205657959
1,449522,-25.941179275512695,20.886117935180664,-5.925832271575928,5.0159807205200195
1,449522,-19.279542922973633,44.61260986328125,-3.4643399715423584,-20.573680877685547
1,449522,-32.98516082763672,-2.353532314300537,-8.408096313476562,7.9077253341674805
1,449522,-30.36985206604004,-23.515405654907227,4.752024173736572,1.4350578784942627
1,449523,-0.47250959277153015,-16.8338565826416,0.6557249426841736,-15.257732391357422
1,449523,-5.864532470703125,1.7485606670379639,4.2538228034973145,-3.5812742710113525
1,449523,11.926828384399414,-9.688284873962402,19.989303588867188,-29.885427474975586
1,449523,51.75572204589844,-16.47060775756836,-17.358938217163086,-33.09600067138672
1,449523,33.32688903808594,-15.162890434265137,-33.19568634033203,-2.550102710723877
1,449523,6.582884311676025,-2.352454662322998,4.331183910369873,-0.2039192020893097
1,449524,-20.813928604125977,36.11925506591797,15.421411514282227,-13.71003246307373
1,449524,-34.97039031982422,9.521954536437988,-0.9530879259109497,-10.601839065551758
1,449524,-19.668460845947266,-2.8436403274536133,-8.125544548034668,16.583816528320312
1,449524,-34.340667724609375,16.103317260742188,2.59061336517334,3.037026882171631
1,449524,-23.956069946289062,-7.674920082092285,30.37648582458496,13.885488510131836
1,449524,5.245646953582764,-15.636876106262207,29.084169387817383,22.29366683959961
1,449525,17.50179672241211,7.233497142791748,-2.649749279022217,-8.27132511138916
1,449525,22.81195068359375,15.681469917297363,-6.913445472717285,3.776686429977417
1,449525,6.155566215515137,2.464730978012085,5.980203628540039,2.501991033554077
1,449525,-8.377703666687012,18.79495620727539,-3.9515302181243896,5.182925701141357
1,449525,-6.738946914672852,16.054248809814453,-0.8846803307533264,24.662384033203125
1,449526,8.807381629943848,-23.147939682006836,26.341636657714844,20.872678756713867
1,449526,-11.262097358703613,-7.643605709075928,1.0888745784759521,-0.7394880652427673
1,449526,-19.711584091186523,21.359277725219727,-15.49181842803955,0.6914721727371216
1,449526,19.579225540161133,-11.560579299926758,-1.984603762626648,1.7576125860214233
1,449526,11.182178497314453,-29.175491333007812,-19.712467193603516,-13.71285629272461
1,449526,-0.2311389148235321,7.520376682281494,-7.154664993286133,19.036649703979492
1,449527,35.57101821899414,11.876145362854004,11.937481880187988,8.162922859191895
1,449527,36.75083923339844,-16.206565856933594,-10.123664855957031,-32.96467590332031
1,449527,-16.186168670654297,-20.780269622802734,-15.34773063659668,-11.043008804321289
1,449527,-30.200855255126953,-17.535608291625977,7.698239803314209,14.15430736541748
1,449527,-7.643069267272949,4.550447940826416,-0.7024602890014648,7.9376630783081055
1,449527,15.39629077911377,25.06834602355957,-26.518068313598633,-10.100709915161133
1,449528,4.146337509155273,-2.8426525592803955,0.2816489338874817,-6.607119560241699
1,449528,-24.631376266479492,-22.80718231201172,22.0513973236084,7.6530280113220215
1,449528,9.227198600769043,3.530120849609375,-10.290218353271484,0.1659911870956421
1,449528,16.681766510009766,15.681629180908203,-1.6161116361618042,-10.204424858093262
1,449528,31.7604923248291,7.860588550567627,16.631649017333984,-20.3363094329834
1,449528,33.56414794921875,-9.41087818145752,-3.073505163192749,-6.651976108551025
1,449529,-6.034570217132568,-5.808098316192627,-1.6117026805877686,4.228280067443848
1,449529,-0.29871228337287903,21.148176193237305,7.884930610656738,-14.357278823852539
1,449529,-13.079144477844238,-6.1990251541137695,19.830856323242188,3.9101719856262207
1,449529,-8.444292068481445,21.02452850341797,13.765056610107422,-11.739856719970703
1,449529,16.034337997436523,37.564273834228516,0.8939566612243652,-40.70627975463867
1,449529,-9.396653175354004,-31.240497589111328,4.259273052215576,10.585824966430664
1,449530,-19.205076217651367,-24.949316024780273,-6.26608419418335,13.017509460449219
1,449530,16.12435531616211,13.930950164794922,-23.806623458862305,-31.504974365234375
1,449530,-9.133320808410645,7.037015914916992,0.7208340167999268,6.675152778625488
1,449530,-20.286745071411133,8.336302757263184,13.33029556274414,23.94446563720703
1,449530,22.62122917175293,-5.100317001342773,-31.669301986694336,1.752764344215393
1,449530,1.4377154111862183,-23.30117416381836,-33.44550704956055,-2.586411952972412
1,449531,-29.561203002929688,2.458911895751953,9.53405475616455,14.910416603088379
1,449531,-9.330385208129883,2.710344076156616,15.217611312866211,56.85409927368164
1,449531,27.188268661499023,-2.3393263816833496,-18.754669189453125,25.287067413330078
1,449531,1.252790927886963,-4.9166717529296875,-24.365018844604492,-26.420469284057617
1,449531,-15.138020515441895,-28.685684204101562,13.563940048217773,-7.475329399108887
1,449531,7.983111381530762,-5.444270133972168,30.6651611328125,10.102710723876953
1,449532,7.839141845703125,40.50678634643555,-7.200414180755615,-9.5890531539917
1,449533,60.63860321044922,15.904863357543945,-3.346632242202759,-20.651708602905273
1,449533,35.37417984008789,-23.44121742248535,39.59666061401367,-11.871451377868652
1,449533,-50.600830078125,11.049741744995117,-2.3455538749694824,1.8196148872375488
1,449533,-9.119175910949707,21.493820190429688,-28.863500595092773,-5.574479103088379
1,449534,2.2901859283447266,-6.486987113952637,4.046956539154053,-5.144477844238281
1,449534,-35.73312759399414,-8.93991756439209,5.136781215667725,27.28159523010254
1,449535,-23.84773826599121,19.49235725402832,20.103052139282227,7.243269443511963
1,449536,-89.67884063720703,12.546685218811035,19.300281524658203,-8.840269088745117
1,449538,-113.58441162109375,-2.454174041748047,-8.214280128479004,64.29090881347656
1,449540,-2.9907214641571045,44.10907745361328,19.739023208618164,48.60869598388672
1,449542,8.974970817565918,-27.61003303527832,-14.257725715637207,-31.289440155029297
1,449544,-29.38663673400879,-117.48727416992188,-44.734500885009766,-74.52842712402344
1,449546,-36.99013137817383,49.60469436645508,58.10363006591797,-42.79428482055664
1,449548,44.27117919921875,100.73603820800781,22.993728637695312,85.56641387939453
1,449550,163.4104461669922,-115.5759048461914,-86.14964294433594,8.29833698272705
1,449552,214.7916717529297,-128.87725830078125,-37.38357925415039,-83.73397064208984
1,449554,131.57530212402344,43.321998596191406,22.821016311645508,-8.722602844238281
1,449556,-156.6986846923828,156.6630401611328,62.33672332763672,-10.333455085754395
1,449558,-192.67396545410156,21.027620315551758,7.794471740722656,-19.116703033447266
1,449561,-9.947976112365723,-91.3310775756836,-80.75439453125,51.59163284301758
1,449562,17.697954177856445,25.890701293945312,7.368522644042969,57.38370132446289
1,449565,4.427168846130371,16.680036544799805,62.428035736083984,-53.98271560668945
1,449566,-54.487979888916016,1.7237378358840942,1.0018295049667358,10.75590705871582
1,449569,-30.913198471069336,11.043513298034668,-39.59220886230469,114.76920318603516
1,449570,88.7939682006836,-68.77022552490234,-38.63795471191406,19.070627212524414
1,449573,183.55079650878906,-19.548749923706055,37.2779541015625,-106.05552673339844
1,449574,113.84336853027344,70.96907806396484,62.95603561401367,-160.76385498046875
1,449577,-209.58116149902344,9.256546020507812,-53.98119354248047,-201.79624938964844
1,449578,-182.4802703857422,7.276114463806152,-50.56808090209961,180.91053771972656
1,449728,-46.1458854675293,-28.676658630371094,-73.78588104248047,329.8813171386719
1,449728,-23.5205020904541,-87.80941772460938,-92.95812225341797,-248.5843505859375
1,449728,178.56712341308594,43.37525939941406,102.29706573486328,-154.76812744140625
1,449728,44.96292495727539,31.805450439453125,71.16732788085938,114.36541748046875
1,449729,-108.32234191894531,-20.79916000366211,-6.271797180175781,-2.9923880100250244
1,449729,-40.174217224121094,45.82756423950195,33.63046646118164,54.27850341796875
1,449729,-15.292351722717285,23.490755081176758,-0.5991715788841248,51.88277053833008
1,449729,42.14567565917969,-21.132516860961914,15.915777206420898,13.205063819885254
1,449729,45.19209671020508,-17.437837600708008,40.51136016845703,47.898170471191406
1,449729,66.6786117553711,-19.80487632751465,31.150400161743164,19.42721939086914
1,449730,125.5197982788086,-0.4622909724712372,3.752811908721924,0.49291762709617615
1,449730,67.70346069335938,35.78190994262695,-1.3919843435287476,35.15822982788086
1,449730,-3.6807684898376465,13.759385108947754,22.6920166015625,28.97809600830078
1,449730,-11.169242858886719,-0.6026111841201782,-2.4411864280700684,12.754331588745117
1,449730,-59.52344512939453,11.5588960647583,-30.870229721069336,-4.804542064666748
1,449731,-83.80001831054688,-18.969310760498047,-28.029014587402344,10.715291976928711
1,449731,-48.57183837890625,-14.512723922729492,-7.701870918273926,12.147909164428711
1,449731,10.854416847229004,23.69429588317871,7.362921237945557,-14.540535926818848
1,449731,44.03912353515625,-17.084230422973633,-6.220877170562744,-47.75977325439453
1,449731,27.894546508789062,-42.172149658203125,13.3222017288208,-42.53175354003906
1,449731,27.93653106689453,2.2273526191711426,19.385784149169922,-7.2915940284729
1,449732,17.126129150390625,21.468185424804688,-14.793583869934082,-44.018699645996094
1,449732,2.353666067123413,19.18437957763672,-2.301086187362671,-65.69463348388672
1,449732,-15.390440940856934,-3.5449748039245605,-1.9296818971633911,-24.247528076171875
1,449732,-67.77340698242188,-20.78696060180664,-26.324987411499023,18.604164123535156
1,449732,-59.78866195678711,16.895864486694336,-2.5626325607299805,9.71978759765625
1,449732,-3.786158561706543,5.582492351531982,3.53568959236145,-11.656888961791992
1,449733,-21.343414306640625,-31.356016159057617,-38.43660354614258,6.264720439910889
1,449733,-22.08783531188965,5.596322536468506,-6.23332405090332,14.946050643920898
1,449733,27.09136199951172,7.007674694061279,26.700647354125977,-12.383338928222656
1,449733,28.231836318969727,-22.184856414794922,-35.5018310546875,-35.82223892211914
1,449733,0.3218100070953369,-5.501121997833252,-15.771496772766113,-13.410455703735352
1,449734,-29.964967727661133,3.2076287269592285,32.090423583984375,-2.0252695083618164
1,449734,-35.094905853271484,0.23277659714221954,-4.71660852432251,-35.62506866455078
1,449734,-29.8598690032959,8.163641929626465,-5.957858085632324,-6.46315860748291
1,449734,-19.699785232543945,15.888854026794434,24.42859649658203,54.4109992980957
1,449734,-1.7047044038772583,-8.048246383666992,8.211905479431152,26.7367000579834
1,449734,2.082876443862915,7.398979187011719,-3.265150547027588,17.764259338378906
1,449734,28.031042098999023,37.229591369628906,19.690088272094727,45.78548812866211
1,449735,46.03932189941406,-3.670164108276367,30.331640243530273,44.69670486450195
1,449735,38.20185470581055,6.934031963348389,16.129005432128906,38.6231803894043
1,449735,30.80067253112793,6.188711643218994,-15.133432388305664,19.086219787597656
1,449735,5.842015743255615,-3.835129976272583,-2.7191286087036133,15.630112648010254
1,449735,-24.29807472229004,28.835874557495117,34.7525634765625,13.235307693481445
1,449735,-10.63701057434082,3.9494190216064453,-8.933977127075195,-0.908676266670227
1,449736,3.3676390647888184,4.373063087463379,-22.64399528503418,-4.88975715637207
1,449736,-34.08626174926758,-0.5963185429573059,23.057445526123047,-4.3967461585998535
1,449736,-27.161441802978516,-19.88585662841797,-3.299226999282837,-3.4986634254455566
1,449736,18.406341552734375,-12.597511291503906,-30.408432006835938,-46.295501708984375
1,449736,9.224262237548828,-8.704461097717285,-24.929134368896484,-42.63298797607422
1,449737,-9.499711036682129,-14.99000072479248,-7.726640701293945,2.0467886924743652
1,449737,18.46931266784668,-38.38566207885742,13.968001365661621,-9.152453422546387
1,449737,16.411983489990234,1.4145805835723877,4.601834774017334,-5.978075981140137
1,449737,-8.629496574401855,35.50955581665039,-12.384910583496094,-2.3972983360290527
1,449737,-10.617838859558105,-19.136817932128906,-23.326539993286133,-6.473306655883789
1,449737,-13.218947410583496,-28.84004020690918,-5.876471996307373,3.112743377685547
1,449738,0.9332380294799805,12.652365684509277,5.285852432250977,12.113019943237305
1,449738,8.854023933410645,17.85420799255371,-13.122867584228516,4.102557182312012
1,449738,5.083329677581787,18.241079330444336,-2.1100165843963623,-13.951069831848145
1,449738,10.02121353149414,5.437618732452393,3.759312391281128,-14.432852745056152
1,449738,13.194991111755371,-7.366268634796143,-14.896156311035156,3.272254467010498
1,449738,-6.134196758270264,8.54116153717041,10.804807662963867,16.04717445373535
1,449739,1.917070984840393,8.51148509979248,13.345969200134277,-6.76654052734375
1,449739,8.263449668884277,-2.892352342605591,-6.547486305236816,-15.684322357177734
1,449739,-17.544830322265625,0.11841856688261032,19.02942657470703,-2.4629571437835693
1,449739,-4.4429216384887695,-8.607124328613281,2.9175362586975098,1.4653294086456299
1,449739,-0.9160954356193542,-17.71347427368164,4.909176349639893,-16.783002853393555
1,449739,14.539432525634766,6.895846843719482,9.345088958740234,-18.87972640991211
1,449740,15.812735557556152,12.908870697021484,-23.573699951171875,11.641225814819336
1,449740,-34.158634185791016,-17.503286361694336,6.906819820404053,-4.048271179199219
1,449740,-1.3596758842468262,-6.665951251983643,27.205413818359375,-25.795747756958008
1,449740,18.215545654296875,-3.6124398708343506,10.997814178466797,10.638265609741211
1,449740,-21.19113540649414,-6.331269264221191,-1.3699263334274292,10.909811973571777
1,449740,10.549697875976562,-4.858993053436279,-26.952993392944336,-19.185335159301758
1,449741,11.31737232208252,-13.33853816986084,-2.963773488998413,6.615285873413086
1,449742,-9.200691223144531,16.755111694335938,36.95299530029297,18.01854133605957
1,449742,24.88746452331543,19.13933753967285,6.470194339752197,9.99240493774414
1,449742,5.844825744628906,11.991374969482422,-1.4877712726593018,14.353654861450195
1,449742,-0.7989200353622437,-4.453758716583252,-0.9439695477485657,-8.510644912719727
