Aktueller Finger,timestamp_ms,sensor_0,sensor_1,sensor_2,sensor_3
0,966289,15.532063484191895,-5.9956889152526855,10.986809730529785,2.4075989723205566
0,966290,-14.373900413513184,23.46635627746582,-12.230181694030762,-16.654830932617188
0,966291,-20.648601531982422,-5.341094493865967,-23.384265899658203,52.66725540161133
0,966294,21.549957275390625,8.719893455505371,21.003740310668945,-43.390296936035156
0,966295,32.775081634521484,50.2060661315918,28.191923141479492,-135.676025390625
0,966298,-27.93341064453125,-61.756168365478516,-16.654495239257812,99.01582336425781
0,966299,25.08306121826172,-59.41404342651367,-12.349684715270996,59.29426193237305
0,966302,-29.943628311157227,109.5030517578125,21.966251373291016,-118.4640121459961
0,966303,-80.22624206542969,71.44218444824219,1.4226967096328735,7.8910112380981445
0,966306,61.85103225708008,-115.9140396118164,-35.649658203125,79.01343536376953
0,966307,37.21837615966797,-51.82186508178711,-2.914216995239258,-28.951858520507812
0,966310,-37.81938171386719,57.428096771240234,36.26998519897461,-29.151145935058594
0,966311,34.8018798828125,-1.2468665838241577,16.303342819213867,33.443111419677734
0,966314,29.483444213867188,41.41160583496094,-14.99981689453125,-9.072487831115723
0,966315,-26.470211029052734,32.4419059753418,-5.4602861404418945,7.713914394378662
0,966318,0.7050766944885254,-106.48957061767578,-7.987155437469482,30.04964828491211
0,966319,-0.13993705809116364,-35.14796447753906,-4.332578659057617,26.606599807739258
0,966322,-45.61115264892578,117.67752075195312,12.194544792175293,-46.96996307373047
0,966323,-17.609359741210938,39.51801681518555,9.63686466217041,-42.92778778076172
0,966326,63.82539749145508,-109.97883605957031,-3.132911443710327,56.73879623413086
0,966327,22.397397994995117,-21.484895706176758,-33.9453010559082,26.65703582763672
0,966582,-97.0218734741211,157.4308319091797,15.46889591217041,-16.760417938232422
0,966583,-52.44581985473633,16.4388484954834,23.241540908813477,-39.62857437133789
0,966586,86.33121490478516,-154.01516723632812,-36.90730285644531,-10.531623840332031
0,966587,69.49239349365234,-53.04478454589844,-13.419049263000488,14.066682815551758
0,966590,-3.080678939819336,1.848288655281067,8.958105087280273,2.2626123428344727
0,966592,23.073667526245117,-5.6057281494140625,26.482521057128906,14.504079818725586
0,966594,8.443009376525879,30.336746215820312,37.801597595214844,22.92857551574707
0,966596,-60.374820709228516,55.48478317260742,8.784235000610352,15.507676124572754
0,1010534,-61.65448760986328,75.42198944091797,0.348874568939209,-101.13037872314453
0,1010535,-26.243408203125,55.84518051147461,-11.547001838684082,-104.53182983398438
0,1010538,5.9784770011901855,-33.116539001464844,-62.935813903808594,153.5458984375
0,1010539,12.088961601257324,-60.32339859008789,-2.6375248432159424,130.0492401123047
0,1010542,107.25826263427734,0.381430447101593,55.615814208984375,-123.10043334960938
0,1010543,46.015663146972656,-72.10120391845703,-57.11866760253906,-63.925514221191406
0,1010546,-140.8948516845703,-93.47421264648438,-46.607662200927734,82.16407775878906
0,1010547,36.76369857788086,50.854862213134766,67.58672332763672,22.423688888549805
0,1010550,75.3467025756836,67.86749267578125,39.38774871826172,-24.24371337890625
0,1010551,-67.29824829101562,12.272038459777832,2.7988486289978027,22.81753921508789
0,1010554,-22.474592208862305,21.93557357788086,-9.911199569702148,-33.42545700073242
0,1010555,-19.571903228759766,59.674339294433594,-19.576303482055664,-59.101436614990234
0,1010558,-21.685699462890625,1.6437984704971313,-16.123605728149414,14.57706069946289
0,1010559,36.668766021728516,-89.4133071899414,-5.920987606048584,38.26613235473633
0,1010562,28.590377807617188,-34.38751983642578,9.731502532958984,15.344515800476074
0,1010563,-3.840407609939575,3.1076831817626953,10.408090591430664,-11.651998519897461
0,1010566,13.696981430053711,-43.741146087646484,10.044120788574219,-28.78650665283203
0,1010567,3.4400854110717773,18.553401947021484,4.233616352081299,-5.996734619140625
0,1010570,-1.697709321975708,100.88680267333984,-2.413567543029785,50.768314361572266
0,1010571,-13.236186027526855,2.842245578765869,-19.349523544311523,-7.865534782409668
0,1010574,-23.815818786621094,-35.308250427246094,18.53158187866211,-45.586387634277344
0,1010575,7.74113130569458,66.58887481689453,20.817602157592773,11.93974494934082
0,1010578,-1.4869645833969116,-10.556675910949707,-43.043827056884766,36.87841796875
0,1010579,-27.339073181152344,-101.84352111816406,-29.936128616333008,47.4315185546875
0,1010582,16.129779815673828,5.91244649887085,31.446264266967773,-60.951175689697266
0,1010583,33.21700668334961,50.890811920166016,30.32770538330078,-68.61134338378906
0,1010586,-30.84681510925293,-44.78520965576172,-33.391754150390625,68.02290344238281
0,1010587,18.3366641998291,-29.465646743774414,-25.815109252929688,0.8931568264961243
0,1010590,44.960784912109375,52.31840515136719,30.171459197998047,-13.967460632324219
0,1010592,-31.514373779296875,-1.7874541282653809,-2.5703177452087402,30.351062774658203
0,1010594,-5.6338911056518555,0.5167346596717834,2.6424753665924072,-14.09819221496582
0,1010596,-4.332211971282959,51.85161209106445,37.05037307739258,-23.517818450927734
0,1010598,-15.37618350982666,18.28923225402832,-14.700459480285645,-7.099688529968262
0,1010600,16.56378746032715,-57.65913772583008,-35.24571228027344,35.561561584472656
0,1010602,7.082367897033691,-49.5043830871582,0.008082838729023933,-20.552146911621094
0,1010604,1.3439478874206543,26.575164794921875,36.51013946533203,-12.818028450012207
0,1010605,-29.210735321044922,-10.500343322753906,5.674469470977783,70.5301513671875
0,1010608,25.883705139160156,9.879981994628906,-13.372612953186035,7.328442096710205
0,1010610,45.404178619384766,39.189613342285156,-0.5211565494537354,-55.76408004760742
0,1010611,-47.64718246459961,-48.996498107910156,-21.023534774780273,-9.430728912353516
0,1010614,-16.293542861938477,-6.766534328460693,9.210958480834961,19.5673770904541
0,1010615,3.1463286876678467,72.28739166259766,30.75023078918457,-34.65812301635742
0,1010618,-5.9750590324401855,6.491363048553467,-15.990544319152832,-19.878589630126953
0,1010619,-1.8296668529510498,-35.74665069580078,-17.979061126708984,48.85191345214844
0,1010622,-27.638072967529297,-27.591365814208984,11.826637268066406,34.683555603027344
0,1010623,22.933324813842773,-4.069267272949219,-8.111205101013184,-34.91262435913086
0,1010626,46.76530075073242,12.318418502807617,-8.134868621826172,-2.6904711723327637
0,1010627,-5.547885894775391,0.3018846809864044,16.693931579589844,37.21799087524414
0,1010630,-27.465084075927734,17.916622161865234,-2.73511004447937,-48.95808792114258
0,1010631,12.746417045593262,-9.123700141906738,-22.704957962036133,-29.3674259185791
0,1010634,25.5687198638916,-25.737220764160156,22.875831604003906,22.170896530151367
0,1010635,-46.49610900878906,34.538211822509766,13.072844505310059,24.113351821899414
0,1010638,-30.02937126159668,43.31062698364258,-39.35576629638672,34.281700134277344
0,1010639,56.2232780456543,-19.529619216918945,6.1609601974487305,-24.717496871948242
0,1010642,23.998695373535156,-53.43247604370117,30.350656509399414,-46.81717300415039
0,1010643,-35.692115783691406,24.73189926147461,-11.305337905883789,2.0762534141540527
0,1010646,7.256965160369873,41.30134201049805,-24.15781021118164,23.425350189208984
0,1010647,9.564337730407715,-57.6282844543457,-1.8855787515640259,13.323978424072266
0,1010650,-6.443440914154053,-8.031414985656738,27.51814842224121,8.988808631896973
0,1010651,5.274934768676758,14.231588363647461,15.003673553466797,-5.294229030609131
0,1010654,-22.644067764282227,-29.598520278930664,-15.583952903747559,-1.6618341207504272
0,1010655,-25.81698226928711,53.68097686767578,-19.36012840270996,-10.377654075622559
0,1010658,24.347835540771484,40.26934814453125,17.292556762695312,-13.51778793334961
0,1010659,32.47267150878906,-59.0374641418457,7.046721458435059,40.073036193847656
0,1010662,-28.9322452545166,-34.854164123535156,-16.334068298339844,12.534180641174316
0,1010663,-20.8853702545166,38.75163269042969,30.36564064025879,-51.538570404052734
0,1010666,24.464111328125,6.693100929260254,-3.865452289581299,-31.570552825927734
0,1010667,17.824607849121094,-28.62303352355957,-13.34585189819336,20.54265785217285
0,1010670,-13.573131561279297,25.439411163330078,4.125879764556885,40.96610641479492
0,1010671,-5.073760032653809,-10.179522514343262,-19.05459976196289,-7.49050760269165
0,1010674,6.7341814041137695,-53.77904510498047,1.7352654933929443,-49.58360290527344
0,1010675,0.9576191306114197,59.19541549682617,15.24160099029541,19.17093849182129
0,1010678,-10.973846435546875,63.93423080444336,-2.7324163913726807,33.6512451171875
0,1010679,-13.529892921447754,-61.29335021972656,-10.767448425292969,-35.12187957763672
0,1010682,29.182889938354492,-21.09897232055664,24.48580551147461,16.17014503479004
0,1010683,13.56820011138916,27.625911712646484,-3.5885677337646484,24.007247924804688
0,1010686,-28.943967819213867,-30.70199966430664,-51.12929916381836,8.529078483581543
0,1010687,0.223415806889534,0.15575474500656128,-8.913111686706543,-44.3547477722168
0,1010690,-8.38948917388916,36.870304107666016,49.005584716796875,-41.60776138305664
0,1010691,7.310962677001953,-6.228572845458984,43.60858917236328,101.72332763671875
0,1010694,28.21000099182129,-18.584081649780273,-16.75283432006836,23.445785522460938
0,1010695,-32.552547454833984,27.144027709960938,-24.002058029174805,-39.569026947021484
0,1010698,-4.003417491912842,19.859960556030273,13.607054710388184,-33.663570404052734
0,1010699,2.924643039703369,-31.38872528076172,-17.106231689453125,-30.89255142211914
0,1010702,4.375232696533203,-41.812217712402344,-31.075063705444336,37.56095886230469
0,1010703,46.886192321777344,-7.149739742279053,13.691917419433594,23.660446166992188
0,1010706,-1.3700909614562988,34.4251708984375,14.188655853271484,-10.391864776611328
0,1010707,-34.96779251098633,12.14157485961914,5.084204196929932,-15.22867202758789
0,1010710,-14.136270523071289,19.750171661376953,6.501724720001221,23.231822967529297
0,1010711,21.578292846679688,0.9121006727218628,-5.53919792175293,-18.322341918945312
0,1010714,-10.88841438293457,-64.24547576904297,-23.761676788330078,-57.10483169555664
0,1010715,-27.48246192932129,19.33769416809082,-7.202478885650635,45.7227668762207
0,1010718,19.612138748168945,56.874610900878906,24.167236328125,43.57448959350586
0,1010719,14.131428718566895,-31.344402313232422,-19.96978187561035,-70.13417053222656
0,1010722,7.1362810134887695,-28.16817855834961,12.018994331359863,14.124387741088867
0,1010723,-16.103694915771484,15.90003776550293,44.37718200683594,87.53252410888672
0,1010726,-23.51336669921875,17.82798957824707,-13.058734893798828,-57.42662811279297
0,1010727,7.599891185760498,14.002118110656738,-15.360273361206055,-58.2533073425293
0,1010730,13.574637413024902,-12.099495887756348,-38.81517791748047,23.702131271362305
0,1010731,17.33831787109375,-44.282310485839844,-5.035035610198975,37.590087890625
0,1010734,2.9752702713012695,20.785429000854492,46.42522430419922,-9.03835391998291
0,1010735,-11.379730224609375,35.281192779541016,17.891599655151367,-35.636661529541016
0,1010738,3.3703041076660156,-23.55547523498535,1.2393558025360107,60.772682189941406
0,1010739,12.479948997497559,4.4882917404174805,-13.777729988098145,28.841821670532227
0,1010742,0.7073182463645935,-7.059298515319824,-10.823138236999512,-49.24187469482422
0,1010743,-15.794140815734863,2.3685431480407715,-12.632892608642578,-17.096996307373047
0,1010746,-30.511966705322266,19.65279769897461,-7.253756999969482,-36.59168243408203
0,1010747,-0.07102746516466141,-22.036344528198242,24.133275985717773,16.080841064453125
0,1010750,33.33631134033203,10.909485816955566,3.2062108516693115,74.66568756103516
0,1010751,0.3605223000049591,-16.33271598815918,-3.0776314735412598,-11.315800666809082
0,1010754,-19.248613357543945,-30.67133903503418,14.125890731811523,-30.101133346557617
0,1010755,-7.915684700012207,51.20381164550781,-16.390363693237305,-10.585343360900879
0,1010758,18.630443572998047,-12.483372688293457,-20.839353561401367,7.766180515289307
0,1010759,16.099138259887695,-64.63433837890625,6.631514549255371,10.373446464538574
0,1010762,-13.886566162109375,33.68227767944336,19.25922203063965,-8.010717391967773
0,1010763,-14.352387428283691,41.12781524658203,8.413793563842773,-8.622797012329102
0,1010766,14.508639335632324,17.540658950805664,-19.762815475463867,-20.102312088012695
0,1010767,-1.1260535717010498,1.3000138998031616,-11.575109481811523,32.36992263793945
0,1010770,-11.041801452636719,-9.162487983703613,36.16523361206055,10.386460304260254
0,1010771,53.494590759277344,-9.359058380126953,4.211527347564697,-48.20136260986328
0,1010774,-22.49883460998535,-63.47349166870117,-69.7809829711914,14.02511978149414
0,1010775,-68.13223266601562,40.01481628417969,-8.980992317199707,23.34117317199707
0,1010778,35.06804656982422,47.974342346191406,57.12199020385742,-17.239635467529297
0,1010779,24.255704879760742,-65.28630828857422,-2.3078274726867676,13.335189819335938
0,1010782,-0.7546170353889465,26.036575317382812,-7.41066312789917,18.402910232543945
0,1010783,0.5769619941711426,38.67278289794922,14.911131858825684,-4.58282470703125
0,1010786,-18.073192596435547,-19.021944046020508,-24.620119094848633,0.7147634625434875
0,1010787,-17.128128051757812,-11.789894104003906,15.542312622070312,-21.363752365112305
0,1010790,20.649690628051758,-5.302295684814453,28.084484100341797,-7.992938995361328
0,1010791,38.7239875793457,0.21329915523529053,-32.98688507080078,37.615718841552734
0,1010794,-24.97939682006836,-19.654022216796875,-3.9543824195861816,23.822193145751953
0,1010795,-10.51779842376709,32.88651657104492,29.22098731994629,-39.37175369262695
0,1010798,9.517939567565918,-5.251725196838379,-17.158428192138672,-49.83888244628906
0,1010800,-3.507471799850464,-48.660614013671875,-24.579084396362305,-14.130972862243652
0,1010802,-5.140435218811035,34.170536041259766,21.10172462463379,18.283002853393555
0,1010804,-35.70371627807617,-3.921219825744629,3.457050085067749,38.12328338623047
0,1010806,25.728103637695312,23.36017417907715,-25.684993743896484,9.609143257141113
0,1010808,14.881610870361328,40.696022033691406,7.258946418762207,17.21965789794922
0,1010810,-37.707496643066406,-78.78327178955078,18.81432342529297,6.2166595458984375
0,1010811,58.42678451538086,-31.5770206451416,-14.653504371643066,-26.894577026367188
0,1010814,48.953094482421875,77.84049224853516,11.054924964904785,7.681487083435059
0,1010815,-55.2474250793457,45.76254653930664,2.941845178604126,7.241827011108398
0,1010818,16.371788024902344,-43.49802017211914,-30.446727752685547,-58.38252258300781
0,1010819,131.01390075683594,-42.02582550048828,44.97297668457031,-14.28093147277832
0,1010822,-197.1368408203125,2.475895881652832,17.80577278137207,74.75651550292969
0,1010823,-318.0842590332031,0.44020166993141174,-29.941499710083008,-92.93811798095703
0,1010826,252.65969848632812,-8.989960670471191,-5.9480462074279785,8.366863250732422
0,1010827,221.8334197998047,-7.692073822021484,14.491860389709473,217.79238891601562
0,1010830,-140.96371459960938,32.28329086303711,13.234710693359375,-122.72623443603516
0,1010831,44.27006912231445,-1.9982895851135254,-47.966712951660156,-145.98719787597656
0,1010834,9.995218276977539,-40.533538818359375,-69.1042251586914,161.21475219726562
0,1010835,-131.41180419921875,61.04607009887695,-8.905695915222168,6.399748802185059
0,1010838,32.636009216308594,32.586029052734375,134.109619140625,-100.4894790649414
0,1010839,103.14768981933594,-70.19388580322266,76.17807006835938,106.06983184814453
0,1010842,22.727779388427734,-18.257205963134766,-88.00862884521484,-0.03186388686299324
0,1010843,-43.90962600708008,42.601253509521484,-45.76892852783203,-170.37698364257812
0,1010846,0.7315226197242737,25.341094970703125,4.119640827178955,45.81597900390625
0,1010847,14.71188735961914,-15.458168983459473,-1.9358954429626465,128.72146606445312
0,1010850,-23.566814422607422,2.4112701416015625,29.865114212036133,-65.907470703125
0,1010851,-0.5753605365753174,-15.334914207458496,46.77195739746094,-44.46990966796875
0,1010854,-13.530595779418945,-20.68499755859375,-19.048023223876953,47.33677291870117
0,1010855,-33.602169036865234,64.932861328125,-33.346221923828125,-33.05177688598633
0,1010858,13.170814514160156,-3.1278231143951416,-16.598983764648438,11.625849723815918
0,1010859,6.7742228507995605,-66.07633209228516,-44.42517852783203,63.251583099365234
0,1010862,6.0863261222839355,-10.113970756530762,22.04710578918457,-8.21947193145752
0,1010863,45.07589340209961,10.816529273986816,42.11062240600586,2.3242223262786865
0,1010866,-7.390050888061523,18.183124542236328,-13.703255653381348,-71.25843811035156
0,1010867,-15.598298072814941,2.0798301696777344,-3.4299027919769287,-70.56941986083984
0,1010870,-30.180444717407227,-7.5713725090026855,10.20411491394043,91.15603637695312
0,1010871,-59.680747985839844,-23.256685256958008,-4.47323751449585,30.846332550048828
0,1010874,33.72954559326172,17.154624938964844,21.06471824645996,-13.947904586791992
0,1010875,24.335172653198242,55.557796478271484,22.45929527282715,18.631511688232422
0,1010878,5.838514804840088,-0.2580648362636566,-43.94673156738281,-11.38293170928955
0,1010879,39.15531539916992,-38.0482292175293,-21.15310287475586,1.491296410560608
0,1010882,-15.694803237915039,-23.56612205505371,28.305688858032227,-5.818514347076416
0,1010883,2.9704768657684326,22.93373680114746,11.158028602600098,16.93761444091797
0,1010886,-13.363398551940918,17.614498138427734,-30.930984497070312,-1.7839447259902954
0,1010887,2.0833611488342285,0.14991411566734314,-3.250922679901123,-35.61956787109375
0,1010890,20.41449546813965,-6.495997905731201,44.4149169921875,0.9236589670181274
0,1010891,-45.38706588745117,-42.392704010009766,-35.12189483642578,1.2007981538772583
0,1010894,-0.9022586941719055,-10.607870101928711,-30.40843963623047,11.267401695251465
0,1010895,13.185791015625,62.80878829956055,73.45391082763672,-14.362916946411133
0,1010898,-5.292220115661621,18.22735595703125,11.558613777160645,-26.944334030151367
0,1010899,10.194388389587402,-46.64763641357422,-47.803070068359375,35.755306243896484
0,1010902,7.019988536834717,-10.142444610595703,-4.1943278312683105,21.67630958557129
0,1010903,3.716508150100708,9.56544303894043,-7.06651496887207,41.75020980834961
0,1010906,14.664359092712402,9.940896987915039,2.960193634033203,24.839611053466797
0,1010907,-20.834110260009766,-25.488109588623047,11.23192024230957,-121.34635162353516
0,1010910,-15.796202659606934,10.973645210266113,1.5789347887039185,-37.90477752685547
0,1010911,39.053245544433594,29.820697784423828,-11.819770812988281,107.56727600097656
0,1010914,6.3274006843566895,-61.00162887573242,-24.64109992980957,-29.154041290283203
0,1010915,-27.30636215209961,42.34782028198242,42.30351257324219,-5.386785984039307
0,1010918,-29.875022888183594,59.39461898803711,35.3193359375,100.11011505126953
0,1010919,4.910512447357178,-88.31106567382812,-48.99600601196289,-94.56095886230469
0,1010922,37.17735290527344,-13.039542198181152,-8.179808616638184,-137.84487915039062
0,1010923,-4.591156005859375,62.00061798095703,20.274124145507812,37.46471405029297
0,1010926,-31.835264205932617,6.572758197784424,-17.10502052307129,141.7422637939453
0,1010927,14.317301750183105,-18.859655380249023,12.233484268188477,37.349510192871094
0,1010930,13.958467483520508,5.658724308013916,-3.776339530944824,-87.64031219482422
0,1010933,-34.99787139892578,-1.117401123046875,-14.23538875579834,-15.533708572387695
0,1010933,-14.988396644592285,-43.8264045715332,25.0596923828125,27.25031089782715
0,1010936,57.01563262939453,43.872802734375,30.698881149291992,7.36725378036499
0,1010937,36.809818267822266,53.551231384277344,9.103944778442383,-11.77649211883545
0,1010940,-26.763296127319336,-95.87810516357422,-57.81758117675781,29.423120498657227
0,1010941,-1.1924124956130981,-25.20272445678711,-18.188737869262695,9.113025665283203
0,1010944,-63.268470764160156,84.07801818847656,26.066133499145508,-74.6624984741211
0,1010945,-39.62478256225586,-2.212986707687378,-18.73954963684082,53.302825927734375
0,1010948,99.8782730102539,-25.953147888183594,15.206450462341309,49.15142822265625
0,1010949,19.404369354248047,7.367687225341797,36.12619400024414,-157.72984313964844
0,1010952,-38.81003952026367,-23.803752899169922,-48.592063903808594,-34.08757400512695
0,1010953,23.89995574951172,-19.32063102722168,-11.006848335266113,150.29434204101562
0,1010956,-66.81970977783203,26.971874237060547,66.6445083618164,-40.87053298950195
0,1010957,-62.34929656982422,39.69518280029297,-26.30953025817871,-11.225512504577637
0,1010960,126.91680908203125,-43.83955001831055,-25.33937644958496,138.231689453125
0,1010961,59.775428771972656,-40.71601104736328,20.967266082763672,-129.66241455078125
0,1010964,-78.1397476196289,55.452762603759766,-38.019840240478516,-116.79862213134766
0,1010965,-8.49443244934082,1.6175204515457153,-27.60177230834961,196.2108917236328
0,1010968,46.62579345703125,11.595918655395508,50.24201965332031,45.064292907714844
0,1010969,-4.539102554321289,15.192429542541504,45.431304931640625,-70.27315521240234
0,1010972,-16.110881805419922,-47.10224533081055,14.375593185424805,-13.893359184265137
0,1010973,-8.397730827331543,-17.316030502319336,-2.1910672187805176,-148.59100341796875
0,1010976,-107.4875259399414,56.16773986816406,-25.115934371948242,60.12261199951172
0,1010977,-69.59898376464844,64.3281478881836,-37.58439254760742,177.05531311035156
0,1010980,184.3202362060547,-102.33766174316406,-49.80702209472656,-95.27777862548828
0,1010981,112.93427276611328,-76.53530883789062,20.384849548339844,-121.35551452636719
0,1010984,-139.03897094726562,105.73998260498047,55.90269088745117,102.45702362060547
0,1010985,-7.237734317779541,32.00322723388672,44.37924575805664,100.26596069335938
0,1010988,49.483123779296875,-7.671630382537842,26.226932525634766,-91.12163543701172
0,1010989,-50.5738525390625,-11.631847381591797,-64.38409423828125,-68.77748107910156
0,1010992,21.862348556518555,-68.6270751953125,-70.75719451904297,107.46654510498047
0,1010993,-6.627896785736084,-2.5242762565612793,-22.1959285736084,79.15676879882812
0,1010996,-32.11431884765625,18.020376205444336,15.109086036682129,-143.0353240966797
0,1010997,43.62791442871094,23.00288200378418,47.62602996826172,-26.9843807220459
0,1011000,33.81728744506836,6.189023494720459,103.44855499267578,23.84237289428711
0,1011001,-15.712381362915039,-0.31967636942863464,39.48923873901367,-25.78921890258789
0,1011004,-113.8089370727539,23.455812454223633,-162.39735412597656,64.7261734008789
0,1011005,7.502983093261719,-15.030237197875977,-81.72366333007812,-22.927875518798828
0,1011008,86.447998046875,-29.901958465576172,37.4038200378418,-43.150718688964844
0,1011009,-55.841121673583984,25.908355712890625,54.6456298828125,-37.19646453857422
0,1011012,23.532690048217773,32.5387077331543,90.26371765136719,88.77569580078125
0,1011013,24.94333839416504,-69.54623413085938,-51.882442474365234,109.24061584472656
0,1011016,40.392181396484375,-6.030183792114258,-54.63013458251953,-102.50242614746094
0,1011017,99.93162536621094,70.41429901123047,64.3782730102539,-43.31480407714844
0,1011020,-84.39077758789062,-20.895244598388672,4.9902544021606445,58.18468475341797
0,1011021,-133.67904663085938,-50.378021240234375,-26.398643493652344,-22.055328369140625
0,1011024,0.25715360045433044,14.164802551269531,7.4742960929870605,-22.581554412841797
0,1011025,65.54676055908203,51.05840301513672,8.761772155761719,68.6474609375
0,1011028,-19.057979583740234,-2.6029155254364014,-22.225753784179688,-1.072317361831665
0,1011029,-21.683513641357422,-22.97623062133789,-12.560286521911621,-52.58201217651367
0,1011032,91.33470153808594,-19.001888275146484,34.55802917480469,-39.95266342163086
0,1011034,-10.656584739685059,-21.489822387695312,-8.660811424255371,-50.31204605102539
0,1011036,-32.18690872192383,58.23979568481445,-60.601959228515625,167.66539001464844
0,1011038,59.75419998168945,50.35968780517578,-8.029552459716797,102.72599029541016
0,1011040,-72.16354370117188,-66.6857681274414,119.69786834716797,-216.32225036621094
0,1011042,-100.9914321899414,-42.427330017089844,42.73188018798828,-74.02838897705078
0,1011044,168.51319885253906,53.25370407104492,-161.38775634765625,75.872314453125
0,1011046,99.37120819091797,-17.945310592651367,-67.57427978515625,-40.497432708740234
0,1011047,-184.66064453125,-45.564701080322266,61.98383331298828,73.94084930419922
0,1011050,-47.367713928222656,46.17557907104492,87.80799865722656,134.83653259277344
0,1011051,62.48249053955078,-8.242297172546387,78.38043212890625,-88.95802307128906
0,1011054,28.64072608947754,-27.868261337280273,-76.22547912597656,-58.739139556884766
0,1011055,5.202847003936768,53.0583610534668,-80.04937744140625,25.784534454345703
0,1011058,-16.374536514282227,27.741573333740234,41.060699462890625,-23.29497718811035
0,1011059,-28.152612686157227,-41.779022216796875,8.034344673156738,53.00307083129883
0,1011062,-59.294715881347656,-16.55630111694336,-24.860515594482422,-43.87922668457031
0,1011063,73.46890258789062,25.702213287353516,39.40541076660156,28.499752044677734
0,1011066,124.65940856933594,-5.210777759552002,34.74335479736328,37.42313003540039
0,1011067,-49.776676177978516,18.913753509521484,-11.405654907226562,-238.48130798339844
0,1011072,-114.83948516845703,28.60923194885254,3.119854211807251,158.3662872314453
0,1011072,6.7672953605651855,-64.16650390625,-12.12865161895752,233.15689086914062
0,1011073,57.08537673950195,-38.01811218261719,-29.576213836669922,-221.06045532226562
0,1011076,-15.354331016540527,60.809810638427734,-73.24684143066406,-122.06199645996094
0,1011077,-12.166065216064453,12.26662826538086,-51.8779182434082,96.40657806396484
0,1011080,33.22639846801758,-78.72494506835938,101.85588836669922,-75.70616149902344
0,1011081,-19.89126968383789,6.902633190155029,103.35393524169922,-34.53810501098633
0,1011084,-29.933151245117188,97.42450714111328,26.2015380859375,251.17552185058594
0,1011085,14.176363945007324,-23.82417106628418,-76.95149230957031,71.86277770996094
0,1011088,-43.551918029785156,-46.86558532714844,-152.11053466796875,-145.62135314941406
0,1011089,46.79434585571289,60.03217697143555,108.87468719482422,-89.52203369140625
0,1011092,45.155426025390625,-28.259138107299805,150.3912353515625,62.6617546081543
0,1011093,-40.153621673583984,-84.35454559326172,-139.63473510742188,16.168466567993164
0,1011096,167.1028289794922,93.6688003540039,-62.103023529052734,52.54029083251953
0,1011097,-55.43074417114258,84.31696319580078,73.55962371826172,170.43212890625
0,1011100,-223.97543334960938,-117.94314575195312,16.80426788330078,-270.38330078125
0,1011101,64.80340576171875,-35.35430908203125,-31.114595413208008,-244.38890075683594
0,1011104,-44.39236831665039,92.27235412597656,-50.55847930908203,284.04217529296875
0,1011105,59.47739028930664,-12.566243171691895,-74.87351989746094,99.0932846069336
0,1011108,255.52239990234375,-36.013240814208984,120.12279510498047,-142.39553833007812
0,1011109,-125.17159271240234,30.858373641967773,196.91676330566406,-26.592144012451172
0,1011112,-106.451171875,-59.83457565307617,-191.09530639648438,35.249061584472656
0,1011113,83.1456527709961,-86.05387878417969,-125.21760559082031,9.307673454284668
0,1011116,-130.2526397705078,167.4316864013672,209.56678771972656,-30.021831512451172
0,1011117,-62.38028335571289,69.37541961669922,14.274015426635742,-84.99012756347656
0,1011120,93.5798110961914,-157.60569763183594,-142.01248168945312,139.91053771972656
0,1011121,46.64138412475586,25.44329833984375,80.1183853149414,218.08697509765625
0,1011124,17.01305389404297,40.28489303588867,32.46973419189453,-141.5640869140625
0,1011125,3.0500123500823975,-66.677001953125,-141.818115234375,-103.77272033691406
0,1011128,-48.31595993041992,16.834514617919922,39.41607666015625,-12.315152168273926
0,1011129,5.721784591674805,77.23578643798828,164.0516357421875,-78.18064880371094
0,1011132,38.717918395996094,-36.201114654541016,-56.522525787353516,81.62449645996094
0,1011133,-48.492774963378906,-59.91498565673828,-171.03318786621094,63.093299865722656
0,1011136,-92.99327087402344,30.88093376159668,-57.7215576171875,-80.84405517578125
0,1011137,-19.666059494018555,24.140161514282227,65.70699310302734,8.137407302856445
0,1011140,189.55001831054688,-2.1898534297943115,186.40701293945312,82.90043640136719
0,1011141,116.89734649658203,-3.0268118381500244,27.11018180847168,-49.61277389526367
0,1011144,-135.09364318847656,2.5099940299987793,-116.07512664794922,-36.93671417236328
0,1011145,-83.3108901977539,-31.74384307861328,-12.920223236083984,90.1025161743164
0,1011148,34.679420471191406,-8.738832473754883,28.21835708618164,-32.05442428588867
0,1011149,-8.718148231506348,36.653770446777344,4.8330979347229,-95.58685302734375
0,1011152,-11.83676815032959,-2.6716675758361816,-9.410902976989746,17.800750732421875
0,1011153,21.514999389648438,2.9952940940856934,-20.844623565673828,102.06079864501953
0,1011156,18.152219772338867,43.43033981323242,-7.501883506774902,31.46848487854004
0,1011157,35.35306167602539,-1.954473614692688,23.737747192382812,-100.36137390136719
0,1011160,18.670101165771484,-71.07958221435547,10.20480728149414,-16.349458694458008
0,1011161,-31.79842758178711,0.07247527688741684,3.882159948348999,76.103271484375
0,1011164,-65.54605102539062,59.6203498840332,-13.606199264526367,-56.64371871948242
0,1011165,-14.518455505371094,-30.26569938659668,-19.11781883239746,-37.31309127807617
0,1011168,43.89374542236328,15.933087348937988,-18.798288345336914,123.20975494384766
0,1011169,-0.14951135218143463,46.790435791015625,1.488560438156128,18.020736694335938
0,1011172,-14.096480369567871,-90.57365417480469,39.02720642089844,-107.61534118652344
0,1011173,-0.10856395959854126,-61.171871185302734,-20.628496170043945,-50.40798568725586
0,1011176,44.03110885620117,88.63338470458984,-13.503976821899414,35.21438217163086
0,1011177,83.17958068847656,39.87138366699219,41.054534912109375,111.9601821899414
0,1011180,-103.92855834960938,-108.40504455566406,-17.449865341186523,-33.81820297241211
0,1011181,-121.62139129638672,-17.506633758544922,-25.21895980834961,-217.40138244628906
0,1011184,124.06694030761719,119.5784683227539,39.814571380615234,121.14888000488281
0,1011185,60.77655792236328,30.36652183532715,17.321990966796875,244.64569091796875
0,1011188,-99.48013305664062,-57.191471099853516,-27.61517333984375,-144.44158935546875
0,1011189,-27.935501098632812,-9.236531257629395,-17.76626205444336,-137.8356170654297
0,1011192,72.0094985961914,12.405879020690918,17.07358169555664,71.74541473388672
0,1011193,53.3392219543457,11.890996932983398,35.00238800048828,96.35773468017578
0,1011196,-94.9363784790039,16.112594604492188,-27.760576248168945,-126.19523620605469
0,1011197,-174.7398681640625,-40.75602340698242,-61.98473358154297,-170.52557373046875
0,1011200,148.5392303466797,-27.38775634765625,50.51266860961914,306.205322265625
0,1011201,259.4648742675781,37.66706085205078,32.11214065551758,231.30250549316406
0,1011204,-77.89179992675781,-37.513824462890625,-83.22600555419922,-284.1951599121094
0,1011205,-155.44129943847656,-38.611331939697266,12.32248306274414,-131.27230834960938
0,1011208,-60.82465362548828,87.3594970703125,88.32147979736328,79.00227355957031
0,1011209,65.50694274902344,34.81005859375,44.16053771972656,-6.783573627471924
0,1011212,127.10718536376953,-54.015567779541016,-9.05223274230957,84.55136108398438
0,1011213,-8.834883689880371,-29.288888931274414,-96.63209533691406,18.863082885742188
0,1011216,-234.6561737060547,27.79124641418457,-65.0806884765625,-132.77352905273438
0,1011217,-66.52727508544922,29.702966690063477,49.496952056884766,53.289798736572266
0,1011220,302.44598388671875,-38.386898040771484,-3.5187368392944336,51.5704460144043
0,1011223,26.337331771850586,-22.636409759521484,-3.6082940101623535,-138.67994689941406
0,1011224,-197.98623657226562,43.368587493896484,72.36750030517578,56.51994323730469
0,1011225,79.4853286743164,10.244707107543945,-15.787741661071777,120.37641143798828
0,1011228,95.1290054321289,-29.829059600830078,-42.22513198852539,-83.84646606445312
0,1011229,-146.18492126464844,-18.410930633544922,2.507280111312866,-152.48846435546875
0,1011232,-77.63179779052734,-36.76211929321289,-10.240714073181152,61.77949523925781
0,1011233,162.5363311767578,-16.621938705444336,4.318265438079834,242.06687927246094
0,1011236,51.74675369262695,84.14985656738281,45.53669357299805,-63.075782775878906
0,1011237,-110.92798614501953,80.42611694335938,48.08570861816406,-155.61245727539062
0,1011240,26.559171676635742,-49.87617492675781,-22.940034866333008,93.01268005371094
0,1011241,48.45150375366211,-62.421730041503906,-71.9092788696289,25.49683380126953
0,1011244,-76.87779235839844,13.217307090759277,-6.008483409881592,-94.47907257080078
0,1011245,-22.4469051361084,19.61240005493164,26.007831573486328,-6.679952144622803
0,1011248,33.99288558959961,-17.89641761779785,-2.907548666000366,30.355005264282227
0,1011249,2.864563465118408,0.8553792834281921,-5.743383407592773,4.677602291107178
0,1011252,40.748748779296875,36.494571685791016,-7.902397155761719,60.07215881347656
0,1011253,44.36100769042969,-5.591069221496582,36.18679428100586,-18.348186492919922
0,1011256,-34.55674362182617,-15.487115859985352,34.960113525390625,-46.23065948486328
0,1011257,-55.20341491699219,20.083864212036133,-32.070411682128906,58.684505462646484
0,1011260,2.3280885219573975,-19.69040298461914,-20.385066986083984,17.568391799926758
0,1011261,30.716840744018555,-12.179160118103027,16.17887306213379,-96.45440673828125
0,1011264,-36.41142272949219,29.582176208496094,-7.769038200378418,-64.2909164428711
0,1011265,-66.63892364501953,-40.55097198486328,-30.40639877319336,107.71524810791016
0,1011268,40.627784729003906,0.3028216063976288,4.790056228637695,46.31394577026367
0,1011269,76.21249389648438,33.707054138183594,15.383832931518555,-30.230934143066406
0,1011272,-6.570589542388916,-23.349594116210938,11.304952621459961,-16.830120086669922
0,1011273,-42.59259033203125,-31.99058723449707,-13.16226863861084,-54.40503692626953
0,1011276,-8.915628433227539,35.25537109375,-7.853233814239502,27.145160675048828
0,1011277,22.15204429626465,92.56977844238281,62.48084259033203,58.85434341430664
0,1011280,19.258718490600586,-72.33950805664062,-20.895261764526367,-66.95854187011719
0,1011281,-1.1355016231536865,-65.84186553955078,-32.52900314331055,-19.269960403442383
0,1011284,-19.802427291870117,66.9941635131836,40.266632080078125,120.38977813720703
0,1011285,-19.523277282714844,-15.633731842041016,-37.53759002685547,-16.364351272583008
0,1011288,24.273059844970703,-18.62765884399414,-37.09182357788086,-56.044715881347656
0,1011289,38.486122131347656,53.937618255615234,37.89772415161133,86.28884887695312
0,1011292,-38.35792541503906,-10.496126174926758,21.906042098999023,-122.65045166015625
0,1011293,0.06269413977861404,-49.709964752197266,-12.539015769958496,-128.4728240966797
0,1011296,33.40529251098633,25.58218002319336,-12.12512493133545,204.89736938476562
0,1011297,-12.726755142211914,25.8254451751709,9.146531105041504,104.44581604003906
0,1011300,-14.101373672485352,-57.22096633911133,15.003073692321777,-170.7611846923828
0,1011301,-39.5721435546875,-29.496721267700195,-19.43520164489746,-63.910987854003906
0,1011304,-36.684974670410156,60.865875244140625,-9.098003387451172,145.04762268066406
0,1011305,34.522361755371094,37.75996398925781,1.534022569656372,37.94976043701172
0,1011308,39.04673767089844,-28.095516204833984,28.577871322631836,-105.703125
0,1011309,-25.679786682128906,-31.543132781982422,-18.3149356842041,-74.60664367675781
0,1011312,36.77591323852539,-6.5209879875183105,-46.164642333984375,67.23798370361328
0,1011313,35.86396026611328,15.430828094482422,62.842647552490234,60.67103958129883
0,1011316,-86.67301940917969,27.656681060791016,-4.488032817840576,-23.97616958618164
0,1011317,19.63644027709961,19.865375518798828,-20.351896286010742,-1.4823861122131348
0,1011320,121.15943908691406,-63.13498306274414,4.594076156616211,-68.36131286621094
0,1011321,-94.15595245361328,-46.94895935058594,-50.95863342285156,-14.969581604003906
0,1011324,-87.47124481201172,127.6150894165039,71.9158706665039,114.08019256591797
0,1011325,90.8166732788086,29.978927612304688,37.55907440185547,-11.5825834274292
0,1011328,16.11041259765625,-109.06705474853516,-77.60517883300781,-24.44493293762207
0,1011329,8.576326370239258,13.097211837768555,5.172311305999756,71.02128601074219
0,1011332,9.109700202941895,4.277214527130127,7.497046947479248,-83.50108337402344
0,1011333,-115.11617279052734,-65.85186004638672,-23.211458206176758,-84.40424346923828
0,1011336,-43.60557174682617,54.38823699951172,35.18061828613281,61.78640365600586
0,1011337,97.59310913085938,86.12987518310547,45.49263000488281,46.855716705322266
0,1011340,60.67941665649414,-88.2804183959961,-48.692047119140625,6.5355634689331055
0,1011341,-19.862348556518555,-27.75678253173828,-32.63608932495117,-39.7899169921875
0,1011344,-35.88577651977539,111.84585571289062,41.9744873046875,-24.282442092895508
0,1011345,4.951624870300293,-38.279762268066406,-12.690245628356934,53.89069747924805
0,1011348,15.796027183532715,-70.37638854980469,-25.798795700073242,29.45359230041504
0,1011349,39.474246978759766,44.261775970458984,43.9144172668457,-65.58152770996094
0,1011352,-18.315671920776367,23.888290405273438,21.212350845336914,24.3991756439209
0,1011353,-75.53015899658203,-35.55524826049805,-56.700687408447266,69.4032974243164
0,1011356,18.794687271118164,6.965144634246826,15.93595027923584,-80.12425231933594
0,1011357,10.487046241760254,24.45363426208496,39.890647888183594,-0.7351943254470825
0,1011360,15.467602729797363,-28.35157012939453,-37.05385208129883,70.11559295654297
0,1011361,15.042402267456055,0.9981688261032104,-18.974327087402344,-38.52392578125
0,1011364,-11.422562599182129,19.421987533569336,28.624296188354492,-70.84664154052734
0,1011365,11.41812515258789,12.132197380065918,34.077274322509766,26.5291805267334
0,1011368,-35.0109977722168,-3.5404207706451416,-13.136063575744629,11.2909574508667
0,1011369,-5.793516159057617,3.0933353900909424,-20.826642990112305,-29.956811904907227
0,1011372,15.299810409545898,-40.5289192199707,-12.447307586669922,100.23814392089844
0,1011373,17.43023109436035,-54.41997146606445,-4.1765336990356445,11.710558891296387
0,1011376,11.720332145690918,95.09693145751953,36.70469665527344,-123.63145446777344
0,1011377,-36.26789093017578,38.10348892211914,-8.38261890411377,-4.4258341789245605
0,1011380,30.354089736938477,-77.88961791992188,-49.975223541259766,98.11556243896484
0,1011381,8.826077461242676,-13.29332160949707,-2.7276604175567627,-25.294775009155273
0,1011384,-52.19342803955078,30.284849166870117,29.52513313293457,-87.09500885009766
0,1011385,20.55921173095703,-8.823107719421387,4.423494815826416,56.2650146484375
0,1011390,11.59101390838623,-5.775588035583496,-25.330976486206055,16.177629470825195
0,1011391,-14.325839042663574,44.920860290527344,0.03792807087302208,-76.3729019165039
0,1011392,-2.531996011734009,-28.325679779052734,11.785164833068848,-35.592681884765625
0,1011393,-15.272007942199707,-45.72572708129883,0.8626118898391724,29.94462776184082
0,1011396,9.304080963134766,81.2617416381836,34.48735046386719,100.66650390625
0,1011397,-6.577047824859619,43.716285705566406,6.736862659454346,82.80272674560547
0,1011400,13.315634727478027,-116.66777801513672,-56.96916198730469,21.211240768432617
0,1011401,62.85581970214844,-29.48470115661621,17.199325561523438,-62.826351165771484
0,1011404,-20.954391479492188,77.54873657226562,46.4353141784668,-83.72537994384766
0,1011405,-47.39744186401367,-4.152406692504883,-14.407424926757812,27.982852935791016
0,1011408,13.619589805603027,-5.95773458480835,-6.420652389526367,26.022672653198242
0,1011409,10.54592514038086,22.44562339782715,11.886178970336914,-37.301517486572266
0,1011412,5.30374002456665,-25.501235961914062,-18.119125366210938,19.954275131225586
0,1011413,2.6816115379333496,-37.34108352661133,-43.37632369995117,11.511284828186035
0,1011416,35.15481185913086,23.701875686645508,2.189363479614258,-59.07012176513672
0,1011417,15.171833992004395,17.707012176513672,4.324643611907959,-36.589481353759766
0,1011420,-109.75727081298828,-15.789446830749512,-2.6996986865997314,39.59556579589844
0,1011421,-76.38665008544922,12.803693771362305,53.56702423095703,44.8840217590332
0,1011424,89.6624755859375,23.60376739501953,59.97813034057617,-7.345973968505859
0,1011425,74.17273712158203,-13.700820922851562,-31.087703704833984,-29.325515747070312
0,1011428,-42.70145034790039,-5.093542575836182,-96.58828735351562,24.196218490600586
0,1011429,-13.677255630493164,20.58342933654785,-19.829221725463867,55.87943649291992
0,1011432,26.52606964111328,-15.026519775390625,48.29499053955078,-43.6629524230957
0,1011433,3.0485622882843018,-18.75577735900879,31.470077514648438,-48.48841094970703
0,1011436,-4.113117694854736,26.026126861572266,8.466438293457031,43.80572509765625
0,1011437,-7.9768900871276855,27.05207633972168,-22.25891876220703,22.571125030517578
0,1011440,12.119197845458984,-65.62419891357422,-17.218189239501953,-28.477445602416992
0,1011441,8.598027229309082,-22.36040687561035,17.843433380126953,-41.073387145996094
0,1011444,-39.02517318725586,58.35109329223633,2.5584893226623535,-0.4483582675457001
0,1011445,-8.424617767333984,-28.89040756225586,-9.707887649536133,61.554988861083984
0,1011448,6.226749420166016,8.883255004882812,16.041278839111328,10.930169105529785
0,1011449,-18.47700309753418,43.20122528076172,5.943009853363037,-46.8631591796875
0,1011452,41.70047378540039,-54.51602554321289,-22.603137969970703,2.7188572883605957
0,1011453,31.22109031677246,-13.131178855895996,21.842578887939453,23.913890838623047
0,1011456,-41.85221481323242,51.11089324951172,23.478544235229492,-38.17540740966797
0,1011457,-15.901895523071289,-1.7583727836608887,-29.50745964050293,-23.075077056884766
0,1011460,31.439224243164062,-37.450557708740234,-26.310548782348633,60.97114181518555
0,1011461,21.088037490844727,7.328665256500244,-12.318065643310547,12.757268905639648
0,1011464,-18.38371467590332,17.53864860534668,19.07063865661621,-54.982391357421875
0,1011465,-31.81329917907715,-24.337373733520508,1.7918899059295654,-2.953070640563965
0,1011468,-7.925687789916992,3.088660478591919,-12.050824165344238,42.707244873046875
0,1011469,4.013608455657959,23.394756317138672,39.61286163330078,54.98072814941406
0,1011472,3.9605472087860107,-6.562108516693115,13.800240516662598,-21.154863357543945
0,1011473,25.178491592407227,-1.055799126625061,-23.08547592163086,-66.0928726196289
0,1011476,-9.89448356628418,24.573640823364258,-16.5406494140625,-40.24946212768555
0,1011477,-32.822898864746094,2.87947940826416,-14.365856170654297,-15.62012004852295
0,1011480,43.19815444946289,-41.396175384521484,12.091076850891113,123.31117248535156
0,1011481,24.85211944580078,-28.182151794433594,-0.5394582152366638,40.26118469238281
0,1011484,-25.567913055419922,30.525442123413086,-6.790597438812256,-110.31597137451172
0,1011485,6.2453227043151855,20.725200653076172,20.74078941345215,18.70810317993164
0,1011488,-19.793460845947266,-9.423205375671387,18.410032272338867,-20.632055282592773
0,1011489,-11.37541675567627,28.309720993041992,8.825068473815918,-91.98326110839844
0,1011492,28.628061294555664,-18.463298797607422,-17.25977325439453,58.7190055847168
0,1011493,-14.071329116821289,-56.30458068847656,-29.576919555664062,109.10779571533203
0,1011496,-17.065061569213867,52.95302200317383,13.19115161895752,143.0877685546875
0,1011497,-9.779003143310547,32.77838897705078,22.151948928833008,-8.742254257202148
0,1011500,11.13112735748291,-85.2007827758789,-22.054990768432617,-274.47808837890625
0,1011501,30.2474308013916,-15.218503952026367,-21.093286514282227,-70.91162109375
0,1011504,10.347585678100586,81.19273376464844,17.360441207885742,107.10594940185547
0,1011505,2.334508180618286,18.263015747070312,17.962705612182617,-5.188894748687744
0,1011508,-21.914705276489258,-52.03296661376953,-30.878110885620117,71.3976058959961
0,1011509,-5.46541166305542,9.659308433532715,0.13383179903030396,147.68553161621094
0,1011512,40.28713607788086,20.231218338012695,28.6593017578125,-65.13270568847656
0,1011513,-14.322134971618652,-67.50302124023438,-11.353240966796875,-153.3113250732422
0,1011516,-59.593048095703125,22.70694923400879,-5.6598801612854,16.72626304626465
0,1011517,22.43227767944336,79.9889907836914,17.71917152404785,31.699466705322266
0,1011520,21.78713035583496,-40.950218200683594,2.860635757446289,-20.802692413330078
0,1011521,-16.153553009033203,-19.981164932250977,-23.091712951660156,22.463586807250977
0,1011524,7.718986511230469,42.96393585205078,8.987814903259277,20.88705825805664
0,1011525,-11.13853931427002,-32.38806915283203,2.2376458644866943,-10.765484809875488
0,1011528,-1.4595308303833008,-27.720745086669922,3.333052635192871,-6.537917613983154
0,1011529,11.241801261901855,52.442108154296875,23.732925415039062,-6.868402481079102
0,1011532,1.8905220031738281,-20.869388580322266,-25.70738983154297,-12.190720558166504
0,1011533,27.306964874267578,-42.29599380493164,-17.041608810424805,-9.760915756225586
0,1011536,-17.116546630859375,49.977752685546875,-0.8185339570045471,13.139412879943848
0,1011537,-19.80486488342285,19.78041648864746,-3.139788866043091,7.378293991088867
0,1011540,22.339967727661133,-57.65916061401367,16.681392669677734,28.832212448120117
0,1011541,-15.831517219543457,-19.287412643432617,4.603479385375977,60.392723083496094
0,1011544,0.9351004958152771,64.06495666503906,5.104331016540527,-59.59476852416992
0,1011545,3.7564735412597656,20.42101287841797,-5.3915557861328125,-93.34388732910156
0,1011548,-8.707319259643555,-35.85685348510742,-6.672945976257324,62.77618408203125
0,1011549,-0.7718698382377625,-26.564485549926758,15.589564323425293,102.22476959228516
0,1011552,-7.743260383605957,-17.834026336669922,-23.333757400512695,-80.10604095458984
0,1011553,17.00828742980957,9.013708114624023,-11.61519718170166,-116.70343780517578
0,1011556,-11.186285018920898,73.73725128173828,55.842079162597656,79.88215637207031
0,1011557,0.5744311809539795,16.71194839477539,2.9159984588623047,90.0614242553711
0,1011560,23.343578338623047,-107.79698944091797,-35.56761169433594,-20.740367889404297
0,1011561,-38.70579528808594,-8.071402549743652,5.125114917755127,-6.837118625640869
0,1011564,24.982032775878906,77.54412841796875,-9.77567195892334,-45.96063995361328
0,1011566,22.046010971069336,0.719681441783905,8.680704116821289,-4.856797218322754
0,1011570,-68.04304504394531,-6.532373428344727,22.526485443115234,46.235374450683594
0,1011570,27.245098114013672,14.146209716796875,-23.867034912109375,-53.439598083496094
0,1011571,61.3773193359375,-47.984718322753906,-34.28016662597656,15.262567520141602
0,1011574,-20.488140106201172,5.772381782531738,0.24403057992458344,47.78757095336914
0,1011575,-36.1565055847168,66.30916595458984,23.65169906616211,-95.5808334350586
0,1011578,17.186948776245117,-48.24186325073242,5.285193920135498,-20.690765380859375
0,1011579,8.620336532592773,-55.73947525024414,-4.162748336791992,111.36914825439453
0,1011582,-11.773714065551758,35.32691955566406,-5.534867286682129,13.151529312133789
0,1011583,16.961694717407227,19.565832138061523,10.47316837310791,-44.694358825683594
0,1011586,-35.270240783691406,6.0113911628723145,21.144084930419922,-6.981735706329346
0,1011587,-22.78196907043457,-0.02402973733842373,-17.481992721557617,0.3870224058628082
0,1011590,41.25594711303711,-30.459491729736328,-21.26476287841797,7.440013408660889
0,1011591,25.4288272857666,-20.3734188079834,7.3706746101379395,44.766868591308594
0,1011594,-15.568760871887207,21.946033477783203,29.766340255737305,-62.045169830322266
0,1011595,-53.02335739135742,56.17184829711914,16.47817611694336,-71.9676284790039
0,1011598,19.639009475708008,-22.84522819519043,-18.69627571105957,104.3980941772461
0,1011599,51.18275833129883,-65.15935516357422,-28.26422882080078,22.39130973815918
0,1011602,-10.351619720458984,3.5010125637054443,-14.029958724975586,-84.56661987304688
0,1011603,18.515548706054688,49.41864013671875,18.057884216308594,24.83936882019043
0,1011606,-44.96088409423828,14.153286933898926,-7.1184515953063965,57.56973648071289
0,1011607,-29.177722930908203,-8.478574752807617,27.37171173095703,-26.060462951660156
0,1011610,75.94904327392578,29.56049919128418,41.82035827636719,-24.145490646362305
0,1011611,-16.92852020263672,-29.765735626220703,-54.6622314453125,15.987000465393066
0,1011614,-38.47880554199219,-13.38702392578125,-14.857562065124512,20.229907989501953
0,1011615,5.988171100616455,55.74152755737305,29.894630432128906,-20.292171478271484
0,1011618,4.006957054138184,-30.03244400024414,-16.47687530517578,-8.308035850524902
0,1011619,30.609989166259766,-48.84092330932617,1.2716059684753418,-2.444841146469116
0,1011622,-2.3467307090759277,-2.010625123977661,11.125755310058594,-11.4341459274292
0,1011623,-40.6045036315918,4.531376838684082,-34.93775177001953,11.239205360412598
0,1011626,-8.36322021484375,7.413121223449707,11.043232917785645,-9.564852714538574
0,1011627,21.73621940612793,7.194324493408203,29.528099060058594,18.74122428894043
0,1011630,7.144233703613281,16.486572265625,-22.284873962402344,17.898454666137695
0,1011631,-7.419590950012207,-10.445157051086426,-8.814953804016113,-12.31344985961914
0,1011634,-0.2461811602115631,7.8953728675842285,4.446575164794922,-52.49121856689453
0,1011635,-0.7436778545379639,59.07268142700195,30.804141998291016,-52.2496337890625
0,1011638,-14.001703262329102,-42.46009063720703,15.382195472717285,68.09884643554688
0,1011639,13.598424911499023,-53.884456634521484,-19.922176361083984,100.57939147949219
0,1011642,25.79376792907715,51.81066131591797,-9.088045120239258,-39.12144088745117
0,1011643,-7.569963455200195,4.9722981452941895,-13.121587753295898,-82.46784973144531
0,1011646,-4.656652927398682,-7.7878899574279785,-3.0165417194366455,39.96737289428711
0,1011647,-7.37537145614624,-3.516592264175415,13.089967727661133,61.5168571472168
0,1011650,-2.1592986583709717,-27.959712982177734,-7.3651509284973145,-33.255943298339844
0,1011651,25.990398406982422,3.5805275440216064,-11.622735977172852,-34.21321105957031
0,1011654,-4.073056697845459,16.9936466217041,-0.2216089963912964,29.18345069885254
0,1011655,-36.53843307495117,10.317728996276855,2.1647753715515137,8.596067428588867
0,1011658,20.164073944091797,-37.2236213684082,18.282386779785156,-28.828266143798828
0,1011659,18.6317081451416,-28.557424545288086,22.04104232788086,5.298759460449219
0,1011662,-30.832046508789062,39.58026885986328,-3.3081769943237305,19.10578727722168
0,1011663,-10.030472755432129,28.289005279541016,-27.611806869506836,-12.086630821228027
0,1011666,12.792861938476562,-10.072216987609863,-18.075387954711914,-10.462453842163086
0,1011667,21.472768783569336,-15.193197250366211,21.375974655151367,11.983953475952148
0,1011670,-2.5277042388916016,-9.617640495300293,8.713733673095703,16.547008514404297
0,1011671,-5.224998950958252,-7.045187473297119,-6.117332458496094,-46.37785720825195
0,1011674,-8.721088409423828,28.96461296081543,16.4288272857666,-10.937416076660156
0,1011675,-24.099557876586914,23.609529495239258,-30.938322067260742,50.80978775024414
0,1011678,35.52815246582031,-37.25600814819336,-9.815247535705566,-34.66279983520508
0,1011679,32.638912200927734,11.7180757522583,37.789180755615234,-10.376172065734863
0,1011682,-46.6246337890625,12.27239990234375,-15.764039039611816,52.13500213623047
0,1011683,-28.59172821044922,-25.030229568481445,-18.358686447143555,10.915724754333496
0,1011686,26.13585662841797,37.22138595581055,37.971778869628906,-37.94950866699219
0,1011687,12.26377010345459,7.089370250701904,18.955604553222656,-23.47657012939453
0,1011690,6.958357334136963,-28.30615997314453,-32.67556381225586,55.81565856933594
0,1011691,-23.299352645874023,-30.066438674926758,-26.9127140045166,0.237432599067688
0,1011694,-11.726415634155273,6.825686931610107,10.720471382141113,-56.72571563720703
0,1011695,15.45425796508789,47.917640686035156,31.261333465576172,12.47251033782959
0,1011698,-2.1362476348876953,-28.828189849853516,-1.0164730548858643,-25.942110061645508
0,1011699,34.80016326904297,-18.783058166503906,-12.329109191894531,-1.966146469116211
0,1011702,-5.609943389892578,24.355499267578125,-15.295771598815918,71.96697235107422
0,1011703,-30.361007690429688,-0.39125415682792664,-10.510823249816895,-33.324432373046875
0,1011706,2.5300140380859375,-18.05316162109375,13.944681167602539,-31.296735763549805
0,1011707,-7.182037830352783,-22.094762802124023,17.98159408569336,12.700629234313965
0,1011710,5.3170166015625,34.147789001464844,-6.1132893562316895,-16.152637481689453
0,1011711,48.98836135864258,33.63254928588867,1.4124163389205933,70.72718048095703
0,1011714,-9.941030502319336,-29.527545928955078,15.507575988769531,43.72244644165039
0,1011715,-73.91967010498047,-2.9537947177886963,-38.490882873535156,-55.86459732055664
0,1011718,41.86100387573242,-1.9336470365524292,-0.7280284762382507,-32.564971923828125
0,1011719,36.32176971435547,-34.539432525634766,37.11499786376953,15.933464050292969
0,1011722,-35.62804412841797,27.68738555908203,-27.373249053955078,14.058629989624023
0,1011723,8.1863374710083,53.58136749267578,-20.084501266479492,-8.305883407592773
0,1011726,-10.235587120056152,-19.92220687866211,18.77406883239746,-19.928112030029297
0,1011727,-25.714086532592773,-37.999794006347656,17.285219192504883,-7.385741233825684
0,1011730,13.183408737182617,15.01542854309082,-1.5828955173492432,9.388724327087402
0,1011732,39.17696762084961,-2.6728975772857666,-13.36968994140625,-42.785587310791016
0,1011734,1.755897879600525,-7.178272247314453,18.71981430053711,38.267234802246094
0,1011736,-48.027931213378906,0.7673739790916443,-1.3949229717254639,94.158447265625
0,1011738,10.922220230102539,-19.995073318481445,-41.280452728271484,-58.63119125366211
0,1011740,30.65578269958496,15.045411109924316,6.749581336975098,-58.23966598510742
0,1011742,-12.874638557434082,7.600246906280518,39.0402717590332,43.26220703125
0,1011744,-4.90333890914917,23.27257537841797,4.99296760559082,-4.959574222564697
0,1011745,6.220325946807861,15.391861915588379,-22.247682571411133,-7.630092620849609
0,1011748,2.0553410053253174,-44.57408142089844,-14.656339645385742,12.606581687927246
0,1011749,-3.781672716140747,8.38876724243164,27.97987937927246,-5.863936424255371
0,1011752,2.483515739440918,-24.48486328125,19.650693893432617,48.0564079284668
0,1011753,8.296640396118164,-66.91352081298828,-52.483951568603516,-16.054363250732422
0,1011756,-13.106584548950195,94.67572784423828,12.730203628540039,-72.4070816040039
0,1011757,-47.85348129272461,76.78874969482422,46.00698471069336,3.356920003890991
0,1011760,42.174312591552734,-68.60777282714844,-34.342254638671875,33.36703872680664
0,1011761,59.10154342651367,-19.379648208618164,-11.957993507385254,5.94808292388916
0,1011765,-41.41620635986328,5.016162395477295,18.71441078186035,-32.9810676574707
0,1011766,-20.650590896606445,15.557512283325195,0.41889747977256775,13.213868141174316
0,1011767,-5.333849906921387,26.972820281982422,-82.91336822509766,0.3256519138813019
0,1011770,1.5127028226852417,-34.54252243041992,-5.099596977233887,-25.516300201416016
0,1011771,30.513816833496094,-0.9482144713401794,142.202392578125,46.0806999206543
0,1011774,-25.787818908691406,36.90763854980469,-22.08161163330078,-17.077911376953125
0,1011775,-42.169586181640625,-6.8162994384765625,-60.82848358154297,8.567007064819336
0,1011778,51.31520080566406,-42.45473861694336,18.293018341064453,27.066059112548828
0,1011779,14.470438003540039,-39.4951057434082,-23.969257354736328,-37.47057342529297
0,1011782,-44.9809684753418,11.81954288482666,36.0873908996582,30.9164981842041
0,1011783,16.829038619995117,38.28394317626953,19.002777099609375,3.123070240020752
0,1011786,10.129045486450195,-6.9966535568237305,-42.06386184692383,-38.78369903564453
0,1011787,-19.048595428466797,-10.751477241516113,12.975150108337402,16.65251350402832
0,1011790,22.877456665039062,17.382944107055664,15.527804374694824,62.16273498535156
0,1011791,20.881711959838867,-15.768158912658691,-23.73164176940918,-2.987962245941162
0,1011794,-14.06853199005127,10.091732025146484,5.522916793823242,-84.07005310058594
0,1011795,-10.392573356628418,25.751100540161133,20.966873168945312,-22.08390235900879
0,1011798,-1.17573881149292,-44.44776916503906,-29.985422134399414,28.440298080444336
0,1011799,-13.22521686553955,-12.187834739685059,-6.257472515106201,19.993043899536133
0,1011802,-3.5316050052642822,42.605812072753906,35.62099075317383,6.779542446136475
0,1011803,29.53968620300293,23.104537963867188,-13.275322914123535,-0.38973963260650635
0,1011806,-2.744415760040283,-12.98562240600586,-12.788249969482422,-5.168667793273926
0,1011807,-21.6457462310791,-22.31085777282715,26.045625686645508,-10.0295991897583
0,1011810,3.5234334468841553,3.2662429809570312,0.7065244317054749,-11.349020957946777
0,1011811,29.56544303894043,-33.839088439941406,-46.888633728027344,21.924436569213867
0,1011814,-0.6460517048835754,25.448688507080078,-4.926285266876221,37.90592956542969
0,1011815,-46.009159088134766,87.34624481201172,44.879234313964844,-35.33359909057617
0,1011818,33.91096878051758,-81.9094467163086,-20.518930435180664,-32.57900619506836
0,1011819,29.444072723388672,-66.95928192138672,-35.08320236206055,44.5048713684082
0,1011822,-40.28378677368164,94.52660369873047,20.50723648071289,25.045495986938477
0,1011823,10.22485065460205,29.911211013793945,42.09861755371094,-54.09742736816406
0,1011826,15.222646713256836,-37.5853157043457,23.20672035217285,-36.074764251708984
0,1011827,-36.04228973388672,-38.30272674560547,-41.835636138916016,44.88090133666992
0,1011830,-40.17068099975586,-19.191871643066406,-34.82976150512695,31.20108413696289
0,1011831,43.94484329223633,44.661991119384766,34.11396789550781,-18.291120529174805
0,1011834,49.53506851196289,30.123008728027344,16.707571029663086,-23.252967834472656
0,1011835,-55.64863586425781,-6.242523670196533,-3.4791250228881836,-14.733821868896484
0,1011838,13.790142059326172,-30.488306045532227,0.09926013648509979,61.363624572753906
0,1011839,25.676774978637695,-38.15069580078125,-37.555503845214844,14.925363540649414
0,1011842,-44.85011291503906,24.76976776123047,27.28786277770996,-67.21546936035156
0,1011843,26.787700653076172,31.200525283813477,38.388309478759766,-6.133394241333008
0,1011846,-0.8825603127479553,-13.635028839111328,-67.48745727539062,6.450098514556885
0,1011847,-21.261215209960938,22.513872146606445,5.044981956481934,7.860632419586182
0,1011850,-95.17002868652344,17.61802101135254,50.674102783203125,5.945038318634033
0,1011851,-1.8706226348876953,-68.46234130859375,-34.60152816772461,-58.28676223754883
0,1011854,213.44815063476562,-1.3127180337905884,-13.690839767456055,17.000694274902344
0,1011855,-23.124608993530273,77.83776092529297,27.067523956298828,111.14988708496094
0,1011858,-102.30510711669922,-49.64659118652344,-4.943604946136475,-14.871175765991211
0,1011859,29.76663589477539,-35.65081787109375,-4.1990227699279785,-25.661151885986328
0,1011862,6.905719757080078,45.93128967285156,10.694825172424316,-4.126786231994629
0,1011863,-3.429150342941284,-12.222389221191406,-0.6626843810081482,-41.022186279296875
0,1011866,-8.93865966796875,0.03747117891907692,-14.147407531738281,23.53030776977539
0,1011867,19.950965881347656,15.391905784606934,-8.8540620803833,28.279224395751953
0,1011870,23.311779022216797,-27.87394142150879,15.71184253692627,-12.379342079162598
0,1011871,-16.63899040222168,-26.187719345092773,-4.720300674438477,-10.581570625305176
0,1011874,-19.78611946105957,66.90464782714844,3.9647605419158936,-10.90949821472168
0,1011875,-13.301397323608398,55.996681213378906,18.5894832611084,-21.586971282958984
0,1011878,-6.732356548309326,-82.47254180908203,-27.527111053466797,-2.3019914627075195
0,1011879,-10.911308288574219,-44.10224533081055,-23.16573143005371,37.43336486816406
0,1011882,9.690006256103516,46.76576614379883,20.59811019897461,1.534170389175415
0,1011883,27.04774284362793,-10.173398971557617,25.793643951416016,-47.3461799621582
0,1011886,5.947953224182129,1.180545449256897,5.839141845703125,43.86890411376953
0,1011887,-5.278323173522949,22.48919105529785,-27.912260055541992,46.23860549926758
0,1011890,-5.280721187591553,-31.428468704223633,-33.185115814208984,-61.24166488647461
0,1011891,11.496206283569336,-29.738916397094727,14.585986137390137,-47.67160415649414
0,1011894,-12.41549301147461,32.55025863647461,19.299036026000977,21.833003997802734
0,1011895,-35.173553466796875,49.61430358886719,-27.734821319580078,87.49597930908203
0,1011898,-11.043303489685059,-58.10113525390625,-7.4374189376831055,11.733083724975586
0,1011899,32.20164489746094,-6.007391929626465,85.1143798828125,-80.1995849609375
0,1011902,43.48057556152344,97.09232330322266,34.27931594848633,1.3633911609649658
0,1011903,-19.403038024902344,-32.747928619384766,-75.89952087402344,11.859759330749512
0,1011906,-49.32455062866211,-56.65699005126953,-23.4204044342041,-19.832571029663086
0,1011907,49.827938079833984,34.72587585449219,12.270041465759277,3.3658559322357178
0,1011910,45.77363204956055,-16.966188430786133,-1.1978368759155273,47.90373992919922
0,1011911,-55.2589225769043,-24.14995574951172,37.01575469970703,102.34461975097656
0,1011914,-11.664441108703613,50.36076354980469,2.156536817550659,-90.9363021850586
0,1011915,-6.113183975219727,12.648550033569336,-40.28307342529297,-154.3978271484375
0,1011918,-15.934065818786621,-40.06492614746094,-0.4950813055038452,61.49268341064453
0,1011919,26.94559097290039,-11.978814125061035,24.259719848632812,41.36894226074219
0,1011922,11.03204345703125,11.736254692077637,-8.046664237976074,-23.652267456054688
0,1011923,-7.1023640632629395,-15.791389465332031,-31.634716033935547,8.50891399383545
0,1011926,-29.104764938354492,-2.7198431491851807,0.3165057301521301,63.51239013671875
0,1011928,-7.254015922546387,63.233760833740234,22.767271041870117,-7.607150077819824
0,1011930,37.48938751220703,-19.58301544189453,24.74920082092285,-96.94905090332031
0,1011932,12.282513618469238,-61.82864761352539,-6.244588375091553,43.31379699707031
0,1011934,-32.959590911865234,45.658721923828125,7.564512252807617,78.95111083984375
0,1011936,-13.94296932220459,22.469274520874023,-7.263084888458252,-65.00298309326172
0,1011938,40.270408630371094,-37.60213088989258,-33.732635498046875,-38.8301887512207
0,1011940,3.79996657371521,-51.32422637939453,-1.7773821353912354,55.10120391845703
0,1011941,-20.80257225036621,26.265588760375977,4.633627414703369,13.693963050842285
0,1011944,28.266950607299805,69.03982543945312,44.05808639526367,-3.8593926429748535
0,1011945,2.6294307708740234,-18.944242477416992,-21.113508224487305,-49.46166229248047
0,1011949,-40.571144104003906,-18.444467544555664,-63.075992584228516,-44.47551345825195
0,1011950,31.720916748046875,-10.449055671691895,49.7662239074707,98.23191833496094
0,1011951,43.09508514404297,-67.57032775878906,0.1310538947582245,21.26557731628418
0,1011954,-64.90135192871094,20.983856201171875,-42.07954406738281,-46.72230911254883
0,1011955,-36.02775192260742,155.74896240234375,76.55448913574219,19.572826385498047
0,1011958,36.64301681518555,-0.5689161419868469,0.8104858994483948,-21.430992126464844
0,1011959,10.24494743347168,-101.56147003173828,-59.31385040283203,12.42391586303711
0,1011962,-13.59011173248291,10.742392539978027,38.56525421142578,37.68010330200195
0,1011963,-13.519190788269043,21.36595344543457,10.237486839294434,-37.72509765625
0,1011966,29.71063995361328,4.834066390991211,-29.0191650390625,-38.54051208496094
0,1011967,14.458426475524902,4.751992702484131,30.859725952148438,21.79543685913086
0,1011970,-45.922935485839844,-25.234600067138672,38.80949020385742,46.76475143432617
0,1011971,17.37372589111328,-33.2696418762207,-33.4485969543457,-20.384984970092773
0,1011974,46.658103942871094,35.9735221862793,-39.361690521240234,-56.7234001159668
0,1011975,-37.371585845947266,23.461017608642578,-7.051797866821289,9.509047508239746
0,1011978,-35.8098030090332,-79.75696563720703,8.304247856140137,21.25789451599121
0,1011979,34.827491760253906,-22.189388275146484,23.11256980895996,15.357787132263184
0,1011982,20.021759033203125,44.27207565307617,-0.12202641367912292,9.682717323303223
0,1011983,-14.27373218536377,15.904519081115723,-0.8535736799240112,-4.227777004241943
0,1011986,-0.21511967480182648,21.556482315063477,-0.13193346560001373,6.042491436004639
0,1011987,-34.46550750732422,4.137261867523193,-25.86859703063965,-16.909889221191406
0,1011990,-29.800355911254883,-33.68350601196289,-11.482037544250488,-13.188117980957031
0,1011991,91.34059143066406,1.8372560739517212,28.9843692779541,19.425329208374023
0,1011994,-52.26874923706055,-2.2450523376464844,87.56085968017578,22.937753677368164
0,1011995,-85.61648559570312,23.371822357177734,-19.75913429260254,-17.66652488708496
0,1011998,150.24769592285156,42.1320686340332,-153.59710693359375,-57.5689697265625
0,1011999,4.992923259735107,-71.53751373291016,22.330772399902344,24.167022705078125
0,1012002,-98.48517608642578,-58.76411056518555,48.68775177001953,17.35179901123047
0,1012003,24.088985443115234,58.24826431274414,-32.125335693359375,-29.813508987426758
0,1012006,37.859169006347656,61.759883880615234,61.70021438598633,41.745731353759766
0,1012007,-45.275753021240234,-38.49309539794922,-7.454442501068115,-41.7473258972168
0,1012010,-0.6078197956085205,-9.624750137329102,-48.75078201293945,-26.22881507873535
0,1012011,107.20211029052734,25.797103881835938,32.370140075683594,105.7561264038086
0,1012014,-12.653447151184082,9.195666313171387,30.166194915771484,12.075996398925781
0,1012015,-89.81648254394531,1.7900561094284058,4.283965587615967,-42.005062103271484
0,1012018,-4.109530448913574,-70.19071960449219,-30.044103622436523,-23.697162628173828
0,1012019,63.003841400146484,18.4591007232666,-10.401439666748047,-0.8300703167915344
0,1012022,4.778744697570801,60.11290740966797,10.622600555419922,29.937213897705078
0,1012023,-41.12181854248047,-2.9648423194885254,6.865092754364014,7.549220561981201
0,1012026,2.236600399017334,-1.550758957862854,35.67097091674805,-5.505993843078613
0,1012027,-3.902179002761841,-22.3219051361084,-23.337841033935547,-26.349029541015625
0,1012030,5.201050281524658,-43.718685150146484,-54.30125427246094,-18.46489715576172
0,1012031,25.487905502319336,-41.068450927734375,4.138090133666992,14.68314266204834
0,1012034,-11.017411231994629,81.85071563720703,50.7205810546875,10.668987274169922
0,1012035,-49.65900421142578,84.41531372070312,22.71521759033203,-63.912742614746094
0,1012038,5.415139198303223,-62.48805236816406,-29.59321403503418,1.9893983602523804
0,1012039,50.942440032958984,-47.542171478271484,-6.7195634841918945,115.0139389038086
0,1012042,-15.34930419921875,13.988080024719238,-11.665311813354492,-15.956656455993652
0,1012043,-31.02851104736328,9.22936725616455,8.2987699508667,-47.99029541015625
0,1012046,26.916263580322266,-0.683696985244751,27.075559616088867,34.131629943847656
0,1012047,18.119380950927734,-9.278061866760254,-43.689456939697266,-33.159828186035156
0,1012050,-32.18544006347656,-23.757671356201172,-20.89257049560547,-35.231632232666016
0,1012051,-1.5675791501998901,-21.334043502807617,19.540693283081055,50.17641067504883
0,1012054,42.8529052734375,46.04728698730469,22.546409606933594,47.15003204345703
0,1012055,-8.548921585083008,67.46038818359375,19.8411808013916,-12.868680953979492
0,1012058,-34.73886489868164,-52.842994689941406,-43.001731872558594,-86.07416534423828
0,1012059,9.271503448486328,-41.81971740722656,0.8702438473701477,-2.2737696170806885
0,1012062,13.807209968566895,34.185340881347656,37.17352294921875,76.59455108642578
0,1012063,-14.233512878417969,-12.295145034790039,-19.493282318115234,-35.21518325805664
0,1012066,-3.7918448448181152,1.136645793914795,-11.130716323852539,-12.09580135345459
0,1012067,13.769708633422852,23.440998077392578,24.72417640686035,45.59590148925781
0,1012070,-6.777095794677734,-16.77053451538086,4.715787410736084,-22.631576538085938
0,1012071,16.573192596435547,-22.89873504638672,-25.072011947631836,1.9147876501083374
0,1012074,-5.176173686981201,7.574841499328613,5.5269269943237305,22.226167678833008
0,1012075,-56.481483459472656,32.93349075317383,14.673812866210938,-54.33650207519531
0,1012078,34.423980712890625,-5.693152904510498,-26.799001693725586,-53.21811294555664
0,1012079,56.51166534423828,-24.10943603515625,2.570539712905884,39.79801940917969
0,1012082,-32.69886016845703,35.43709945678711,26.736936569213867,80.08769989013672
0,1012083,-34.57305908203125,-3.0050652027130127,-12.4396390914917,-29.38528823852539
0,1012086,-6.935204029083252,-30.461122512817383,29.95685577392578,-30.434114456176758
0,1012087,7.708552360534668,17.80089569091797,15.687799453735352,26.163631439208984
0,1012090,34.742183685302734,-14.919367790222168,-70.74793243408203,-5.522710800170898
0,1012091,18.712688446044922,-0.5273122191429138,-22.4155216217041,-37.53925704956055
0,1012094,-27.435688018798828,47.13077163696289,56.5994758605957,-8.204035758972168
0,1012095,-38.1294059753418,3.8382296562194824,13.025945663452148,53.03533935546875
0,1012098,12.466198921203613,-52.071998596191406,-36.817848205566406,18.207515716552734
0,1012099,52.17182159423828,-37.27387619018555,-24.75020980834961,15.064289093017578
0,1012102,10.125768661499023,35.15874481201172,23.279651641845703,-11.13325309753418
0,1012103,-43.76591110229492,31.191865921020508,27.42255210876465,-12.048013687133789
0,1012106,-14.5574951171875,-31.22504997253418,-47.96867752075195,-12.745795249938965
0,1012107,23.734603881835938,11.119473457336426,16.138290405273438,-43.340736389160156
0,1012110,-22.43088150024414,19.698814392089844,45.17275619506836,-19.485225677490234
0,1012111,8.751007080078125,-44.31993103027344,-53.39451599121094,15.464807510375977
0,1012114,22.309188842773438,26.302852630615234,-0.5153964757919312,70.31966400146484
0,1012115,-27.288387298583984,49.4058952331543,15.301970481872559,28.22602653503418
0,1012118,29.304119110107422,-68.50096130371094,0.8697463274002075,-35.93710708618164
0,1012119,24.155841827392578,-62.223941802978516,49.54848861694336,-23.352312088012695
0,1012122,-24.936893463134766,71.53813934326172,-12.023130416870117,-36.12438201904297
0,1012123,4.444801330566406,72.0067138671875,-41.6042594909668,-13.794020652770996
0,1012126,-24.385955810546875,-29.000343322753906,6.374889850616455,66.12540435791016
0,1012128,-54.829349517822266,-18.421030044555664,28.927377700805664,33.46500778198242
0,1012130,41.63707733154297,-26.465381622314453,18.65043067932129,-36.697818756103516
0,1012132,56.8118782043457,-44.89064025878906,-33.92201232910156,-13.997509956359863
0,1012134,-30.696401596069336,75.50267028808594,-20.97665023803711,-35.423770904541016
0,1012136,-20.422012329101562,68.49736022949219,33.271759033203125,-22.68336296081543
0,1012138,19.15241813659668,-103.83439636230469,-3.918491840362549,83.01238250732422
0,1012140,3.9943442344665527,-45.952510833740234,-11.881437301635742,27.220468521118164
0,1012141,-11.461492538452148,83.97582244873047,5.7588725090026855,-44.7192497253418
1,1012145,-19.41805648803711,11.044055938720703,-5.459820747375488,-38.238807678222656
1,1012145,5.316171169281006,-28.449954986572266,-11.072887420654297,-38.58476257324219
1,1012148,25.05499839782715,9.405043601989746,-24.436147689819336,82.686767578125
1,1012149,1.1602064371109009,-20.26088523864746,9.909998893737793,85.39305877685547
1,1012152,3.848057746887207,-44.45091247558594,36.26985168457031,-45.16498565673828
1,1012153,-1.4588602781295776,64.71027374267578,13.40618896484375,-32.40439224243164
1,1012156,-45.48884582519531,38.29627227783203,-39.18086624145508,-71.90969848632812
1,1012157,-14.81835651397705,-81.5744400024414,-33.056758880615234,-32.30107116699219
1,1012160,63.26237106323242,-5.819065093994141,28.02756690979004,90.14169311523438
1,1012161,7.458399295806885,30.473052978515625,25.026092529296875,7.587377071380615
1,1012164,-36.210636138916016,-4.238882541656494,4.983213901519775,16.523134231567383
1,1012165,17.299402236938477,29.88306999206543,-11.94285774230957,-16.598125457763672
1,1012168,-1.0782493352890015,13.238227844238281,11.533332824707031,-82.93622589111328
1,1012169,-16.18729019165039,-43.67548370361328,12.904637336730957,38.439388275146484
1,1012172,18.944272994995117,-12.247239112854004,-37.784019470214844,42.480377197265625
1,1012173,1.076903223991394,40.491302490234375,-2.0046546459198,6.890283107757568
1,1012176,-35.87512969970703,9.475674629211426,17.103839874267578,3.839632987976074
1,1012177,-2.552935838699341,-37.3081169128418,0.4791511297225952,-28.72022819519043
1,1012180,39.62786865234375,-40.5909423828125,5.2399725914001465,0.4477885067462921
1,1012181,22.02554702758789,-1.6697442531585693,13.756819725036621,11.861560821533203
1,1012184,-19.279142379760742,65.96805572509766,-2.4593021869659424,-29.57601547241211
1,1012185,-17.14389419555664,32.59507369995117,-29.09761619567871,10.200907707214355
1,1012188,-12.757650375366211,-30.686315536499023,-1.9109373092651367,59.85401153564453
1,1012189,7.68215799331665,-22.74909782409668,-2.2661969661712646,-13.11528491973877
1,1012192,43.62821960449219,-18.647401809692383,15.814726829528809,-62.04997253417969
1,1012193,-13.239452362060547,13.579632759094238,33.194820404052734,4.6403961181640625
1,1012196,-39.29311752319336,34.9348258972168,-22.309370040893555,27.200305938720703
1,1012197,3.937896251678467,-3.774207592010498,-41.6132926940918,3.4433624744415283
1,1012200,37.47909164428711,-29.160358428955078,27.738384246826172,9.711302757263184
1,1012201,-11.700750350952148,9.293761253356934,24.462181091308594,-21.28033447265625
1,1012204,-21.557632446289062,31.741329193115234,-27.715124130249023,-13.969825744628906
1,1012205,24.350231170654297,-37.226966857910156,-4.60108757019043,24.9376220703125
1,1012208,-24.904813766479492,-23.651079177856445,-10.434557914733887,-20.916528701782227
1,1012209,-15.2273530960083,23.697725296020508,-15.715690612792969,-15.905385971069336
1,1012212,20.175945281982422,-21.725751876831055,11.798144340515137,44.530338287353516
1,1012213,13.629878997802734,30.5911808013916,26.653331756591797,-8.940467834472656
1,1012216,0.4382820427417755,38.64889144897461,10.26111125946045,-13.148579597473145
1,1012217,-27.781326293945312,-46.799957275390625,-22.92934799194336,38.263545989990234
1,1012220,10.755935668945312,-18.83890151977539,-7.192981243133545,-35.1693115234375
1,1012221,39.7917366027832,25.856870651245117,38.399803161621094,-32.67170715332031
1,1012476,-28.900907516479492,0.6418564915657043,8.79156494140625,65.93978118896484
1,1012477,-32.37786102294922,6.585667133331299,-26.408418655395508,12.564876556396484
1,1012480,15.693538665771484,29.66761016845703,2.2555034160614014,-56.572242736816406
1,1012481,12.208776473999023,-20.67036247253418,11.062431335449219,-15.57470989227295
1,1012484,21.287485122680664,-30.787282943725586,-2.12557315826416,30.9605712890625
1,1012485,-12.05102825164795,1.4594855308532715,-3.9996821880340576,20.845518112182617
1,1013697,-22.659786224365234,-17.767086029052734,-25.00627899169922,-13.311389923095703
1,1013698,30.1953067779541,-25.450153350830078,-10.60465145111084,-33.65250015258789
1,1013699,15.707563400268555,16.52950668334961,32.970550537109375,-19.96025848388672
1,1013702,-27.6345272064209,39.5821418762207,7.0945143699646,57.770484924316406
1,1013703,-17.3178768157959,31.127283096313477,-16.050518035888672,35.085391998291016
1,1013706,3.0739893913269043,8.392844200134277,-13.03623104095459,-47.15388870239258
1,1013707,-13.885492324829102,-31.8685302734375,2.0483763217926025,-17.611934661865234
1,1013710,31.3161678314209,-23.57440185546875,17.45107078552246,30.32150650024414
1,1013711,46.814083099365234,6.473453998565674,-9.278496742248535,-12.921804428100586
1,1013714,-46.44697189331055,19.252788543701172,-13.514700889587402,-26.2742919921875
1,1013715,-45.1925163269043,17.505252838134766,7.947050094604492,28.45846176147461
1,1013718,30.77857208251953,-34.54920959472656,1.805961012840271,18.17860984802246
1,1013719,11.507583618164062,-15.16228199005127,-1.6093066930770874,-4.6707940101623535
1,1013722,-21.06890869140625,30.045902252197266,6.761346340179443,-17.52711296081543
1,1013723,9.73257064819336,10.433735847473145,15.271200180053711,-1.6577125787734985
1,1013726,16.02324104309082,-0.0583769865334034,-3.8521392345428467,-0.6954765319824219
1,1013727,20.51104164123535,0.6146185398101807,-10.244209289550781,-0.1590091735124588
1,1013730,1.2796134948730469,-23.348234176635742,17.212562561035156,26.315889358520508
1,1013731,-31.427059173583984,-30.16965675354004,1.3377100229263306,-1.739396095275879
1,1013734,-12.693877220153809,19.328012466430664,-3.2863900661468506,1.9968961477279663
1,1013735,6.6884379386901855,30.859189987182617,3.3726754188537598,-43.498939514160156
1,1013738,20.09714126586914,-28.35584259033203,-34.09442138671875,-18.94754409790039
1,1013739,6.515940189361572,-38.94195556640625,-16.056955337524414,43.120018005371094
1,1013742,-25.41313362121582,44.674739837646484,43.59381103515625,-32.252506256103516
1,1013743,-7.643930435180664,15.25763988494873,14.01652717590332,18.542781829833984
1,1013746,18.116893768310547,-19.92215347290039,-31.58452606201172,43.386451721191406
1,1013747,-5.491947174072266,40.03571319580078,-15.554027557373047,4.903552055358887
1,1013750,2.1534323692321777,7.680294990539551,26.273269653320312,-32.99074172973633
1,1013751,23.391462326049805,-53.7664680480957,21.771589279174805,-49.70314407348633
1,1013754,-37.843875885009766,-2.8961246013641357,-27.528738021850586,51.724884033203125
1,1013755,-22.146474838256836,56.47544479370117,-16.502464294433594,17.763080596923828
1,1013758,60.25956344604492,-23.65251350402832,-5.547858715057373,-5.194667816162109
1,1013759,7.46097993850708,-49.75357437133789,18.21363639831543,1.6237903833389282
1,1013762,-35.44160079956055,42.4036750793457,39.564064025878906,-38.59611511230469
1,1013763,-1.7840688228607178,22.63977813720703,-7.591814041137695,-8.306280136108398
1,1013766,-15.628449440002441,-57.06125259399414,-30.4959716796875,13.860979080200195
1,1013767,-12.249395370483398,-11.719494819641113,-9.891691207885742,19.07874298095703
1,1013770,23.637147903442383,27.866310119628906,9.710259437561035,6.337051868438721
1,1013771,22.082521438598633,-11.367712020874023,5.816158771514893,-16.189241409301758
1,1013774,14.115880012512207,28.05196762084961,-7.846785545349121,-24.558773040771484
1,1013775,-7.903563022613525,59.93595504760742,9.173468589782715,28.83411979675293
1,1013778,-14.872819900512695,-47.972782135009766,8.013675689697266,49.012332916259766
1,1013779,3.243303060531616,-35.42742919921875,-28.417865753173828,-26.88105583190918
1,1013782,-13.987107276916504,36.483924865722656,8.876063346862793,-26.29805564880371
1,1013783,10.943896293640137,1.1657114028930664,13.691008567810059,-3.4200093746185303
1,1013786,20.318653106689453,12.860448837280273,-4.912807941436768,-31.48518180847168
1,1013787,-29.152517318725586,-29.201778411865234,3.0913279056549072,19.308923721313477
1,1013790,-5.93182373046875,-31.404062271118164,-10.539477348327637,40.86335754394531
1,1013791,4.803053855895996,-3.5191609859466553,12.527830123901367,-2.9585418701171875
1,1013794,-13.439924240112305,6.219380855560303,-0.5825374722480774,-34.049381256103516
1,1013795,4.338727951049805,49.82081985473633,5.548806667327881,-19.09527587890625
1,1013798,21.897249221801758,-40.398067474365234,2.1174330711364746,39.9793701171875
1,1013800,35.0384635925293,-10.71227741241455,-14.72016429901123,15.863265991210938
1,1013802,-34.218692779541016,44.70838928222656,6.3465776443481445,-21.66214942932129
1,1013804,-52.01559829711914,-15.286014556884766,2.9298911094665527,8.22315502166748
1,1013806,36.12614440917969,30.158056259155273,10.816950798034668,7.466052532196045
1,1013807,17.867176055908203,-12.861353874206543,-13.537081718444824,-20.95050811767578
1,1013810,-15.956598281860352,-51.478633880615234,-9.605666160583496,-24.202299118041992
1,1013811,32.28783416748047,30.493179321289062,8.868806838989258,7.60689640045166
1,1013814,-4.5068039894104,45.43630599975586,-22.02876091003418,78.72107696533203
1,1013815,-57.45920181274414,-18.37350082397461,7.987391948699951,18.76254653930664
1,1013818,22.606380462646484,-63.06789779663086,15.515711784362793,-134.90328979492188
1,1013819,29.132339477539062,-6.781331539154053,-17.098451614379883,-42.08108901977539
1,1013822,-19.01502799987793,55.310951232910156,6.072491645812988,129.48516845703125
1,1013823,6.880652904510498,0.21728312969207764,16.343053817749023,44.67747497558594
1,1013826,4.246452808380127,-41.796783447265625,-17.10243034362793,-60.0228385925293
1,1013827,-15.158859252929688,25.160663604736328,-17.849578857421875,-44.15819549560547
1,1013830,-7.640919208526611,6.667990207672119,27.142358779907227,-2.1710734367370605
1,1013831,22.18366241455078,-37.75070571899414,2.3779947757720947,37.54751205444336
1,1013834,-0.08341650664806366,70.88484954833984,-6.0240397453308105,9.53675365447998
1,1013835,-32.13689041137695,42.42051696777344,28.931425094604492,-2.843798875808716
1,1013838,28.083036422729492,-88.292724609375,-8.157994270324707,6.416527271270752
1,1013839,25.035810470581055,-9.191567420959473,-20.146242141723633,-1.3600431680679321
1,1013842,-15.296489715576172,31.305749893188477,-1.9310044050216675,-13.376141548156738
1,1013843,-13.485528945922852,-23.15512466430664,-8.010236740112305,-20.061460494995117
1,1013846,-29.944557189941406,13.3428955078125,20.655380249023438,20.56639862060547
1,1013847,6.167421817779541,11.36465072631836,3.75057053565979,24.886035919189453
1,1013850,33.10187530517578,-40.76938247680664,-34.76365280151367,-64.24248504638672
1,1013851,20.003698348999023,-11.846261024475098,19.899124145507812,-15.424239158630371
1,1013854,-38.61787033081055,69.14649963378906,25.005529403686523,85.70957946777344
1,1013855,-25.710783004760742,23.835620880126953,-22.46751594543457,22.217504501342773
1,1013858,104.62394714355469,-95.1613540649414,-19.001102447509766,-26.256755828857422
1,1013859,223.47793579101562,-9.862783432006836,-0.7233871817588806,-20.915557861328125
1,1013862,-233.49221801757812,93.17034912109375,-0.9249306917190552,-48.82956314086914
1,1013863,-414.50054931640625,-0.7313669919967651,3.368443250656128,-26.570438385009766
1,1013866,228.1994171142578,-35.10968017578125,47.63173294067383,92.13204193115234
1,1013867,170.72488403320312,-5.988852500915527,28.75877571105957,40.92441940307617
1,1013870,-79.02503967285156,-16.84795379638672,-34.20783615112305,-58.459625244140625
1,1013871,21.96637725830078,12.592490196228027,-23.773107528686523,-37.873565673828125
1,1013874,41.790382385253906,61.508216857910156,-6.132810592651367,8.53553581237793
1,1013875,-11.609026908874512,15.14255428314209,-23.857820510864258,49.363075256347656
1,1013878,-16.15989875793457,-116.86302185058594,-9.537882804870605,-20.72476577758789
1,1013879,200.37501525878906,-18.745779037475586,40.542823791503906,-40.16423416137695
1,1013882,-33.57762908935547,93.33097076416016,8.863948822021484,24.06377410888672
1,1013883,-236.59056091308594,-15.250544548034668,-22.96831703186035,-3.108682632446289
1,1013886,-8.963221549987793,-18.08967399597168,23.861984252929688,3.2211713790893555
1,1013887,-56.295963287353516,3.719696521759033,52.60809326171875,25.895750045776367
1,1013890,9.775148391723633,-22.14072036743164,60.13552474975586,2.7182765007019043
1,1013891,98.56741333007812,-9.045770645141602,-122.22438049316406,-7.799876689910889
1,1013894,-5.950337886810303,33.095218658447266,-243.72438049316406,-53.399078369140625
1,1013895,-47.58362579345703,11.357120513916016,110.23503875732422,1.6381683349609375
1,1013898,87.46888732910156,-46.35804748535156,238.216064453125,30.37115478515625
1,1013899,71.75927734375,7.998231410980225,-40.88864517211914,-3.1996922492980957
1,1013902,147.3115997314453,58.41218185424805,-79.04973602294922,47.63124465942383
1,1013903,226.70765686035156,14.243464469909668,-11.55876636505127,5.889997482299805
1,1013906,-504.37139892578125,-42.66811752319336,31.139137268066406,-56.99679946899414
1,1013907,-470.11248779296875,-5.527820110321045,56.49836349487305,-9.510910034179688
1,1013910,401.9148254394531,16.42193603515625,-28.384817123413086,43.33177947998047
1,1013911,311.3514099121094,-20.24091148376465,-79.90264129638672,-5.031750202178955
1,1013914,76.54145050048828,20.0150203704834,-42.3234748840332,-8.292107582092285
1,1013915,-342.8290710449219,-3.315251588821411,33.10315704345703,2.353102922439575
1,1013918,-614.6009521484375,-66.69266510009766,115.87234497070312,-63.74701690673828
1,1013919,277.71527099609375,2.693626880645752,51.301998138427734,31.110702514648438
1,1013922,1106.408447265625,64.8699951171875,-128.1307830810547,57.24113845825195
1,1013923,-39.78864288330078,19.81758689880371,-54.86075973510742,-9.209311485290527
1,1013928,-1205.887939453125,-25.20009422302246,123.34455871582031,15.89108657836914
1,1013928,259.275634765625,-11.762556076049805,65.14054107666016,-18.657386779785156
1,1013929,794.52294921875,-19.394472122192383,-82.48653411865234,-9.811290740966797
1,1013932,-300.8672790527344,23.486434936523438,-227.43283081054688,7.405110836029053
1,1013933,-493.27984619140625,41.05952835083008,-25.62257194519043,-80.71772766113281
1,1013936,795.4136962890625,-44.96677780151367,236.83273315429688,12.729837417602539
1,1013937,517.79931640625,-28.44961929321289,-5.873365879058838,137.69505310058594
1,1013940,-1569.7003173828125,45.24410629272461,-22.07649040222168,-33.42276382446289
1,1013941,-644.49072265625,7.975656032562256,122.48249053955078,-112.4138412475586
1,1013944,1078.5660400390625,-24.73586082458496,16.82164192199707,-5.964989185333252
1,1013945,500.93023681640625,25.087692260742188,-61.055362701416016,34.06916809082031
1,1013948,-319.83306884765625,21.48401641845703,-77.53997802734375,51.03822326660156
1,1013949,-205.82916259765625,-55.32563018798828,32.13096237182617,36.19995880126953
1,1013952,-24.664274215698242,-33.58531951904297,-46.726234436035156,-69.85202026367188
1,1013953,-46.0129508972168,57.42068099975586,-201.18580627441406,-28.5671329498291
1,1013956,171.04872131347656,15.051591873168945,133.72457885742188,116.21366119384766
1,1013957,146.1431121826172,-32.14750671386719,239.1839141845703,5.491700649261475
1,1013960,-41.25940704345703,-4.311279773712158,-107.75963592529297,-107.92120361328125
1,1013961,27.448963165283203,16.536865234375,-105.74480438232422,-24.08968734741211
1,1013964,5.484554767608643,10.12276554107666,3.538677453994751,48.965354919433594
1,1013965,-13.55733871459961,-18.75908851623535,-21.842174530029297,4.915737152099609
1,1013968,7.462893009185791,-21.86737060546875,31.4456844329834,-45.8759651184082
1,1013969,-34.73753356933594,-7.973156929016113,90.99166870117188,26.56097984313965
1,1013972,-15.331290245056152,40.419002532958984,60.157447814941406,64.80955505371094
1,1013973,-62.83377456665039,68.44976806640625,29.083707809448242,8.873427391052246
1,1013976,94.89765930175781,-37.148319244384766,-4.627429962158203,-59.50236511230469
1,1013977,-40.428043365478516,-70.483642578125,-64.53065490722656,-12.888538360595703
1,1013980,-155.51258850097656,7.079448223114014,-118.77555084228516,26.50897216796875
1,1013981,131.95712280273438,8.33449935913086,-81.9874496459961,-27.274568557739258
1,1013984,-175.9563446044922,7.301085472106934,83.38579559326172,5.629519939422607
1,1013985,-194.17527770996094,11.022942543029785,104.30738830566406,5.952049732208252
1,1013988,176.54354858398438,-13.722517967224121,-10.968921661376953,36.53606033325195
1,1013989,276.81787109375,-27.568937301635742,-118.14635467529297,48.81790542602539
1,1013992,103.89813995361328,44.071720123291016,-13.874008178710938,-89.43345642089844
1,1013993,-160.66268920898438,55.58148193359375,128.12774658203125,-111.21092224121094
1,1013996,-118.90736389160156,-66.90869140625,8.695290565490723,90.5577392578125
1,1013997,483.7637023925781,-35.46957778930664,-50.45151901245117,174.4019775390625
1,1014000,-25.679195404052734,52.18929672241211,-17.21533203125,-114.52810668945312
1,1014001,-686.8113403320312,24.07609748840332,-17.85870933532715,-197.72666931152344
1,1014004,-9.47812271118164,-25.057971954345703,166.2151641845703,119.61849212646484
1,1014005,96.94988250732422,-15.697160720825195,122.98484802246094,150.8665771484375
1,1014008,504.3066101074219,48.74213790893555,-361.6174011230469,-57.445899963378906
1,1014009,57.40753173828125,-17.456750869750977,-171.32479858398438,-55.05316162109375
1,1014012,-629.6809692382812,-61.663047790527344,502.4165954589844,-7.17819881439209
1,1014013,-172.10569763183594,34.56398391723633,302.22540283203125,11.139130592346191
1,1014016,98.96890258789062,-46.988407135009766,-662.7933349609375,43.76106262207031
1,1014017,322.2487487792969,-50.9324836730957,-682.0657958984375,-0.947421669960022
1,1014020,188.4296417236328,128.69715881347656,637.046875,-23.314804077148438
1,1014022,103.51454162597656,59.992637634277344,658.5203857421875,-23.979753494262695
1,1014024,137.1334991455078,-51.174137115478516,-411.5687255859375,-29.4371280670166
1,1014026,-70.69203186035156,-29.43311309814453,-233.94888305664062,-0.012828677892684937
1,1014028,-231.8057861328125,-32.975425720214844,213.50828552246094,43.9676399230957
1,1014030,-39.18487548828125,-44.02908706665039,106.83572387695312,54.00484085083008
1,1014032,-31.866289138793945,71.13231658935547,5.5074782371521,-11.792684555053711
1,1014034,-168.56060791015625,86.20382690429688,-35.083736419677734,-63.44779968261719
1,1014035,487.5989685058594,-62.90850830078125,-105.72637939453125,-74.19537353515625
1,1014038,177.1304168701172,-20.11033058166504,-45.290931701660156,24.79920768737793
1,1014039,-993.0451049804688,25.494773864746094,79.71968841552734,79.06571960449219
1,1014042,-325.7005920410156,-4.93544340133667,42.98789596557617,10.898234367370605
1,1014043,327.8570251464844,-18.125621795654297,-63.1910514831543,27.283613204956055
1,1014046,143.74757385253906,-33.9752197265625,32.18439483642578,-39.612545013427734
1,1014047,546.15673828125,-24.50339126586914,55.09284973144531,-58.795127868652344
1,1014050,132.04974365234375,-4.7624077796936035,-298.6136779785156,48.50972366333008
1,1014051,-458.00799560546875,11.027490615844727,-116.61271667480469,23.5731143951416
1,1014054,73.59107971191406,31.57931900024414,292.00823974609375,-13.31075668334961
1,1014055,64.26747131347656,41.255958557128906,119.34156799316406,8.434381484985352
1,1014058,14.592074394226074,-25.612972259521484,-14.357389450073242,-21.92498207092285
1,1014059,303.5660705566406,-13.239624977111816,-31.625173568725586,-14.62824535369873
1,1014062,89.64885711669922,14.163317680358887,-87.544677734375,52.234375
1,1014063,28.901321411132812,-21.924470901489258,-35.07185745239258,22.226476669311523
1,1014066,-268.52484130859375,28.03746795654297,-2.87744140625,-70.22885131835938
1,1014068,-495.4148254394531,24.000518798828125,-18.39621925354004,-40.15058898925781
1,1014070,-256.4976501464844,-28.798786163330078,17.56566619873047,57.916015625
1,1014072,175.38758850097656,1.3134515285491943,30.402252197265625,-8.4905366897583
1,1014074,475.2209167480469,15.616244316101074,-5.434603214263916,-45.25303268432617
1,1014076,-66.76024627685547,-17.440624237060547,50.761138916015625,77.17932891845703
1,1014078,-244.91571044921875,-46.56736755371094,139.75839233398438,14.086430549621582
1,1014080,174.99415588378906,20.905460357666016,-0.46633830666542053,-102.54167938232422
1,1014082,211.963623046875,57.724735260009766,-141.19976806640625,20.717317581176758
1,1014084,185.62660217285156,-30.468374252319336,-19.898244857788086,122.78296661376953
1,1014086,-60.722923278808594,-35.91215896606445,56.15997314453125,-26.7341251373291
1,1014088,-334.2518310546875,20.64203643798828,-169.03787231445312,-150.35433959960938
1,1014090,10.120354652404785,16.98092269897461,-265.3551330566406,48.76044845581055
1,1014092,146.13711547851562,39.91935729980469,349.0122375488281,95.41613006591797
1,1014094,-217.7074737548828,42.04373550415039,456.87322998046875,-115.36390686035156
1,1014096,392.5801696777344,-93.987548828125,-275.1965026855469,21.642969131469727
1,1014098,292.96661376953125,-59.08293151855469,-220.82376098632812,126.09623718261719
1,1014100,-1154.775390625,53.53663635253906,134.0728302001953,-18.928325653076172
1,1014102,-447.7615661621094,20.68135643005371,109.13314056396484,-7.791585445404053
1,1014104,1074.2896728515625,9.12897777557373,-211.24400329589844,-24.809850692749023
1,1014106,507.8901062011719,-11.607037544250488,-216.53749084472656,-32.65013885498047
1,1014108,-630.1192626953125,-11.465065956115723,278.6441955566406,-32.39259338378906
1,1014110,-273.3066101074219,-40.05615997314453,105.75320434570312,-21.210365295410156
1,1014112,489.7792663574219,6.679895877838135,-93.99502563476562,101.22029876708984
1,1014114,109.681884765625,89.47366333007812,95.9464340209961,14.424490928649902
1,1014116,-178.26321411132812,-7.6198410987854,-18.16270637512207,-78.2439956665039
1,1014118,-228.1431427001953,-51.06026077270508,-155.09063720703125,-46.34318923950195
1,1014120,-284.26202392578125,-20.217910766601562,-116.27531433105469,17.277633666992188
1,1014122,380.97808837890625,14.840475082397461,-24.33806800842285,104.83917236328125
1,1014124,375.9998474121094,39.333595275878906,167.56683349609375,-1.6447739601135254
1,1014126,-135.55984497070312,-32.629302978515625,116.27037048339844,-82.87166595458984
1,1014128,-118.61609649658203,-56.62322235107422,-110.99624633789062,6.466135501861572
1,1014130,-57.72942352294922,10.847190856933594,-18.701967239379883,48.403846740722656
1,1014132,71.31265258789062,73.27716827392578,82.77593994140625,-74.24539947509766
1,1014134,-46.40079116821289,36.86531448364258,-19.268020629882812,-58.02842330932617
1,1014136,-184.00314331054688,-72.92237854003906,24.270084381103516,122.42737579345703
1,1014138,56.08174514770508,-33.35637664794922,45.30379867553711,36.10186767578125
1,1014140,773.3245239257812,40.7421760559082,-127.12590789794922,-84.30247497558594
1,1014142,-114.75,10.55504322052002,-10.99405288696289,-4.478961944580078
1,1014144,-1554.927734375,6.730756759643555,139.46417236328125,62.327510833740234
1,1014146,92.3759765625,-5.456848621368408,3.310711622238159,8.928927421569824
1,1014148,1066.0594482421875,-10.17683219909668,-172.65061950683594,-27.526939392089844
1,1014150,277.4154052734375,9.481939315795898,-155.18141174316406,25.671619415283203
1,1014152,-335.1993103027344,4.94175386428833,141.12269592285156,-43.560665130615234
1,1014154,-693.4267578125,18.783096313476562,201.66029357910156,-47.109249114990234
1,1014156,410.4042663574219,-37.75567626953125,248.98814392089844,92.12515258789062
1,1014158,794.4169921875,-66.38018035888672,-151.75466918945312,40.36614990234375
1,1014160,-289.1963806152344,51.660369873046875,-490.16766357421875,-60.71823501586914
1,1014162,-615.6141357421875,70.12749481201172,171.45745849609375,-32.65550231933594
1,1014164,62.29110336303711,-10.700443267822266,-14.530781745910645,-4.385848522186279
1,1014166,361.2845458984375,-39.37104034423828,-164.65232849121094,-16.9307918548584
1,1014168,112.05032348632812,20.415746688842773,443.0037841796875,17.206501007080078
1,1014170,58.99076843261719,-3.8102455139160156,40.51729202270508,5.988626480102539
1,1014172,-281.6381530761719,-48.955284118652344,-242.55967712402344,-18.447402954101562
1,1014174,-343.99542236328125,51.642616271972656,68.45870971679688,51.45762634277344
1,1014176,-20.992685317993164,-0.5451995730400085,-50.877418518066406,26.697118759155273
1,1014178,90.16287994384766,-61.643714904785156,-94.9107437133789,-9.91047191619873
1,1014180,239.29266357421875,25.708106994628906,88.67721557617188,22.8945369720459
1,1014182,132.95709228515625,53.71028137207031,121.84896850585938,-87.43083190917969
1,1014183,2.88073468208313,-0.9825794100761414,21.995380401611328,-87.38090515136719
1,1014186,38.938133239746094,-23.29607391357422,-9.233304977416992,119.66020202636719
1,1014187,152.3854522705078,8.25888442993164,-9.5687837600708,123.05989837646484
1,1014190,-173.18666076660156,-45.21416473388672,-90.03813934326172,-83.84540557861328
1,1014191,-501.5709228515625,-43.862457275390625,-62.45048904418945,-160.2280731201172
1,1014194,114.59818267822266,87.54816436767578,18.854856491088867,29.890546798706055
1,1014195,263.1860046386719,58.6430778503418,-6.31306791305542,140.97438049316406
1,1014198,67.32093048095703,-57.23607635498047,-15.264519691467285,-4.970880031585693
1,1014199,-86.31756591796875,-36.6256103515625,55.53667068481445,-58.23200607299805
1,1014202,-185.4207000732422,7.3811163902282715,63.625736236572266,-1.5625438690185547
1,1014203,219.37081909179688,21.586639404296875,-19.721858978271484,4.832996845245361
1,1014206,57.14100646972656,-4.156564712524414,-91.66632843017578,57.6261100769043
1,1014207,-84.84046173095703,-2.1529057025909424,30.05219841003418,21.223194122314453
1,1014210,418.6625671386719,-10.320623397827148,94.93894958496094,-70.55731964111328
1,1014211,-165.87890625,-25.278963088989258,-113.59185791015625,-17.02408218383789
1,1014214,-880.4015502929688,53.42751693725586,28.34030532836914,15.462656021118164
1,1014215,408.7702941894531,35.097713470458984,147.20156860351562,-11.55349349975586
1,1014220,562.23583984375,-65.9024887084961,-44.48938751220703,10.387460708618164
1,1014220,-480.5942077636719,-38.67869567871094,5.217828273773193,5.202356338500977
1,1014222,-65.85870361328125,27.605484008789062,-113.59728240966797,33.17482376098633
1,1014224,181.37850952148438,26.2637882232666,-168.2571258544922,-15.780481338500977
1,1014226,0.343183308839798,19.686927795410156,74.77203369140625,-89.6011734008789
1,1014228,23.39988136291504,-3.3297014236450195,199.04598999023438,15.291130065917969
1,1014230,92.18893432617188,-20.51995849609375,70.54048156738281,35.98646545410156
1,1014232,-51.52070617675781,15.343317985534668,-106.44377136230469,15.492622375488281
1,1014234,-195.02157592773438,23.757644653320312,-43.2978401184082,74.74435424804688
1,1014236,95.60155487060547,-39.660037994384766,-47.46554183959961,-63.21367263793945
1,1014238,34.881492614746094,-51.4029541015625,-37.09634017944336,-122.93824005126953
1,1014240,-57.83008575439453,12.308642387390137,59.32112121582031,86.95931243896484
1,1014242,597.3026733398438,31.27249526977539,-73.11994934082031,42.907997131347656
1,1014244,-298.4169616699219,19.439844131469727,-84.45477294921875,16.281652450561523
1,1014246,-1119.9954833984375,16.309913635253906,222.888671875,28.278547286987305
1,1014248,616.4749755859375,-23.587202072143555,93.84944152832031,-82.0323257446289
1,1014250,703.3046264648438,-37.99378204345703,-217.0985107421875,3.4746243953704834
1,1014252,-434.2085876464844,47.30518341064453,104.54667663574219,51.910614013671875
1,1014254,-129.3737335205078,23.064367294311523,294.3295593261719,-0.4365924894809723
1,1014256,857.0867919921875,-52.789772033691406,-327.29888916015625,-45.069602966308594
1,1014258,61.928863525390625,24.482166290283203,-412.2686462402344,-15.861166954040527
1,1014260,-1756.7532958984375,19.146442413330078,650.222412109375,8.254815101623535
1,1014262,-174.3780975341797,-47.4207649230957,525.236572265625,-25.658267974853516
1,1014264,1448.1531982421875,-13.117968559265137,-721.599365234375,43.779903411865234
1,1014266,36.39254379272461,15.94035816192627,-796.7794189453125,76.43138885498047
1,1014268,-308.6037292480469,25.509958267211914,284.9305114746094,-39.44394302368164
1,1014270,349.6786804199219,10.162348747253418,783.3479614257812,-70.24017333984375
1,1014272,-392.0632629394531,-18.273439407348633,123.9280014038086,66.61911010742188
1,1014274,-390.72344970703125,26.499248504638672,-239.59608459472656,82.93982696533203
1,1014276,383.86474609375,-24.401277542114258,-378.498291015625,-127.14054870605469
1,1014278,238.0056915283203,-51.40082931518555,-186.61224365234375,-122.84122467041016
1,1014280,33.24844741821289,31.115955352783203,373.81524658203125,132.79208374023438
1,1014282,-130.32913208007812,11.706128120422363,102.02978515625,83.47420501708984
1,1014284,-164.10977172851562,36.2276496887207,-68.15064239501953,-139.3438262939453
1,1014286,136.95919799804688,-11.225991249084473,108.05474853515625,-52.9893798828125
1,1014288,-181.4212188720703,-66.01824951171875,-83.09130859375,119.35018920898438
1,1014290,-34.20663833618164,13.780567169189453,-127.0588150024414,-4.506857872009277
1,1014292,955.8209838867188,34.06243133544922,86.96026611328125,-73.62700653076172
1,1014294,-489.6535949707031,56.02153015136719,133.30747985839844,88.3824462890625
1,1014296,-1702.7706298828125,7.847272872924805,10.360734939575195,90.93901062011719
1,1014298,504.83306884765625,-81.10062408447266,-228.4175262451172,-30.788219451904297
1,1014300,1075.3046875,-59.959022521972656,-348.1075439453125,-36.31411361694336
1,1014302,-263.46575927734375,32.70549774169922,-108.20903015136719,-32.352088928222656
1,1014304,-12.185826301574707,78.00125885009766,446.3860778808594,-82.74861907958984
1,1014306,397.664794921875,16.694499969482422,545.1332397460938,4.052353382110596
1,1014308,57.782711029052734,-38.77950668334961,-101.14472198486328,23.258481979370117
1,1014310,-81.8306655883789,-38.10255432128906,-1.6945720911026,16.1677303314209
1,1014312,-20.53379249572754,9.431957244873047,-200.81301879882812,72.3707504272461
1,1014314,745.19482421875,15.537688255310059,-565.4652099609375,28.78159523010254
1,1014316,-1296.3489990234375,-41.26401901245117,-4.586891174316406,-24.69822883605957
1,1014318,-2006.5228271484375,6.121861934661865,130.3629913330078,-84.25981903076172
1,1014320,1908.0228271484375,85.61128997802734,485.7425231933594,3.569553852081299
1,1014322,1353.7830810546875,51.83266830444336,281.00518798828125,66.56486511230469
1,1014324,-703.5910034179688,-76.40251922607422,-476.2395324707031,-21.37820816040039
1,1014326,-404.2991638183594,-104.84801483154297,-131.51463317871094,32.51778030395508
1,1014328,-203.09188842773438,23.537660598754883,127.18708801269531,19.85565185546875
1,1014330,110.17932891845703,53.29594802856445,-54.45984649658203,-99.02181243896484
1,1014332,208.83877563476562,56.76203155517578,-149.6866912841797,-63.95416259765625
1,1014334,80.81645202636719,9.007312774658203,36.80018615722656,32.36045837402344
1,1014336,93.85364532470703,-65.76477813720703,262.7705383300781,112.96265411376953
1,1014338,167.8812713623047,-34.132102966308594,40.343955993652344,19.99072265625
1,1014340,28.27216339111328,29.21196937561035,-43.40745162963867,-103.79339599609375
1,1014342,-140.04750061035156,43.2784309387207,39.27199172973633,-35.91254425048828
1,1014344,-306.07342529296875,-9.825910568237305,-61.95014572143555,73.7413330078125
1,1014346,-220.7725067138672,6.881342887878418,-132.27587890625,144.2181396484375
1,1014348,-39.6406135559082,-27.048725128173828,-113.0306396484375,-75.32171630859375
1,1014350,-12.703133583068848,-91.97891235351562,-68.05236053466797,-222.052001953125
1,1014351,43.79264450073242,-19.69879913330078,106.49571990966797,12.052596092224121
1,1014354,574.701171875,91.22293853759766,172.184326171875,59.81459426879883
1,1014355,224.28819274902344,93.37081146240234,56.69925308227539,-56.553592681884766
1,1014358,-766.3997802734375,-52.40092849731445,-51.26693344116211,117.75898742675781
1,1014359,23.68678092956543,-117.72908782958984,-61.09408187866211,181.85450744628906
1,1014362,456.47308349609375,76.15583801269531,115.3991470336914,-135.86172485351562
1,1014363,-191.25189208984375,127.99718475341797,9.403890609741211,-26.472257614135742
1,1014366,-249.15689086914062,-75.71951293945312,-153.1292724609375,156.4598388671875
1,1014367,-134.31927490234375,-34.862876892089844,19.195096969604492,-66.08282470703125
1,1014370,216.93060302734375,21.166553497314453,-25.557788848876953,-82.12102508544922
1,1014371,451.6582946777344,-74.06424713134766,-81.06206512451172,40.040645599365234
1,1014374,-183.61251831054688,7.180880069732666,87.50090026855469,34.42295837402344
1,1014375,-362.5599365234375,42.91825866699219,199.83726501464844,-28.458086013793945
1,1014378,379.7307434082031,-38.7493896484375,18.985599517822266,149.8806915283203
1,1014379,215.20411682128906,-23.948373794555664,-324.2263488769531,-13.017330169677734
1,1014382,-336.0596008300781,63.00118637084961,42.304344177246094,-547.900146484375
1,1014383,-376.5766296386719,23.575082778930664,430.48724365234375,-27.390968322753906
1,1014388,337.1368713378906,-14.453450202941895,-175.4004669189453,495.2374267578125
1,1014388,475.0429382324219,45.328189849853516,-373.1502990722656,66.02168273925781
1,1014390,-423.5539855957031,-33.46611404418945,6.443539142608643,-171.68814086914062
1,1014391,-369.06573486328125,-52.62970733642578,-96.80268096923828,-57.82453536987305
1,1014394,38.63365173339844,49.540645599365234,272.906982421875,-4.271562099456787
1,1014395,237.08628845214844,38.02251434326172,383.283203125,-45.12935256958008
1,1014398,378.0204162597656,-17.568763732910156,-302.69476318359375,30.758602142333984
1,1014399,-262.0885314941406,-12.294297218322754,-203.58795166015625,132.6744384765625
1,1014402,-394.9892883300781,-24.010839462280273,247.18380737304688,-9.279647827148438
1,1014403,417.6783447265625,-38.582515716552734,50.635135650634766,-113.76060485839844
1,1014406,68.29032897949219,17.648406982421875,-117.41508483886719,13.494179725646973
1,1014407,-485.0084228515625,16.03741455078125,109.43860626220703,32.207767486572266
1,1014410,285.4470520019531,-29.204946517944336,-83.41071319580078,42.839969635009766
1,1014411,430.79241943359375,16.148775100708008,-110.0951156616211,65.42454528808594
1,1014414,92.55404663085938,51.5063362121582,57.195377349853516,-13.712678909301758
1,1014415,-151.28672790527344,10.29576587677002,-12.068317413330078,-99.25310516357422
1,1014418,-829.360595703125,-79.34076690673828,114.3323745727539,-90.53559112548828
1,1014419,128.10874938964844,-37.90265655517578,-205.17153930664062,85.99702453613281
1,1014422,769.5712280273438,90.9276351928711,-178.42665100097656,100.47364044189453
1,1014423,-66.2779312133789,-9.762256622314453,310.6194152832031,-73.53600311279297
1,1014426,-392.5426025390625,-25.580928802490234,105.97115325927734,-48.692195892333984
1,1014427,-362.8377685546875,62.84699630737305,134.76089477539062,34.469966888427734
1,1014430,472.8844299316406,-20.284852981567383,-277.4105529785156,-7.345114707946777
1,1014431,542.9739990234375,-53.6690673828125,-464.2615966796875,-29.895891189575195
1,1014434,-1228.3587646484375,19.261842727661133,591.7833251953125,34.707767486572266
1,1014435,-638.09326171875,50.735595703125,333.4382019042969,95.20489501953125
1,1014438,1644.23974609375,-47.103233337402344,-638.8934936523438,-38.57200622558594
1,1014439,495.3840637207031,-67.41559600830078,-285.2335510253906,-122.16351318359375
1,1014442,-798.9105224609375,33.01483154296875,420.57232666015625,50.9244270324707
1,1014443,-116.92803955078125,52.587059020996094,214.8464813232422,100.13063049316406
1,1014446,19.294578552246094,15.965226173400879,-63.1422233581543,-34.016883850097656
1,1014447,-55.05058670043945,-14.408428192138672,42.588050842285156,-41.48337936401367
1,1014450,50.39387893676758,-8.309535026550293,-41.185401916503906,-12.84904670715332
1,1014451,114.82908630371094,15.458072662353516,-8.554366111755371,-19.64455223083496
1,1014454,-19.962875366210938,-7.665881156921387,-58.6295280456543,1.0366144180297852
1,1014455,-24.57292366027832,-25.79596519470215,-86.09381103515625,11.620100021362305
1,1014458,12.596842765808105,0.6979795098304749,226.6428985595703,64.01813507080078
1,1014459,-102.65612030029297,39.36555099487305,74.14207458496094,42.63380432128906
1,1014462,83.55792236328125,-23.360225677490234,-435.8044738769531,-5.271231174468994
1,1014463,519.4798583984375,-51.128273010253906,-167.45957946777344,-98.0612564086914
1,1014466,-55.624794006347656,67.8423080444336,330.3627624511719,-72.9500503540039
1,1014467,-696.0211181640625,27.291967391967773,134.8810577392578,123.85369110107422
1,1014470,-537.7807006835938,-79.2765121459961,110.76673126220703,24.489648818969727
1,1014471,-537.397705078125,4.536750793457031,96.3671875,-39.6663818359375
1,1014474,1059.6300048828125,71.10087585449219,-456.5741882324219,60.23862075805664
1,1014475,994.403076171875,-34.62595748901367,-369.486572265625,6.065225124359131
1,1014478,-821.99462890625,-89.6778793334961,397.7245788574219,-137.87294006347656
1,1014479,-73.32229614257812,30.538042068481445,332.7440185546875,-80.56132507324219
1,1014482,385.24932861328125,94.74285888671875,-122.85696411132812,170.27508544921875
1,1014483,-102.57311248779297,-10.439023971557617,-25.42020034790039,52.45827102661133
1,1014486,-121.66853332519531,-46.208919525146484,-72.51399993896484,-158.52203369140625
1,1014487,38.20224380493164,3.411064386367798,-46.393455505371094,2.163694381713867
1,1014490,122.51091003417969,-14.48987865447998,54.05978012084961,48.73751449584961
1,1014491,84.55675506591797,-2.7086496353149414,-39.23630905151367,-18.31646728515625
1,1014494,-40.5002555847168,60.6561393737793,26.235389709472656,46.1956787109375
1,1014495,-178.02835083007812,10.700787544250488,24.666404724121094,43.37621307373047
1,1014498,-79.6756591796875,-94.18394470214844,7.267346382141113,-17.563358306884766
1,1014499,-76.7483901977539,11.875617027282715,49.20547866821289,-3.10577392578125
1,1014502,-91.63339233398438,80.0958480834961,-30.129222869873047,-32.142921447753906
1,1014503,-2.709599256515503,-19.842405319213867,-80.39669799804688,-52.63269805908203
1,1014506,209.40798950195312,-16.281095504760742,-11.856101036071777,68.04685974121094
1,1014507,89.72990417480469,-52.31542205810547,15.165470123291016,96.9723129272461
1,1014510,-418.2980651855469,-32.815757751464844,10.49416446685791,-31.28108787536621
1,1014511,184.69424438476562,50.600189208984375,102.30105590820312,-155.7321014404297
1,1014514,435.1914367675781,53.60169982910156,-51.08478927612305,-25.271141052246094
1,1014515,-286.12158203125,64.01921081542969,-96.15308380126953,101.62268829345703
1,1014518,-221.9412078857422,-48.158851623535156,217.2381591796875,19.525671005249023
1,1014519,-5.246998310089111,-93.01856994628906,34.1189079284668,-24.141748428344727
1,1014522,222.29376220703125,21.335655212402344,-260.3436584472656,-14.367971420288086
1,1014523,385.7084045410156,41.78385543823242,-34.791770935058594,10.650032043457031
1,1014526,-161.53622436523438,-31.83650016784668,32.098716735839844,63.03875732421875
1,1014527,-772.10205078125,-21.523242950439453,-73.3177719116211,14.535126686096191
1,1014530,83.91875457763672,27.49343490600586,216.12660217285156,-44.54961395263672
1,1014531,810.6844482421875,8.08350944519043,83.93714141845703,16.730852127075195
1,1014534,-158.06863403320312,29.665449142456055,-183.85748291015625,-69.71243286132812
1,1014535,-450.35333251953125,1.326892375946045,-51.86952209472656,-16.334836959838867
1,1014538,297.4576721191406,-68.47649383544922,30.13257598876953,93.26927185058594
1,1014539,148.0006866455078,23.163251876831055,162.65188598632812,-32.6163215637207
1,1014542,-257.50140380859375,56.873783111572266,16.75856590270996,-33.80685043334961
1,1014543,-54.664703369140625,-16.050888061523438,-84.19050598144531,26.750707626342773
1,1014546,167.99038696289062,8.924064636230469,-49.548587799072266,-1.0255110263824463
1,1014547,65.33946990966797,0.9836876392364502,-40.87586975097656,-32.16591262817383
1,1014550,-194.8976593017578,-28.776077270507812,161.9182586669922,-33.118228912353516
1,1014551,75.09283447265625,-0.5210036635398865,-55.04418182373047,22.071491241455078
1,1014554,91.86830139160156,-20.643306732177734,-197.600341796875,103.3851318359375
1,1014555,-11.045990943908691,-18.810440063476562,155.336181640625,13.518282890319824
1,1014558,129.16256713867188,42.07097625732422,90.30571746826172,-109.53897094726562
1,1014559,-267.8393249511719,-12.543880462646484,-96.31195068359375,-33.98348617553711
1,1014562,-247.76510620117188,-0.48034125566482544,-46.140018463134766,18.126296997070312
1,1014563,85.78933715820312,65.33306884765625,-53.5079460144043,59.83998489379883
1,1014569,66.71574401855469,-33.78635787963867,67.62123107910156,7.391903877258301
1,1014569,106.64618682861328,-58.208160400390625,143.63735961914062,-97.1283950805664
1,1014570,109.8439712524414,-12.670997619628906,-47.75761795043945,33.83132553100586
1,1014571,152.31622314453125,23.57477569580078,-61.70535659790039,58.66926193237305
1,1014574,47.777408599853516,44.63429641723633,-127.29592895507812,7.010002613067627
1,1014575,-265.5335388183594,-4.590897083282471,17.358417510986328,51.34617233276367
1,1014578,-171.8116455078125,-34.42336654663086,247.35171508789062,-45.68326187133789
1,1014579,104.56019592285156,-8.061490058898926,-80.96574401855469,-86.99142456054688
1,1014582,109.96460723876953,29.45863151550293,-92.04914855957031,22.051803588867188
1,1014583,-30.212400436401367,-6.286204814910889,30.671218872070312,54.58671951293945
1,1014586,-100.59494018554688,-2.8833608627319336,-46.43996810913086,25.59162139892578
1,1014587,-22.211071014404297,19.455873489379883,7.795632839202881,-9.980622291564941
1,1014590,69.53315734863281,-30.618919372558594,42.89612579345703,-23.226783752441406
1,1014591,61.461307525634766,24.187288284301758,34.76277542114258,-31.08297348022461
1,1014594,-12.30221176147461,52.363521575927734,0.320613831281662,23.820730209350586
1,1014595,-14.861908912658691,-43.2255973815918,-31.814287185668945,40.413330078125
1,1014598,18.09905433654785,-48.927085876464844,9.006799697875977,-41.92611312866211
1,1014599,-0.09456454962491989,29.232738494873047,13.18567180633545,-21.76226806640625
1,1014602,-27.63202667236328,24.492063522338867,-49.893310546875,7.373391151428223
1,1014603,-3.413389205932617,-26.425186157226562,-3.972076654434204,-3.0328946113586426
1,1014606,11.918069839477539,8.512879371643066,20.381019592285156,20.51309585571289
1,1014607,-0.6141237020492554,6.9313201904296875,-19.94330596923828,31.59604835510254
1,1014610,7.84449577331543,-24.05058479309082,11.804996490478516,-15.622916221618652
1,1014611,-16.627857208251953,18.398113250732422,28.11570167541504,-71.6953125
1,1014614,-13.585244178771973,8.108375549316406,-14.751801490783691,20.052431106567383
1,1014615,31.246171951293945,-47.75630187988281,-11.067377090454102,60.02313232421875
1,1014618,24.252960205078125,-39.6732063293457,20.86540985107422,-50.84042739868164
1,1014619,-45.63674545288086,24.00147247314453,-11.485856056213379,17.869800567626953
1,1014622,97.10678100585938,69.88027954101562,3.5164878368377686,20.255382537841797
1,1014623,153.16725158691406,31.648160934448242,36.199859619140625,-52.54703140258789
1,1014626,-387.7195739746094,-49.33853530883789,26.361087799072266,71.16063690185547
1,1014627,-295.41522216796875,-27.3167781829834,-10.876033782958984,71.00944519042969
1,1014630,436.6933288574219,9.079970359802246,-182.15733337402344,-103.25270080566406
1,1014631,194.7032470703125,4.191516399383545,-22.425113677978516,-122.86428833007812
1,1014634,-180.3753662109375,40.25895309448242,257.5010986328125,104.8238296508789
1,1014635,11.82008171081543,12.243358612060547,11.416987419128418,78.23626708984375
1,1014638,15.235159873962402,-42.41318893432617,-119.42464447021484,-104.31876373291016
1,1014639,-6.032400608062744,4.302077293395996,-2.3974015712738037,15.075728416442871
1,1014642,0.9289260506629944,41.12564468383789,0.7006656527519226,66.68912506103516
1,1014643,-24.069169998168945,-30.971702575683594,-16.917499542236328,41.88888931274414
1,1014646,30.624425888061523,-22.11854362487793,4.734206676483154,-36.676700592041016
1,1014647,0.3736269474029541,10.140979766845703,49.59572219848633,-122.17391967773438
1,1014650,3.300356388092041,-18.86732292175293,-26.013195037841797,17.77838706970215
1,1014651,-2.211644411087036,9.176671981811523,-45.65436553955078,53.317657470703125
1,1014654,-67.6710205078125,37.91115188598633,64.1314926147461,15.00999927520752
1,1014655,-6.051149845123291,-4.934508800506592,18.907176971435547,5.528183460235596
1,1014658,15.059161186218262,-73.7562255859375,-53.210567474365234,-37.831092834472656
1,1014659,-0.7229743003845215,0.6980156898498535,45.55961990356445,20.03436279296875
1,1014662,31.909347534179688,54.470436096191406,-39.621253967285156,6.608809947967529
1,1014663,-58.58673095703125,-3.1866230964660645,-115.85105895996094,-58.31856155395508
1,1014666,108.88288116455078,17.106645584106445,76.59806060791016,15.504656791687012
1,1014667,52.176780700683594,-22.07357406616211,88.04000854492188,60.27589416503906
1,1014670,-310.42852783203125,-53.093170166015625,21.500410079956055,-36.123992919921875
1,1014671,135.81307983398438,41.34714889526367,-25.230478286743164,8.272394180297852
1,1014674,156.7467498779297,66.79351806640625,-85.09773254394531,56.13268280029297
1,1014675,-255.44085693359375,-11.760113716125488,-16.718530654907227,-63.23348617553711
1,1014678,158.84246826171875,-66.70899200439453,32.300662994384766,88.17488098144531
1,1014679,200.43360900878906,-13.524125099182129,15.319137573242188,23.531295776367188
1,1014682,-182.6737518310547,56.60731887817383,28.706714630126953,-181.94129943847656
1,1014683,-69.25289154052734,27.463708877563477,11.648365020751953,106.37541961669922
1,1014686,67.65426635742188,-52.203189849853516,-37.09920883178711,102.67357635498047
1,1014687,12.174129486083984,-63.78639602661133,-23.822729110717773,-153.45294189453125
1,1014690,54.11790084838867,25.611801147460938,54.26300811767578,-62.56816482543945
1,1014691,18.760339736938477,91.67610168457031,43.1641960144043,52.963191986083984
1,1014694,-69.82650756835938,36.06217575073242,-59.162330627441406,53.313270568847656
1,1014695,-48.51593780517578,-68.53913879394531,-25.084218978881836,-50.921104431152344
1,1014698,-10.527034759521484,-62.82569122314453,52.11973190307617,-43.393951416015625
1,1014699,-1.8395978212356567,59.620361328125,15.185540199279785,92.44149780273438
1,1014702,1.2134028673171997,44.376487731933594,-49.487152099609375,-24.748889923095703
1,1014703,6.959639549255371,-55.94775390625,-28.242101669311523,-50.98573303222656
1,1014706,2.7473227977752686,-2.795137405395508,32.19152069091797,86.5892333984375
1,1014707,30.43026351928711,22.4758358001709,-34.423194885253906,73.84329986572266
1,1014710,22.67262077331543,-54.977684020996094,-36.64912796020508,-25.186044692993164
