Aktueller Finger,timestamp_ms,sensor_0,sensor_1,sensor_2,sensor_3
0,818758,-7.304247856140137,21.3491153717041,5.449544906616211,-0.756844699382782
0,818758,-11.430657386779785,-36.84467697143555,15.465604782104492,-60.99070358276367
0,818759,-14.66251277923584,-3.1372318267822266,-72.93558502197266,2.1810429096221924
0,818762,-8.270329475402832,41.706336975097656,-49.838836669921875,65.32068634033203
0,818763,23.06451416015625,-9.326684951782227,70.04377746582031,-14.308350563049316
0,818766,15.395851135253906,3.535308599472046,67.65099334716797,53.05086135864258
0,818767,-35.068267822265625,11.978053092956543,-69.91526794433594,48.23093795776367
0,818770,-12.373586654663086,-27.30304718017578,-46.332279205322266,-162.10662841796875
0,818771,59.94147872924805,6.807958126068115,50.31189727783203,-46.570613861083984
0,818774,20.87486457824707,-26.599571228027344,-10.570806503295898,88.93974304199219
0,818775,-47.58363342285156,-10.897204399108887,-13.051875114440918,11.947717666625977
0,818778,-2.9612138271331787,58.974853515625,50.62827682495117,25.244077682495117
0,818779,2.589360475540161,-1.4347089529037476,-8.033709526062012,-15.772194862365723
0,818782,-16.74251365661621,-24.08997917175293,-50.93000030517578,-22.504308700561523
0,818783,49.86924743652344,-0.6862858533859253,51.46759033203125,22.54431915283203
0,818786,-5.130613803863525,-9.622766494750977,32.955474853515625,-3.3818604946136475
0,818787,-56.11976623535156,1.0530564785003662,-92.65826416015625,-15.86058235168457
0,818790,24.729976654052734,15.130889892578125,-13.200088500976562,28.836875915527344
0,818791,9.900298118591309,2.211333751678467,67.89662170410156,44.89588928222656
0,818794,-8.332250595092773,-5.8243865966796875,2.229781150817871,-67.97084045410156
0,818795,6.576281547546387,12.658136367797852,-27.30817413330078,-103.19482421875
0,818798,-4.6589484214782715,8.617209434509277,36.5274658203125,69.28445434570312
0,818799,-7.286774635314941,-42.30736541748047,6.6311421394348145,120.0607681274414
0,818802,-3.908860921859741,-1.824676513671875,-90.85508728027344,-45.22731018066406
0,818803,27.259679794311523,45.888370513916016,37.2226448059082,-69.62993621826172
0,818806,-21.86539649963379,-12.407452583312988,87.76669311523438,-13.535408020019531
0,818807,-12.077108383178711,-17.75005340576172,-59.302249908447266,19.60777473449707
0,818810,28.180513381958008,-12.452203750610352,-58.97712326049805,54.705665588378906
0,818811,-28.79034996032715,-0.7348850965499878,40.109764099121094,-5.0546722412109375
0,818814,7.5148606300354,27.942996978759766,60.061275482177734,-8.61932373046875
0,818815,49.67230224609375,24.85405731201172,-12.238245010375977,28.54538345336914
0,818818,-3.930208921432495,-19.972110748291016,-33.371551513671875,-32.9099235534668
0,818819,-79.52110290527344,-50.54273223876953,-35.81371307373047,-42.19903564453125
0,818822,-4.870070457458496,12.404354095458984,-11.437973976135254,10.370596885681152
0,818823,84.03839111328125,39.15395736694336,78.79366302490234,-16.378570556640625
0,818826,0.4430123567581177,2.249738931655884,12.961091995239258,7.789033889770508
0,818827,-51.0665168762207,-14.779414176940918,-75.7254638671875,44.82026290893555
0,818830,4.3907999992370605,-5.561313629150391,-8.382718086242676,-0.06008585914969444
0,818831,22.32716941833496,-7.598846435546875,52.8755989074707,1.0880520343780518
0,818834,-3.0327746868133545,17.160198211669922,27.09420394897461,-17.954845428466797
0,818835,3.4823415279388428,12.775025367736816,-41.28459930419922,-12.413264274597168
0,818838,5.2090864181518555,-32.01959228515625,-9.615744590759277,29.231271743774414
0,818839,-29.03628158569336,3.7911128997802734,11.909289360046387,-1.6512577533721924
0,818842,-27.901424407958984,18.559621810913086,-53.07936477661133,-14.996336936950684
0,818843,65.52304077148438,-14.480819702148438,44.47039794921875,-12.05963134765625
0,818846,22.76906967163086,6.909409523010254,60.75767517089844,14.621264457702637
0,818847,-81.42100524902344,7.449807643890381,-81.47942352294922,85.66781616210938
0,818850,-7.736963272094727,-10.946810722351074,-24.67803955078125,-49.186988830566406
0,818851,62.72671890258789,-4.284036159515381,62.637367248535156,-135.85293579101562
0,818854,3.434727191925049,-20.83068084716797,-8.763457298278809,70.33270263671875
0,818855,-34.59762191772461,22.740764617919922,-26.40737533569336,66.78886413574219
0,818858,18.61905860900879,25.98914337158203,46.5931510925293,-35.39326477050781
0,818859,-15.8256254196167,-35.384769439697266,-7.574174404144287,1.9971027374267578
0,818862,-36.25177764892578,-0.6565595865249634,-43.844058990478516,25.870447158813477
0,818863,54.34364700317383,24.80744171142578,53.24564743041992,12.060708045959473
0,818866,35.166908264160156,17.032474517822266,24.533374786376953,-50.838687896728516
0,818867,-29.18829917907715,-12.020028114318848,-76.6042251586914,-39.64817428588867
0,818870,-13.335772514343262,-25.95423126220703,-2.2740559577941895,21.28557586669922
0,818871,-24.342763900756836,17.611183166503906,59.30203628540039,18.943090438842773
0,818874,-28.274658203125,1.5851916074752808,-27.440250396728516,23.92098045349121
0,818875,38.29265213012695,0.5609660148620605,-32.728885650634766,8.17176342010498
0,818878,40.11442184448242,13.823165893554688,24.184646606445312,-45.93109130859375
0,818879,-37.3753776550293,-35.59180450439453,-1.1218875646591187,-5.511349201202393
0,819134,-56.04907989501953,-9.227625846862793,-89.47084045410156,25.9417781829834
0,819136,10.925785064697266,21.041656494140625,-36.828304290771484,-25.665874481201172
0,819138,76.81805419921875,-12.398880958557129,126.85578155517578,29.929458618164062
0,819140,68.53067016601562,10.026087760925293,106.53166198730469,37.58246612548828
0,819142,-1.2206263542175293,21.75772476196289,12.411935806274414,-52.07078170776367
0,819144,-33.692344665527344,-0.5804394483566284,18.954315185546875,-32.32413864135742
0,819145,-0.21316920220851898,-14.635811805725098,30.710054397583008,20.176965713500977
0,821623,-32.332359313964844,-8.4449462890625,-78.9369125366211,88.7157211303711
0,821626,-96.56804656982422,18.759321212768555,-188.10409545898438,3.4975900650024414
0,821627,-33.52978515625,2.997849702835083,-45.402408599853516,-102.35716247558594
0,821630,53.53132629394531,-40.650089263916016,72.39424896240234,19.336362838745117
0,821631,25.381515502929688,11.697883605957031,-5.576263427734375,11.29179859161377
0,821634,72.25433349609375,76.1197738647461,68.86112976074219,-18.08634376525879
0,821635,52.36784362792969,-23.21984100341797,94.16158294677734,27.564176559448242
0,821638,-92.45897674560547,-78.6279067993164,-55.290008544921875,-9.018067359924316
0,821639,-17.33561897277832,15.53676700592041,-4.95644474029541,6.271433353424072
0,821642,50.52600860595703,27.571109771728516,73.49987030029297,10.444491386413574
0,821643,-10.20923900604248,-3.3707079887390137,-43.63045120239258,-14.976472854614258
0,821646,-73.70328521728516,-21.97557830810547,-124.66559600830078,-14.744004249572754
0,821647,-38.937747955322266,-35.222900390625,-33.40182876586914,10.478360176086426
0,821650,60.77528762817383,48.05848693847656,53.715492248535156,14.278572082519531
0,821651,7.613912582397461,15.708392143249512,12.063172340393066,-19.55946159362793
0,821654,3.4765117168426514,-50.289554595947266,4.827962875366211,-7.528242111206055
0,821655,67.29835510253906,48.9254264831543,70.13642120361328,6.618244171142578
0,821658,-19.636125564575195,14.721078872680664,30.308029174804688,24.75542640686035
0,821659,-58.594417572021484,-36.00303268432617,-31.94830322265625,-6.316719055175781
0,821662,31.38905143737793,41.99745178222656,7.535867691040039,-24.364887237548828
0,821663,-1.8406689167022705,2.398916244506836,9.397892951965332,40.519771575927734
0,821666,-56.46738052368164,-38.04206085205078,-78.05631256103516,8.334668159484863
0,821667,18.09473419189453,-5.032474040985107,-31.14421272277832,-23.344392776489258
0,821670,33.288360595703125,10.256447792053223,61.35297393798828,-27.680133819580078
0,821671,-18.62946128845215,5.655855655670166,-21.255348205566406,-8.325191497802734
0,821674,10.920395851135254,-6.981276988983154,-5.355716228485107,42.55670928955078
0,821675,24.700244903564453,12.988092422485352,53.89273452758789,6.411564350128174
0,821678,-22.932668685913086,1.7499340772628784,-17.391084671020508,-45.2755012512207
0,821679,16.601728439331055,-17.038679122924805,-1.6401317119598389,-22.973278045654297
0,821682,29.03880500793457,10.091219902038574,53.469696044921875,62.470096588134766
0,821683,-6.7983598709106445,-3.64363956451416,-0.5019474029541016,30.325878143310547
0,821686,-28.0225830078125,10.494207382202148,-87.1983642578125,-50.06443786621094
0,821687,-41.48408508300781,30.51018714904785,-34.0113410949707,-23.861440658569336
0,821690,20.486595153808594,-40.382022857666016,53.688385009765625,9.846410751342773
0,821691,13.73774242401123,-36.4572639465332,-3.7123913764953613,30.224552154541016
0,821694,-22.692995071411133,40.14743423461914,3.7748544216156006,11.312187194824219
0,821695,29.937767028808594,12.93801212310791,40.04011154174805,-9.377765655517578
0,821698,18.83670997619629,-44.708770751953125,-29.551544189453125,4.858177661895752
0,821699,-0.17291730642318726,-3.0372467041015625,-14.068055152893066,-12.075531959533691
0,821702,9.518439292907715,42.2021369934082,33.000030517578125,3.6063599586486816
0,821703,-52.24051284790039,-7.349825859069824,4.572157859802246,55.59962463378906
0,821706,-21.802648544311523,-7.245755672454834,-52.26618194580078,-59.481231689453125
0,821707,28.98821449279785,20.50948143005371,-29.452316284179688,-96.44293212890625
0,821710,9.722490310668945,-20.688138961791992,57.481468200683594,72.0389633178711
0,821711,15.284808158874512,6.511045455932617,5.976537227630615,47.25127410888672
0,821714,-7.191956520080566,2.235299825668335,-2.6433188915252686,-32.71894454956055
0,821715,-9.07844352722168,-9.625415802001953,19.25033187866211,-14.819330215454102
0,821718,-19.41377830505371,20.5820255279541,-55.38764953613281,-8.189677238464355
0,821719,-8.904860496520996,-23.913034439086914,6.1302876472473145,16.121326446533203
0,821722,57.174591064453125,4.697048187255859,68.10338592529297,15.6212158203125
0,821723,21.580028533935547,14.388649940490723,-3.3766088485717773,-0.42012885212898254
0,821726,-56.718505859375,-17.785505294799805,-60.62441635131836,5.718014717102051
0,821727,-12.764822006225586,18.90960121154785,-9.051191329956055,-26.69066047668457
0,821730,18.615304946899414,-17.129297256469727,34.88982009887695,-6.123589515686035
0,821731,-19.746566772460938,-36.34077072143555,-23.00274085998535,66.46904754638672
0,821734,29.779050827026367,34.74893569946289,18.64397621154785,-9.775623321533203
0,821735,47.708187103271484,27.870912551879883,45.02080154418945,-54.75831985473633
0,821738,-48.301753997802734,-18.172210693359375,-75.08231353759766,4.431295871734619
0,821739,-34.936038970947266,-3.427821636199951,0.006679395213723183,12.864409446716309
0,821742,48.247344970703125,3.681403398513794,92.75518798828125,15.514558792114258
0,821743,15.447685241699219,25.537078857421875,-21.423561096191406,-15.534417152404785
0,821746,-53.773033142089844,-9.138543128967285,-93.02482604980469,-28.080488204956055
0,821747,-11.415288925170898,-50.2318115234375,-2.2500386238098145,16.56687355041504
0,821750,31.099437713623047,24.61279296875,86.57633972167969,24.28464698791504
0,821752,-22.563488006591797,8.470135688781738,-8.710471153259277,17.12757682800293
0,821754,15.726034164428711,-19.79973793029785,-27.17823028564453,9.203140258789062
0,821756,29.18976402282715,13.193434715270996,7.3800368309021,-11.31741714477539
0,821758,-25.398454666137695,11.942075729370117,-39.3052864074707,-38.7923469543457
0,821760,0.4926634728908539,0.967359185218811,14.550697326660156,-21.34946060180664
0,821762,2.006169557571411,-30.013526916503906,51.806114196777344,41.51000213623047
0,821764,-10.925202369689941,-1.4472531080245972,-23.467435836791992,40.38570022583008
0,821765,2.253220558166504,35.20726013183594,-32.053165435791016,-45.92325210571289
0,821768,-4.060866832733154,-2.036992311477661,5.558689594268799,-47.2615966796875
0,821769,-8.415742874145508,-33.82579040527344,7.1511101722717285,48.44927215576172
0,821772,19.231136322021484,-1.4826468229293823,12.99832534790039,18.431188583374023
0,821773,16.8510684967041,20.356395721435547,1.7759531736373901,-24.23738670349121
0,821776,-28.78180694580078,13.199176788330078,-1.061963438987732,-5.2693352699279785
0,821779,-9.868463516235352,-1.3563672304153442,-10.117679595947266,3.9556968212127686
0,821780,42.201847076416016,-13.842753410339355,21.7197322845459,10.756452560424805
0,821781,27.24843406677246,9.175488471984863,50.73472213745117,-9.62324333190918
0,821784,-55.27141571044922,-6.697993755340576,-80.65486907958984,5.9054718017578125
0,821785,-35.97805404663086,-8.170330047607422,-72.89710998535156,1.7984296083450317
0,821788,59.83208084106445,22.343786239624023,87.10478210449219,-13.706367492675781
0,821789,5.837433815002441,-2.0286340713500977,35.67412185668945,17.031129837036133
0,821792,-23.978954315185547,-5.68040657043457,-45.88888168334961,-18.362396240234375
0,821793,18.719383239746094,16.814773559570312,6.551862716674805,-25.42897605895996
0,821796,-15.695042610168457,-15.57758903503418,14.465280532836914,45.3654899597168
0,821797,-17.722490310668945,-19.935152053833008,-30.844629287719727,-12.106982231140137
0,821800,33.211029052734375,18.53090476989746,29.24319076538086,-37.52149200439453
0,821801,9.997100830078125,10.353215217590332,67.8223876953125,31.545642852783203
0,821804,-37.1264533996582,-21.722219467163086,-50.387115478515625,74.38566589355469
0,821805,-21.30559730529785,-19.471288681030273,-72.30172729492188,2.0142571926116943
0,821808,10.013908386230469,42.62427520751953,14.652256965637207,-94.2716293334961
0,821809,17.061120986938477,34.77381896972656,44.2481575012207,-12.395148277282715
0,821812,0.617928147315979,-40.19620895385742,15.410439491271973,23.502771377563477
0,821813,7.410539150238037,-19.348146438598633,-20.48440170288086,40.350433349609375
0,821816,-5.0961456298828125,1.0353471040725708,-24.104047775268555,1.0956733226776123
0,821817,-10.44609546661377,-17.62737274169922,-30.27750015258789,-55.790855407714844
0,821820,29.8953914642334,23.894411087036133,61.224727630615234,20.208398818969727
0,821821,11.530868530273438,34.81668472290039,79.6274642944336,24.831600189208984
0,821824,-30.430397033691406,-27.712448120117188,-95.07959747314453,-10.406915664672852
0,821825,-22.57056427001953,-28.678674697875977,-60.521514892578125,0.41241946816444397
0,821828,17.932958602905273,23.53899383544922,67.1754379272461,0.06105652078986168
0,821829,27.483530044555664,7.336920738220215,-5.4712677001953125,-15.202197074890137
0,821832,-15.019632339477539,-16.318490982055664,-34.89842987060547,-1.2609246969223022
0,821833,-12.826687812805176,10.42287540435791,32.3667106628418,27.576772689819336
0,821836,12.589056015014648,5.936016082763672,14.569500923156738,38.71021270751953
0,821837,-21.867843627929688,-3.6628055572509766,-24.113357543945312,-20.930540084838867
0,821840,1.9885871410369873,-0.8267180919647217,31.673925399780273,-47.13621520996094
0,821841,38.27202224731445,-21.613563537597656,34.4278564453125,-3.3278448581695557
0,821844,-15.434771537780762,16.046875,-65.6530990600586,-12.259417533874512
0,821845,-2.974705934524536,35.26043701171875,-47.188724517822266,-6.746989727020264
0,821848,8.183662414550781,-19.737167358398438,72.5016860961914,51.65232467651367
0,821849,-12.046342849731445,1.1683520078659058,29.80230712890625,7.713813781738281
0,821852,18.40876579284668,-7.807751178741455,-68.17390441894531,-45.44363021850586
0,821853,-9.619837760925293,-45.8839111328125,-2.2732138633728027,13.391475677490234
0,821856,-26.316246032714844,8.836165428161621,23.549190521240234,30.37331771850586
0,821857,-10.770120620727539,28.168947219848633,-35.88639831542969,7.464399814605713
0,821860,16.523649215698242,9.817849159240723,47.95353698730469,-46.875240325927734
0,821861,41.02906036376953,1.5311589241027832,65.76997375488281,-24.53010368347168
0,821864,-35.27153778076172,-8.852151870727539,-83.8967514038086,54.09840393066406
0,821865,-33.48760223388672,-12.340882301330566,-45.478023529052734,19.605457305908203
0,821868,38.730899810791016,6.431491374969482,74.80502319335938,-16.466182708740234
0,821869,19.472232818603516,35.12830352783203,54.53458786010742,-18.490144729614258
0,821872,-8.607417106628418,-1.4066896438598633,-27.905303955078125,-18.79686164855957
0,821873,-27.304025650024414,-51.007747650146484,-70.56925201416016,13.221892356872559
0,821876,-9.110477447509766,-11.1963529586792,-50.331459045410156,-8.045437812805176
0,821877,-0.712464451789856,43.28281021118164,-5.641228199005127,-52.585479736328125
0,821880,17.901081085205078,4.2828755378723145,102.8132095336914,73.09282684326172
0,821881,53.06173324584961,-8.428718566894531,71.15596008300781,76.453125
0,821884,-60.79780578613281,0.6341560482978821,-110.08200073242188,-61.8531494140625
0,821885,-52.93387222290039,-20.71817970275879,-59.586246490478516,-6.0123515129089355
0,821888,83.13860321044922,25.297565460205078,79.16250610351562,-14.7194185256958
0,821889,24.655031204223633,-1.980767846107483,23.452829360961914,-23.55885124206543
0,821892,-15.704262733459473,-11.331966400146484,-22.480276107788086,43.41974639892578
0,821893,3.88105845451355,48.134090423583984,18.17095184326172,-23.214675903320312
0,821896,-20.646100997924805,-18.378093719482422,-14.77608585357666,0.4820098876953125
0,821897,-14.035346984863281,-37.88561248779297,-30.9761962890625,63.73780059814453
0,821900,-1.7609680891036987,-2.8352062702178955,49.60123825073242,-51.89569091796875
0,821901,26.27432632446289,-0.80049729347229,29.935083389282227,-62.7005615234375
0,821904,-5.148975372314453,34.928646087646484,-69.20291137695312,57.31182098388672
0,821905,-36.387298583984375,-7.759235858917236,-40.33743667602539,22.14720344543457
0,821908,5.86130952835083,-34.231201171875,50.24882888793945,-42.505638122558594
0,821909,12.506745338439941,17.85680389404297,16.658111572265625,24.286876678466797
0,821912,17.235536575317383,11.033127784729004,-0.9155240654945374,18.43938446044922
0,821913,-11.37814712524414,-11.845138549804688,22.279766082763672,-69.00196075439453
0,821916,-32.69420623779297,-12.75384521484375,-54.24623489379883,35.80696105957031
0,821918,22.962142944335938,17.43062973022461,-26.744930267333984,73.8576431274414
0,821920,35.9451904296875,-3.7385144233703613,71.73635864257812,-53.270259857177734
0,821922,17.336095809936523,4.397001266479492,43.44638442993164,-20.75690269470215
0,821924,-54.40030288696289,18.908754348754883,-96.732421875,25.210420608520508
0,821926,-44.32625961303711,-31.182924270629883,-76.71186828613281,-10.601863861083984
0,821928,62.29728317260742,11.552010536193848,105.45866394042969,-19.204364776611328
0,821930,30.481796264648438,-5.53631591796875,49.00955581665039,7.816473007202148
0,821931,-44.79896545410156,-28.069578170776367,-75.06661224365234,34.28572082519531
0,821934,-30.461273193359375,24.01107406616211,1.4855773448944092,-15.143465042114258
0,821935,23.20886993408203,15.63338565826416,50.093833923339844,-33.59009552001953
0,821938,-3.45058536529541,-12.40482234954834,-44.03263854980469,30.236919403076172
0,821939,-0.014870073646306992,20.66343879699707,-21.444644927978516,23.203628540039062
0,821942,51.89345169067383,35.344173431396484,65.20330810546875,-68.89006805419922
0,821943,-66.67353820800781,-37.67167282104492,46.65119934082031,-28.31995964050293
0,821947,-43.80812072753906,-33.839683532714844,-70.35054016113281,36.36267852783203
0,821947,137.16598510742188,25.585161209106445,-74.78645324707031,-24.556406021118164
0,821950,18.286745071411133,11.40493392944336,-3.585839033126831,21.199674606323242
0,821951,-67.59246063232422,3.81850004196167,46.88677978515625,70.49662017822266
0,821954,-4.394917011260986,0.622088611125946,134.7776336669922,12.180280685424805
0,821955,-5.826694965362549,-13.116722106933594,-62.759578704833984,-45.48210525512695
0,821958,-5.931387424468994,-9.362018585205078,-111.5051498413086,-26.79265022277832
0,821959,-6.856722354888916,-11.628904342651367,52.31742477416992,31.608474731445312
0,821962,21.10484504699707,2.011455535888672,49.996788024902344,12.420936584472656
0,821963,22.309494018554688,5.479687690734863,-8.29779052734375,-13.4334716796875
0,821966,-39.129642486572266,2.048764944076538,-38.94312286376953,3.9183943271636963
0,821967,-28.784793853759766,7.663321495056152,17.138486862182617,23.59668731689453
0,821970,33.98279571533203,-13.271989822387695,27.612537384033203,17.230907440185547
0,821971,3.904236316680908,-8.124157905578613,6.610602855682373,-19.829811096191406
0,821974,-22.05167007446289,41.34903335571289,-20.093130111694336,-69.62029266357422
0,821975,18.10717010498047,19.955101013183594,-32.57445526123047,-41.133323669433594
0,821978,11.809542655944824,-40.71339797973633,-31.31208038330078,65.90121459960938
0,821979,-22.840354919433594,-30.655553817749023,17.841922760009766,47.61278533935547
0,821982,14.331947326660156,39.71029281616211,74.82830047607422,-89.51029968261719
0,821983,7.629029750823975,28.7528133392334,-19.802181243896484,-34.10844421386719
0,821986,-16.085071563720703,-32.932891845703125,-65.04798889160156,141.13754272460938
0,821987,20.50372314453125,-0.41468483209609985,55.47334289550781,10.82133960723877
0,821990,4.83135461807251,-6.226798057556152,28.78299331665039,-56.251564025878906
0,821991,-26.1351375579834,-25.756608963012695,-79.69700622558594,65.63258361816406
0,821994,3.813844680786133,33.09246063232422,44.6835823059082,-53.77252960205078
0,821995,12.236056327819824,8.953227996826172,25.926393508911133,-69.78987884521484
0,821998,-32.64616775512695,-30.141271591186523,-106.25282287597656,19.887805938720703
0,821999,15.62319278717041,17.421537399291992,22.631837844848633,-12.798352241516113
0,822002,26.64247703552246,-2.2718915939331055,91.16287231445312,32.10382843017578
0,822003,-27.80682373046875,-33.291725158691406,-7.008499622344971,41.52816390991211
0,822006,10.580080032348633,37.95783996582031,-53.78662872314453,-11.125386238098145
0,822007,12.104244232177734,20.786922454833984,-12.836734771728516,6.818886756896973
0,822010,-6.688879013061523,-46.960601806640625,42.96858596801758,-22.1368465423584
0,822011,2.0856616497039795,13.286934852600098,5.24915075302124,-61.534080505371094
0,822014,-15.368122100830078,15.566969871520996,-10.782511711120605,15.162917137145996
0,822015,-8.097500801086426,-76.84191131591797,7.459238529205322,59.17790222167969
0,822018,9.979632377624512,37.54645538330078,-52.731197357177734,31.473026275634766
0,822019,-22.525232315063477,142.24693298339844,20.897050857543945,9.120683670043945
0,822022,5.760753154754639,-44.4407844543457,76.65972900390625,-60.932987213134766
0,822023,25.39835548400879,-97.70995330810547,-44.34152603149414,-47.97883224487305
0,822026,-48.17947769165039,0.9478482604026794,-77.0890121459961,115.54341888427734
0,822027,6.7772297859191895,-1.458696961402893,34.260807037353516,49.9877815246582
0,822030,81.54466247558594,30.81675148010254,60.69974899291992,-184.16937255859375
0,822031,74.07942962646484,40.122413635253906,-15.44660758972168,-103.37894439697266
0,822034,-67.17089080810547,-30.61652946472168,6.828233242034912,92.71345520019531
0,822035,-152.02227783203125,-40.470516204833984,-21.615882873535156,112.84587860107422
0,822038,59.686588287353516,9.721485137939453,-60.660499572753906,33.01266098022461
0,822039,93.4003677368164,5.8021721839904785,13.449527740478516,-29.010221481323242
0,822042,-13.689865112304688,-22.711910247802734,60.83457565307617,-13.449027061462402
0,822043,-7.450786590576172,26.863094329833984,33.23517608642578,-23.673810958862305
0,822046,-63.521671295166016,103.74589538574219,-49.7147102355957,-54.37449264526367
0,822047,-37.11597442626953,-18.681442260742188,-33.39513397216797,14.641535758972168
0,822050,37.021644592285156,-113.27996826171875,37.264827728271484,83.23856353759766
0,822051,23.69408416748047,59.23860168457031,30.99160385131836,30.69182777404785
0,822054,38.4016227722168,-1.5868659019470215,-2.442596673965454,-16.707910537719727
0,822055,12.524211883544922,-100.65879821777344,-61.502845764160156,-12.617015838623047
0,822058,-21.969287872314453,79.70824432373047,-39.45612335205078,-123.96182250976562
0,822059,11.362953186035156,60.4722785949707,64.52166748046875,-59.54147720336914
0,822062,30.46875,-82.78050994873047,68.0669937133789,208.6566925048828
0,822063,-12.436973571777344,-18.434707641601562,-15.082429885864258,73.37370300292969
0,822066,-80.64958953857422,63.90822982788086,-82.83901977539062,-203.59149169921875
0,822067,13.758599281311035,63.010005950927734,-12.80349349975586,-100.57794189453125
0,822070,22.15156364440918,-44.738677978515625,65.86299133300781,150.5481414794922
0,822071,-65.10107421875,-84.78099060058594,0.09421533346176147,142.63278198242188
0,822074,41.47059631347656,60.96512222290039,-1.7553541660308838,-62.69289779663086
0,822075,6.79637336730957,34.64728927612305,9.529898643493652,-86.80874633789062
0,822078,-80.80125427246094,-66.49876403808594,-49.568931579589844,4.211581230163574
0,822079,49.26030349731445,-30.160472869873047,13.801839828491211,27.01999855041504
0,822082,103.7969970703125,63.75163650512695,60.35951614379883,-2.104957342147827
0,822083,-41.48728561401367,30.926786422729492,-67.4261703491211,-95.0881576538086
0,822086,-49.687801361083984,-75.66410064697266,-55.13660430908203,-21.645620346069336
0,822087,45.3006706237793,-12.185016632080078,58.50334167480469,100.8827133178711
0,822090,23.29571533203125,21.85838508605957,17.78984260559082,10.231267929077148
0,822091,-7.529308795928955,-7.370173454284668,6.123732089996338,-16.869726181030273
0,822094,-26.737939834594727,12.071879386901855,24.903839111328125,30.827747344970703
0,822095,-7.325491428375244,22.481735229492188,-34.562469482421875,-0.2500799596309662
0,822098,7.055039405822754,33.43907165527344,-49.5354118347168,18.7985897064209
0,822099,-8.662811279296875,-23.627599716186523,8.569650650024414,-0.4512427747249603
0,822102,13.549695014953613,-34.53827667236328,59.92264175415039,-47.86747741699219
0,822103,-11.795806884765625,7.855366230010986,27.673044204711914,32.4598503112793
0,822106,-30.5041561126709,-39.20621871948242,-80.58055877685547,88.94857025146484
0,822107,30.835180282592773,53.36405563354492,3.954375982284546,-71.56558227539062
0,822110,44.89925003051758,63.0476188659668,90.5842056274414,-118.78498840332031
0,822111,1.07245934009552,-79.0925064086914,-37.53514862060547,64.394287109375
0,822114,-46.201210021972656,-38.89214324951172,-23.879093170166016,20.020816802978516
0,822115,-59.52098846435547,72.00262451171875,-3.030324935913086,-63.502525329589844
0,822118,27.349468231201172,126.7142333984375,-30.76348876953125,20.98576545715332
0,822120,87.80709838867188,-57.70378494262695,39.17879867553711,71.12889862060547
0,822122,1.198671579360962,-165.3242645263672,25.297887802124023,-42.469337463378906
0,822124,-88.43731689453125,-22.479774475097656,-47.91263198852539,-40.6187744140625
0,822126,-6.6194939613342285,48.151390075683594,-54.560791015625,66.78091430664062
0,822129,63.07953643798828,44.737709045410156,51.99338912963867,-1.6839886903762817
0,822130,-15.543362617492676,-2.548992872238159,69.79095458984375,-29.535581588745117
0,822131,-7.027258396148682,5.728233337402344,-46.894039154052734,7.321870803833008
0,822134,5.047173023223877,-32.911293029785156,-36.02073669433594,36.822940826416016
0,822135,-32.2182731628418,-57.67300033569336,16.32154083251953,29.352876663208008
0,822138,24.446392059326172,156.97317504882812,23.239646911621094,-51.921234130859375
0,822139,18.553016662597656,110.95230102539062,24.655305862426758,-32.879520416259766
0,822142,-18.394899368286133,-189.7483367919922,-2.6461167335510254,23.484220504760742
0,822143,12.217899322509766,-75.52425384521484,-26.247608184814453,-10.408400535583496
0,822146,-9.523711204528809,94.74703979492188,-17.320524215698242,-8.405648231506348
0,822147,-32.18851852416992,3.7852628231048584,-1.680528163909912,1.521451711654663
0,822150,2.3821544647216797,73.1573715209961,8.052550315856934,17.50690269470215
0,822151,65.85112762451172,62.05463790893555,23.96585464477539,48.925132751464844
0,822154,-27.207733154296875,-171.82894897460938,3.0403544902801514,13.217219352722168
0,822155,-121.53961181640625,-123.58124542236328,-27.00911521911621,-61.6458854675293
0,822158,97.59333801269531,44.8694953918457,-42.37487030029297,-49.45066452026367
0,822159,141.63204956054688,66.02669525146484,3.4496591091156006,-93.65621185302734
0,822162,-46.5704231262207,58.00621795654297,100.90296936035156,60.14877700805664
0,822163,7.0574493408203125,45.33541488647461,53.92123794555664,214.61827087402344
0,822166,-24.752729415893555,-3.267745018005371,-72.56157684326172,-79.1432113647461
0,822167,-145.64280700683594,-71.65470886230469,-84.67648315429688,-59.51386642456055
0,822170,51.618309020996094,-13.102771759033203,-10.231541633605957,94.14720916748047
0,822171,47.07758712768555,27.844669342041016,22.680328369140625,-16.280651092529297
0,822174,-55.53618621826172,-15.23674488067627,47.55392837524414,-69.6872329711914
0,822175,70.04658508300781,25.271318435668945,52.94441604614258,-30.06291389465332
0,822178,-18.26993751525879,21.788776397705078,-56.56101608276367,-5.736389636993408
0,822179,-62.561946868896484,-27.37775230407715,-35.963348388671875,57.368743896484375
0,822182,21.27885627746582,-21.998001098632812,47.42127227783203,-8.743346214294434
0,822183,-3.3158071041107178,-42.538482666015625,-46.68019104003906,-153.98663330078125
0,822186,-24.339120864868164,-10.906145095825195,-56.880977630615234,124.36370086669922
0,822187,21.49017333984375,25.17426300048828,78.3105239868164,151.34339904785156
0,822190,101.28385925292969,81.28941345214844,95.67524719238281,-132.8375244140625
0,822191,56.512142181396484,121.37997436523438,-14.746219635009766,-82.88549041748047
0,822194,-77.64804077148438,-100.46251678466797,-68.16624450683594,24.121318817138672
0,822195,-82.9640884399414,-110.02007293701172,-41.24153137207031,27.842073440551758
0,822198,33.03178024291992,72.92375946044922,-18.150279998779297,49.992156982421875
0,822199,52.33485412597656,-15.834338188171387,24.27781867980957,78.04615783691406
0,822202,-64.01631927490234,-33.12677764892578,42.72609329223633,-59.327247619628906
0,822203,-72.71142578125,3.0129470825195312,-2.2709543704986572,-94.08515167236328
0,822206,68.1880874633789,-29.81963539123535,-15.240830421447754,67.61278533935547
0,822207,92.73748779296875,27.6318416595459,11.085671424865723,24.83983612060547
0,822210,-60.316925048828125,35.32217788696289,-28.008005142211914,-124.3194808959961
0,822211,-58.00676345825195,11.641561508178711,-0.016192276030778885,-29.401872634887695
0,822214,78.5611343383789,67.140380859375,79.47471618652344,146.15017700195312
0,822215,14.995640754699707,-64.35823059082031,-39.631988525390625,35.210533142089844
0,822218,-90.80780792236328,-136.66151428222656,-76.60327911376953,-42.104042053222656
0,822219,-41.84552001953125,50.32048797607422,61.862281799316406,3.746485710144043
0,822222,47.663414001464844,76.56108093261719,46.698448181152344,-19.041183471679688
0,822223,49.17449188232422,-19.01683235168457,-35.19340896606445,30.994470596313477
0,822226,164.69969177246094,21.610265731811523,-27.381038665771484,-26.224023818969727
0,822227,-0.5523435473442078,116.51848602294922,-2.4459786415100098,-110.28108978271484
0,822230,-246.92868041992188,-68.66681671142578,21.020456314086914,43.55147933959961
0,822231,-25.277198791503906,-154.3576202392578,-0.4904649555683136,126.2408447265625
0,822234,17.6625919342041,43.93865203857422,6.086328029632568,-2.7475430965423584
0,822235,62.165096282958984,54.32974624633789,-5.073663711547852,-110.915283203125
0,822238,13.388039588928223,-17.710195541381836,-60.608497619628906,-63.87291717529297
0,822239,-94.74063110351562,6.80551815032959,42.85447311401367,114.57042694091797
0,822242,137.5666046142578,28.6127872467041,87.82545471191406,82.98188781738281
0,822243,81.81962585449219,-30.139333724975586,-64.02950286865234,-111.35480499267578
0,822246,-104.16510772705078,-3.614598274230957,-77.62602233886719,29.347251892089844
0,822247,20.271230697631836,69.82838439941406,67.14262390136719,88.8112564086914
0,822250,-17.688533782958984,-58.7330207824707,35.87931442260742,-99.25643920898438
0,822251,-100.83978271484375,-97.40437316894531,-37.9461669921875,-27.7615966796875
0,822254,79.29429626464844,69.0650863647461,13.439397811889648,13.964837074279785
0,822255,19.64227294921875,57.802303314208984,-12.033159255981445,-39.827545166015625
0,822258,-22.273208618164062,-25.97734832763672,-45.28334045410156,26.1922550201416
0,822259,85.66809844970703,32.100257873535156,6.5109333992004395,54.40066146850586
0,822262,-30.658288955688477,24.155202865600586,62.501953125,-58.32646560668945
0,822263,-81.26763153076172,-62.35749435424805,16.98642921447754,-57.73606872558594
0,822266,-33.340118408203125,-47.11128616333008,-91.82211303710938,122.55265045166016
0,822267,-5.680611610412598,-17.953773498535156,-25.821195602416992,47.674163818359375
0,822270,25.207630157470703,2.9176909923553467,72.87718963623047,-115.99613952636719
0,822271,33.729835510253906,84.37600708007812,55.863807678222656,7.223682403564453
0,822274,85.43220520019531,29.018985748291016,15.723071098327637,67.07469940185547
0,822275,10.804434776306152,-86.02689361572266,-62.05550003051758,-10.63879680633545
0,822278,-98.52239990234375,13.002948760986328,-77.81007385253906,-77.52167510986328
0,822279,4.343602180480957,72.01043701171875,31.1381778717041,-11.209610939025879
0,822282,31.508481979370117,-42.57658004760742,73.1246109008789,170.30587768554688
0,822283,-34.58474349975586,-0.5134011507034302,93.9098129272461,96.70629119873047
0,822286,-24.195688247680664,37.45649719238281,-43.70305633544922,-193.16246032714844
0,822287,24.092775344848633,-93.43041229248047,-215.2259063720703,-265.0910339355469
0,822290,35.382083892822266,-18.691104888916016,60.22267532348633,234.10748291015625
0,822291,-12.517553329467773,96.40969848632812,121.37041473388672,192.73716735839844
0,822294,9.695969581604004,-1.0570193529129028,-53.30205154418945,-271.53759765625
0,822295,-8.549811363220215,-41.089439392089844,-37.90873718261719,-41.527626037597656
0,822298,-7.0940728187561035,1.3878676891326904,1.4684876203536987,129.6395721435547
0,822299,47.76607894897461,7.991312026977539,86.08168029785156,132.8954315185547
0,822302,-43.21963882446289,-13.627354621887207,15.318285942077637,26.01880645751953
0,822303,-54.91521453857422,39.13075256347656,-83.48406219482422,-200.82737731933594
0,822306,0.24145935475826263,15.703343391418457,-45.62395095825195,-86.93346405029297
0,822307,-15.441240310668945,-37.748844146728516,33.641075134277344,131.61993408203125
0,822310,77.22888946533203,11.22363567352295,65.04224395751953,94.01798248291016
0,822311,52.53136444091797,-5.499472141265869,18.93766975402832,-120.69094848632812
0,822314,35.861209869384766,31.959753036499023,-10.628015518188477,-177.28526306152344
0,822315,-5.89742374420166,38.899757385253906,-67.20942687988281,72.58709716796875
0,822318,-216.20741271972656,-54.684078216552734,-34.22267150878906,201.04551696777344
0,822319,-32.44072723388672,-88.25157165527344,80.71195983886719,54.5850830078125
0,822325,131.61026000976562,-74.28860473632812,-29.342403411865234,33.39501953125
0,822325,9.895505905151367,-8.636004447937012,-85.93548583984375,36.645545959472656
0,822326,-41.26332473754883,89.78209686279297,71.82080841064453,-148.79823303222656
0,822328,90.1615982055664,135.07260131835938,62.534446716308594,-196.78286743164062
0,822330,66.21321105957031,39.321319580078125,-28.002832412719727,39.1441650390625
0,822332,-87.4539794921875,-91.63452911376953,2.046243190765381,211.90187072753906
0,822334,-2.5292768478393555,-85.37000274658203,29.434120178222656,12.357019424438477
0,822336,-48.566104888916016,24.469985961914062,-24.015682220458984,-160.33656311035156
0,822338,53.59972381591797,73.96717834472656,-36.884029388427734,25.047094345092773
0,822340,154.98159790039062,3.7554562091827393,56.791873931884766,118.16484832763672
0,822342,-168.55288696289062,2.605074882507324,29.62354850769043,-95.6105728149414
0,822344,-179.5589141845703,-23.05803871154785,-96.78308868408203,-168.45748901367188
0,822346,104.68590545654297,-45.46805953979492,-33.02701187133789,-2.253676176071167
0,822348,82.31303405761719,17.56144905090332,66.14786529541016,74.05963134765625
0,822350,-16.480361938476562,7.096806526184082,28.65015411376953,110.49055480957031
0,822352,-12.99548625946045,-1.0663286447525024,-18.078754425048828,77.68180084228516
0,822354,9.615767478942871,-4.889592170715332,17.357181549072266,62.54077911376953
0,822356,36.81277084350586,11.368769645690918,1.4182753562927246,22.363550186157227
0,822358,-29.165538787841797,-12.854674339294434,-120.6650619506836,-214.9974365234375
0,822360,-31.74006462097168,-7.887810230255127,-1.0949275493621826,-93.63655853271484
0,822362,52.334136962890625,64.33403015136719,124.58032989501953,191.31320190429688
0,822364,18.66754150390625,-5.068336486816406,-13.904495239257812,-41.489437103271484
0,822366,-45.909542083740234,-22.09805679321289,-14.036303520202637,-109.88924407958984
0,822368,-48.67963409423828,-35.00735855102539,-4.065187454223633,113.4560546875
0,822370,39.30985641479492,-46.9687385559082,-24.191936492919922,33.09771728515625
0,822372,84.41755676269531,42.18855285644531,36.61968231201172,-0.6202236413955688
0,822374,-27.369306564331055,29.601295471191406,28.662412643432617,7.734255313873291
0,822376,-62.97307205200195,3.590583562850952,-12.98282241821289,-88.0546875
0,822378,-45.96625518798828,-42.854976654052734,27.973854064941406,34.73199462890625
0,822380,44.00835418701172,5.234336853027344,39.82209777832031,49.75331497192383
0,822382,99.25547790527344,71.04844665527344,-121.1195068359375,-152.5082244873047
0,822384,-67.97530364990234,-29.77291488647461,-102.50680541992188,-47.63785171508789
0,822386,-67.21404266357422,-29.908374786376953,77.36798095703125,138.5304718017578
0,822388,32.956207275390625,-19.980058670043945,54.68447494506836,34.18040084838867
0,822390,45.72246551513672,-26.126758575439453,2.9242613315582275,61.20382308959961
0,822392,17.12172508239746,48.45564270019531,4.6864333152771,64.02165985107422
0,822394,-41.106754302978516,86.93317413330078,-28.652042388916016,-202.47576904296875
0,822396,-24.3455810546875,-1.8642691373825073,-11.320708274841309,-49.269126892089844
0,822398,-9.349273681640625,-146.5804443359375,-16.37468910217285,148.25103759765625
0,822400,91.58160400390625,9.344884872436523,62.36393356323242,42.91587829589844
0,822402,60.45219802856445,192.8673095703125,68.67776489257812,-141.25856018066406
0,822404,-117.12350463867188,-21.557470321655273,-107.88407897949219,-199.05369567871094
0,822406,-12.354589462280273,-166.92236328125,-26.180723190307617,136.01976013183594
0,822408,36.27534484863281,-23.23255729675293,60.304725646972656,242.7728729248047
0,822410,-32.0085334777832,54.139076232910156,-51.509796142578125,37.563812255859375
0,822412,-12.350199699401855,28.4958438873291,-37.16140365600586,-92.58573150634766
0,822414,-76.03184509277344,24.203149795532227,84.43890380859375,-38.869972229003906
0,822416,14.22166633605957,52.99456024169922,26.524614334106445,-20.956077575683594
0,822418,204.1464080810547,-23.39451789855957,-75.67821502685547,-51.29294967651367
0,822420,80.92017364501953,-105.8957290649414,53.75209045410156,56.31021499633789
0,822422,-167.28932189941406,-55.817649841308594,51.44339370727539,-112.16899871826172
0,822424,-180.6879119873047,36.16413116455078,-67.4781265258789,-32.878082275390625
0,822426,18.7320556640625,85.71913146972656,-44.01033401489258,213.70643615722656
0,822428,120.92265319824219,16.886228561401367,36.368797302246094,-7.500884532928467
0,822430,51.96839141845703,-7.5726847648620605,53.26632308959961,-15.18490982055664
0,822432,-11.729019165039062,-4.59282922744751,-3.1411333084106445,-103.1469955444336
0,822434,-29.794132232666016,-33.397708892822266,-34.76972961425781,-137.24937438964844
0,822436,-45.252174377441406,-37.466590881347656,-73.0617446899414,192.84915161132812
0,822438,-17.897329330444336,53.9424934387207,21.968751907348633,123.32976531982422
0,822440,90.30029296875,79.25314331054688,108.23930358886719,-70.56715393066406
0,822442,34.656822204589844,-55.27308654785156,-20.052635192871094,-47.95487594604492
0,822444,-63.39476776123047,-28.16519546508789,-81.6454849243164,-26.549293518066406
0,822446,-9.89635181427002,38.06246566772461,16.955568313598633,10.529653549194336
0,822448,5.560308933258057,-39.2899055480957,53.22208023071289,-3.0925796031951904
0,822450,22.41483497619629,-22.665348052978516,-15.775973320007324,-35.94804382324219
0,822452,-1.6268266439437866,5.499860763549805,-15.831459999084473,13.20975399017334
0,822454,-23.627674102783203,-37.30558395385742,-1.7213222980499268,-6.957629680633545
0,822456,-3.5155506134033203,2.2397258281707764,-47.31951141357422,-56.87483215332031
0,822458,-65.76493835449219,43.98435592651367,-21.297874450683594,37.850318908691406
0,822460,38.57728958129883,34.888301849365234,91.7150650024414,103.8343505859375
0,822462,88.70709991455078,6.2204670906066895,38.80204391479492,-45.40324783325195
0,822464,-80.9969711303711,-15.767443656921387,-85.82315826416016,-8.071412086486816
0,822466,-0.300902396440506,-11.134754180908203,-0.19584593176841736,71.70975494384766
0,822468,74.78559875488281,-0.8453241586685181,44.76725387573242,-64.84309387207031
0,822470,-6.872884273529053,9.69803524017334,14.356385231018066,1.4359862804412842
0,822472,4.227355003356934,-15.392623901367188,-0.9080988764762878,56.35166931152344
0,822473,-25.712434768676758,-31.088747024536133,-75.78591918945312,-106.11730194091797
0,822476,-51.41996765136719,26.10322380065918,-49.709861755371094,-94.89441680908203
0,822477,-4.806012153625488,30.981142044067383,80.73397064208984,120.5993423461914
0,822480,41.52743148803711,-42.87358856201172,87.56703186035156,43.18708419799805
0,822481,38.1833381652832,-13.180875778198242,-14.9718599319458,-19.336000442504883
0,822484,-35.92619323730469,45.209041595458984,-72.9032211303711,64.56260681152344
0,822485,-26.7559871673584,-9.0313138961792,-28.65085220336914,-81.24446105957031
0,822488,48.74769592285156,4.617619037628174,43.88312911987305,-33.8619384765625
0,822489,-21.528993606567383,46.37678527832031,8.68382453918457,55.89556121826172
0,822492,-23.33241844177246,-10.91163444519043,-12.102240562438965,0.6543287038803101
0,822493,81.71115112304688,-47.08024978637695,15.600432395935059,20.4788818359375
0,822496,-30.53922462463379,-2.4403860569000244,-20.747478485107422,2.864962577819824
0,822497,-85.99498748779297,7.257810592651367,-50.8842887878418,-96.450439453125
0,822500,7.22905969619751,-39.96221160888672,20.4011287689209,-63.79251480102539
0,822501,29.719329833984375,-4.823736667633057,71.60972595214844,48.14591979980469
0,822504,35.48173141479492,28.73322105407715,-25.849197387695312,129.55836486816406
0,822505,-15.5884428024292,0.8220157623291016,-36.69183349609375,104.88048553466797
0,822510,-7.484127521514893,19.341196060180664,15.148008346557617,-104.80396270751953
0,822510,5.448167324066162,3.5287857055664062,8.668079376220703,-109.93576049804688
0,822512,-19.246788024902344,7.153984069824219,50.62687301635742,43.73020553588867
0,822513,13.671486854553223,33.80970001220703,9.541141510009766,35.412391662597656
0,822516,-1.3490415811538696,-75.65018463134766,-88.19264221191406,-50.58203125
0,822517,-63.26213836669922,-38.72438049316406,-55.9338264465332,-165.6262664794922
0,822520,45.455753326416016,79.5833511352539,115.2907485961914,97.67040252685547
0,822521,140.4573516845703,18.056011199951172,89.751220703125,303.2356262207031
0,822524,-86.30897521972656,-6.877876281738281,-139.74563598632812,-216.27481079101562
0,822525,-98.42765808105469,-12.920135498046875,-65.80207061767578,-225.4468231201172
0,822528,46.881710052490234,-49.78176498413086,68.91320037841797,207.5106658935547
0,822529,33.04279708862305,13.547974586486816,26.521137237548828,96.41302490234375
0,822532,39.405250549316406,57.718650817871094,18.36115837097168,-15.308841705322266
0,822533,-47.880802154541016,-7.057209491729736,-11.859695434570312,-11.13204574584961
0,822536,-47.56228256225586,-47.54145812988281,-60.9162712097168,-65.63954162597656
0,822537,37.38877868652344,-28.35027503967285,-64.08141326904297,-77.16214752197266
0,822540,4.04901647567749,22.51158332824707,101.56668853759766,-70.57859802246094
0,822541,2.7131166458129883,72.5803451538086,149.70831298828125,219.12078857421875
0,822544,13.75482177734375,23.457904815673828,-102.06256103515625,234.52210998535156
0,822545,8.070632934570312,-68.32736206054688,-98.41439056396484,-188.96022033691406
0,822548,-19.32476806640625,-37.525814056396484,38.003334045410156,-194.5098419189453
0,822549,-16.76993751525879,27.230810165405273,22.667146682739258,-8.382901191711426
0,822552,17.834835052490234,1.6945527791976929,35.31425476074219,83.54946899414062
0,822553,5.18187141418457,-16.54584312438965,-39.58380889892578,62.12248229980469
0,822556,9.964964866638184,17.322622299194336,-49.91871643066406,6.658840179443359
0,822557,-20.440526962280273,-0.40241149067878723,3.2549080848693848,6.261988639831543
0,822560,-10.796606063842773,-26.809598922729492,20.12883949279785,-46.186126708984375
0,822561,39.830543518066406,45.475242614746094,88.28511810302734,-5.062453269958496
0,822564,-39.36968231201172,26.41027069091797,-35.97506332397461,11.467639923095703
0,822565,-37.527713775634766,-53.58907699584961,-76.73109436035156,-37.43440628051758
0,822568,62.936763763427734,10.742162704467773,64.0838623046875,-19.806013107299805
0,822569,14.743781089782715,26.800188064575195,61.216102600097656,21.579378128051758
0,822572,-27.85951042175293,-26.747587203979492,-17.951705932617188,-7.967785835266113
0,822573,-4.904748439788818,-9.57191276550293,-44.96292495727539,-31.973363876342773
0,822576,-4.911103248596191,12.521974563598633,-10.137313842773438,64.12956237792969
0,822577,5.172298908233643,16.331409454345703,-34.320865631103516,65.20303344726562
0,822580,18.628639221191406,13.228759765625,56.1175651550293,-49.22304153442383
0,822581,6.121776580810547,-16.982378005981445,55.20539855957031,-73.50025177001953
0,822584,-39.80385208129883,-42.12129592895508,-131.25149536132812,3.3926286697387695
0,822585,-23.17343521118164,-29.38481330871582,-28.183006286621094,74.01710510253906
0,822588,42.391822814941406,63.624202728271484,80.15650177001953,37.930110931396484
0,822589,33.14594268798828,62.03533172607422,27.927579879760742,-34.89024353027344
0,822592,-27.364736557006836,-69.59293365478516,-5.163842678070068,-66.98394012451172
0,822593,-33.31658172607422,-27.689306259155273,-15.443116188049316,19.855026245117188
0,822596,2.3724491596221924,17.172330856323242,-26.603412628173828,40.909183502197266
0,822597,16.009395599365234,37.86884307861328,-11.119047164916992,-32.35683822631836
0,822600,56.82158660888672,58.488643646240234,87.17884063720703,80.03679656982422
0,822601,9.732680320739746,-58.446258544921875,33.00168228149414,11.109524726867676
0,822604,-76.84385681152344,-48.55451583862305,-118.1038589477539,-118.45907592773438
0,822605,-23.674285888671875,1.235369086265564,-67.229248046875,-19.566892623901367
0,822608,22.109493255615234,-5.9445390701293945,57.56375503540039,-63.16901397705078
0,822609,25.08379554748535,38.675537109375,78.32911682128906,-18.391578674316406
0,822612,-7.4579596519470215,-38.88609313964844,-4.039292335510254,188.00833129882812
0,822613,-7.481234073638916,-47.64739990234375,-51.252540588378906,104.48287200927734
0,822616,25.683624267578125,91.4164810180664,15.048705101013184,-95.88835144042969
0,822617,-32.12982940673828,15.598468780517578,-14.963714599609375,-58.04856491088867
0,822620,17.46640396118164,-61.928646087646484,30.403717041015625,30.8450984954834
0,822621,62.16889572143555,17.981449127197266,71.65169525146484,28.782562255859375
0,822624,-53.7010498046875,36.26749801635742,-107.5835189819336,-36.326900482177734
0,822625,-46.742897033691406,-7.774242401123047,-52.88439178466797,-56.24696350097656
0,822628,32.87303924560547,-16.257287979125977,94.8802490234375,7.718005657196045
0,822629,19.580739974975586,8.649808883666992,19.05320930480957,30.764673233032227
0,822632,-22.221662521362305,-0.4716554582118988,-32.17718505859375,12.536645889282227
0,822633,-31.49714469909668,-9.785654067993164,-9.18174934387207,-49.97760009765625
0,822636,9.869424819946289,0.976830005645752,-7.328212261199951,-46.77268981933594
0,822637,29.631547927856445,14.921188354492188,-5.676509857177734,64.48955535888672
0,822640,18.940210342407227,11.666812896728516,27.841590881347656,65.3014144897461
0,822641,-6.941019535064697,-20.215417861938477,21.497196197509766,-37.455448150634766
0,822644,-36.995643615722656,-15.729077339172363,-49.356239318847656,-44.496604919433594
0,822645,12.496968269348145,25.44738006591797,-32.083683013916016,14.090404510498047
0,822648,50.60340118408203,-0.7779975533485413,49.41547393798828,58.54098129272461
0,822649,-12.922890663146973,-30.131061553955078,37.157100677490234,-0.34641870856285095
0,822652,-35.725860595703125,1.6402961015701294,-17.97856330871582,-57.902870178222656
0,822653,5.806589603424072,10.396668434143066,-16.348276138305664,23.67095184326172
0,822656,-7.459235191345215,-1.420801043510437,-17.304462432861328,5.700845718383789
0,822657,-16.29413414001465,14.412511825561523,-26.123315811157227,-58.16715621948242
0,822660,43.670589447021484,12.298017501831055,83.89464569091797,33.294517517089844
0,822661,36.22835159301758,-24.1123046875,73.72551727294922,75.08283233642578
0,822664,-38.77827453613281,-6.43295431137085,-135.48867797851562,-56.30165481567383
0,822665,-33.39010238647461,24.724149703979492,-81.08600616455078,-42.50893783569336
0,822668,4.37177038192749,-18.755281448364258,86.08683776855469,47.0082893371582
0,822669,14.329931259155273,-50.57984924316406,6.814218521118164,-44.42830276489258
0,822672,21.36930274963379,23.17524528503418,5.080621242523193,8.2162446975708
0,822673,4.798361301422119,67.75873565673828,47.674190521240234,54.464088439941406
0,822676,-48.55384826660156,-10.400674819946289,-66.6613998413086,38.119178771972656
0,822677,-21.626483917236328,-18.514150619506836,-39.02486801147461,4.176225185394287
0,822680,70.50657653808594,36.030479431152344,119.62791442871094,-117.76432037353516
0,822681,13.378762245178223,-16.87945556640625,52.29564666748047,14.929143905639648
0,822684,-82.8129653930664,-52.67561340332031,-180.88784790039062,6.76766300201416
0,822685,-5.684059143066406,11.024051666259766,-29.032691955566406,-36.9472541809082
0,822688,81.78317260742188,10.078316688537598,163.22740173339844,83.49424743652344
0,822689,17.998592376708984,-7.571073532104492,-18.89823341369629,-36.78227233886719
0,822692,-38.57388687133789,13.85173511505127,-33.30961608886719,-8.099123001098633
0,822693,0.14849460124969482,-16.668054580688477,21.898681640625,79.14165496826172
0,822696,-31.58995246887207,-12.616409301757812,-71.6415786743164,-35.992897033691406
0,822697,-41.670326232910156,23.009313583374023,-48.820648193359375,-26.94696044921875
0,822700,89.36286163330078,38.1617546081543,92.69953155517578,25.923826217651367
0,822701,26.541410446166992,-14.834878921508789,79.60578155517578,-39.44417190551758
0,822704,-78.68700408935547,-25.64238929748535,-79.3272476196289,6.428500175476074
0,822705,9.816322326660156,43.8589973449707,-63.52434158325195,81.84095764160156
0,822708,14.303488731384277,5.32442045211792,53.599151611328125,-41.88206481933594
0,822710,-10.491331100463867,-50.06814956665039,6.279699802398682,-71.70460510253906
0,822711,4.241278648376465,-13.972247123718262,-48.97130584716797,-51.24458694458008
0,822714,4.443779945373535,28.842695236206055,38.853431701660156,44.34247970581055
0,822715,-3.4913549423217773,-0.3445342779159546,17.96167755126953,150.90223693847656
0,822718,-13.777247428894043,-34.92461013793945,-72.94441223144531,-50.26606369018555
0,822719,42.55723190307617,-8.115286827087402,25.014135360717773,-81.1256332397461
0,822722,34.512508392333984,46.487884521484375,100.27787780761719,20.652362823486328
0,822723,-52.34672546386719,11.103198051452637,-24.93359375,15.789429664611816
0,822726,-51.20104217529297,-47.53081130981445,-80.20738983154297,31.254606246948242
0,822727,-4.2676167488098145,-9.569454193115234,20.232093811035156,24.054975509643555
0,822730,42.65142059326172,67.13505554199219,86.118896484375,-28.119096755981445
0,822731,37.96385955810547,34.824974060058594,0.3961743414402008,-70.45301055908203
0,822734,-2.1033806800842285,-65.64005279541016,-77.56586456298828,18.523223876953125
0,822735,-19.783475875854492,-15.709784507751465,-14.919563293457031,28.38311195373535
0,822738,-32.64570999145508,19.44139862060547,-16.288339614868164,-40.205074310302734
0,822739,9.730853080749512,-11.962163925170898,15.568033218383789,9.15378189086914
0,822742,39.50187301635742,-8.241470336914062,62.54621887207031,40.24317169189453
0,822743,-25.040246963500977,-9.953354835510254,-38.85887145996094,-4.874795436859131
0,822746,-38.40378952026367,14.101053237915039,-40.87107467651367,4.246575832366943
0,822747,38.821510314941406,37.66779708862305,53.8923454284668,27.836563110351562
0,822750,28.019681930541992,9.314098358154297,37.11863708496094,-33.43358612060547
0,822751,-21.566757202148438,-22.142902374267578,-45.417991638183594,-53.618045806884766
0,822754,-3.337973117828369,-13.696344375610352,9.822721481323242,33.591644287109375
0,822755,-18.47835350036621,-0.5995932817459106,13.480767250061035,46.470375061035156
0,822758,-21.11225700378418,3.0457069873809814,-66.32662963867188,-33.751708984375
0,822759,43.31604766845703,8.93211555480957,50.19953536987305,-27.141489028930664
0,822762,31.037715911865234,3.409695863723755,58.80074691772461,18.084917068481445
0,822763,-24.797643661499023,-18.736278533935547,-73.93062591552734,22.167861938476562
0,822766,-18.525068283081055,4.488556861877441,-15.034662246704102,-12.447619438171387
0,822767,2.1683273315429688,14.617522239685059,47.5967903137207,-48.58641052246094
0,822770,23.84624481201172,-25.7595272064209,-41.350189208984375,25.240591049194336
0,822771,-9.758871078491211,2.3891568183898926,-40.27835464477539,33.389156341552734
0,822774,-33.118324279785156,1.7863423824310303,29.205198287963867,15.717203140258789
0,822775,3.331836223602295,-16.303611755371094,19.41437339782715,48.30306625366211
0,822778,-5.331365585327148,20.64669418334961,3.265174150466919,-76.97492218017578
0,822779,22.53313446044922,-8.360967636108398,29.187503814697266,-76.8679428100586
0,822782,18.239221572875977,-11.129410743713379,19.193822860717773,59.21883773803711
0,822783,-23.86897850036621,29.52041244506836,-52.776641845703125,54.78492736816406
0,822786,19.577402114868164,3.8589155673980713,-48.50419616699219,10.408648490905762
0,822787,3.134976625442505,-21.510900497436523,27.38326644897461,-48.489681243896484
0,822790,-25.740827560424805,-0.966223955154419,43.519065856933594,-38.561561584472656
0,822791,1.768905520439148,37.01387405395508,18.432497024536133,34.84236526489258
0,822794,25.232646942138672,6.89799165725708,32.897342681884766,10.216647148132324
0,822795,15.284276008605957,-33.57283401489258,-22.20366859436035,-19.149765014648438
0,822798,-48.599369049072266,22.18659019470215,-87.63732147216797,23.327146530151367
0,822799,-9.455897331237793,-4.912247657775879,29.851360321044922,14.383889198303223
0,822802,43.711910247802734,-28.66223907470703,67.17613983154297,-57.55451202392578
0,822803,-23.87148666381836,9.245344161987305,-46.617897033691406,1.1077760457992554
0,822806,-34.623077392578125,-6.4937896728515625,-49.56949996948242,56.21957015991211
0,822807,21.230161666870117,4.510168552398682,15.224332809448242,-16.87281036376953
0,822810,34.553768157958984,9.832720756530762,38.939449310302734,-3.9890873432159424
0,822811,-2.6011435985565186,-0.8802670240402222,5.798064231872559,23.177431106567383
0,822814,-2.289522409439087,-11.342312812805176,8.485990524291992,-27.432966232299805
0,822815,5.890783786773682,-7.891497611999512,-28.903554916381836,-21.196731567382812
0,822818,-46.61758804321289,17.006813049316406,-77.17243194580078,40.84036636352539
0,822819,4.148934364318848,10.904112815856934,60.94681930541992,2.658052682876587
0,822822,55.165184020996094,-9.82015323638916,96.61509704589844,-41.8335075378418
0,822823,-22.425216674804688,9.045658111572266,-63.227577209472656,5.724482536315918
0,822826,-21.103961944580078,14.284754753112793,-55.50664520263672,27.11928367614746
0,822827,19.562856674194336,-11.280994415283203,60.99956512451172,-3.6864047050476074
0,822830,-10.641481399536133,-13.619548797607422,25.35704803466797,-31.1304874420166
0,822831,-3.9833645820617676,-11.866944313049316,-55.89043045043945,6.031877517700195
0,822834,21.440357208251953,-10.232430458068848,-5.365485191345215,41.67068862915039
0,822835,-11.500999450683594,9.102420806884766,30.945531845092773,9.216352462768555
0,822838,-8.280274391174316,12.26589298248291,-43.10975646972656,-30.135616302490234
0,822839,21.16719627380371,16.534122467041016,36.16539764404297,-16.500484466552734
0,822842,-10.552788734436035,-10.373258590698242,51.38716125488281,3.773937940597534
0,822843,-14.601505279541016,-28.170608520507812,-87.98066711425781,-0.48341554403305054
0,822846,-5.5367207527160645,23.302906036376953,-19.193479537963867,-0.9003955721855164
0,822847,5.0761399269104,20.489015579223633,70.60305786132812,14.048921585083008
0,822850,37.53926467895508,-2.903294801712036,20.952999114990234,20.1151123046875
0,822851,-10.17837142944336,-31.864391326904297,-27.69939422607422,-5.073527812957764
0,822854,-4.744497299194336,-16.858741760253906,4.961043834686279,-37.506141662597656
0,822855,4.711462020874023,47.20745849609375,-9.569441795349121,-23.05925178527832
0,822858,-35.22939682006836,25.416868209838867,-49.00407409667969,21.30788803100586
0,822859,31.383995056152344,-11.68490982055664,59.26200866699219,16.02699089050293
0,822862,17.500988006591797,-31.5020809173584,41.7995719909668,43.761226654052734
0,822863,-47.56711959838867,-9.601653099060059,-94.97306060791016,30.91327667236328
0,822866,-7.87336540222168,1.593537449836731,-52.702186584472656,-65.13099670410156
0,822867,27.530359268188477,-41.771087646484375,45.4144172668457,-30.88384437561035
0,822870,-1.2608375549316406,26.26630973815918,63.10698318481445,25.181066513061523
0,822871,-10.829997062683105,46.829280853271484,16.82417106628418,-12.673274993896484
0,822874,35.400360107421875,-11.055963516235352,-11.253172874450684,14.88125228881836
0,822875,-7.47220516204834,4.488087177276611,-28.019981384277344,38.333984375
0,822878,-42.69245910644531,-12.237833976745605,-50.79320526123047,-41.91619110107422
0,822879,44.20586013793945,-10.700238227844238,73.17887878417969,-34.98493576049805
0,822882,20.94479751586914,8.160698890686035,41.653316497802734,56.80880355834961
0,822883,-53.34128952026367,2.9059364795684814,-108.18931579589844,22.972457885742188
0,822886,-6.434483051300049,-8.786073684692383,8.488933563232422,-76.6038818359375
0,822887,15.900934219360352,-22.8188533782959,44.753074645996094,-27.045621871948242
0,822890,15.452535629272461,34.580997467041016,3.8561558723449707,50.53740310668945
0,822891,0.9982222318649292,35.528385162353516,13.038334846496582,23.06740951538086
0,822894,-23.368968963623047,-42.26234436035156,-12.77324390411377,37.33375549316406
0,822895,-10.819548606872559,-3.4189236164093018,-27.31378746032715,-46.81694793701172
0,822898,0.8978478908538818,-0.07346240431070328,-41.60895919799805,-58.980499267578125
0,822899,40.83951950073242,-38.7057991027832,57.08979034423828,74.73284149169922
0,822902,-19.1032657623291,29.929271697998047,44.51712417602539,10.45258617401123
0,822903,-32.82597351074219,48.80292892456055,-61.69257736206055,-29.335153579711914
0,822906,47.27959442138672,-12.270607948303223,4.880675792694092,15.200006484985352
0,822907,-2.923666477203369,-35.5301628112793,20.040063858032227,25.220829010009766
0,822910,-2.1659605503082275,-4.748411655426025,-6.9352006912231445,-55.05975341796875
0,822912,-3.6308701038360596,7.580647945404053,8.064595222473145,-34.29848098754883
0,822914,-19.581098556518555,13.461904525756836,9.578720092773438,48.43085479736328
0,822916,0.1424519270658493,-3.6295769214630127,-31.286113739013672,-18.885751724243164
0,822918,0.5596465468406677,-22.930347442626953,-42.10023498535156,18.737878799438477
0,822920,52.679969787597656,31.073999404907227,83.443359375,7.86050271987915
0,822923,-13.982824325561523,0.19732555747032166,5.17165994644165,-23.178499221801758
0,822924,-77.66831970214844,-45.57582473754883,-113.35317993164062,26.39972686767578
0,822925,16.710386276245117,19.434131622314453,46.27654266357422,-3.5120933055877686
0,822928,57.4134635925293,31.717845916748047,84.40708923339844,-6.712197780609131
0,822929,-5.56542444229126,8.99525260925293,-37.93598556518555,9.887960433959961
0,822932,-0.39728084206581116,-8.49526596069336,-18.53487205505371,-4.818620681762695
0,822933,16.120994567871094,-14.519049644470215,55.39976501464844,-2.408782720565796
0,822936,-52.91002655029297,-5.645194053649902,-38.73748779296875,21.42548942565918
0,822937,-17.064956665039062,-3.1254117488861084,-66.45767974853516,2.0728039741516113
0,822940,41.33437728881836,5.639793872833252,74.1142349243164,-46.432186126708984
0,822941,17.893909454345703,20.882469177246094,50.183956146240234,-0.3313359320163727
0,822944,-2.429563283920288,-1.7474342584609985,-96.17296600341797,36.646507263183594
0,822945,-22.398746490478516,-33.88315200805664,-33.71394729614258,-22.359411239624023
0,822948,-6.8654985427856445,3.8948073387145996,75.04210662841797,-26.731534957885742
0,822949,11.452557563781738,22.14757537841797,-10.358146667480469,21.06361961364746
0,822952,0.3377113342285156,4.303769111633301,-1.143099308013916,40.397010803222656
0,822953,10.664388656616211,-32.30301284790039,13.351144790649414,-17.867050170898438
0,822956,-19.86808204650879,-11.201144218444824,-54.53284454345703,-22.937301635742188
0,822957,-45.190277099609375,19.313302993774414,-7.293485641479492,22.691341400146484
0,822960,51.99692916870117,-2.881678342819214,51.1115837097168,-31.6248779296875
0,822961,46.69728088378906,15.936671257019043,54.34690856933594,-5.248179912567139
0,822964,-64.35633850097656,17.131372451782227,-48.00194549560547,47.412147521972656
0,822965,-7.805453777313232,19.342275619506836,-51.233734130859375,4.322936058044434
0,822968,47.1925163269043,-19.89854621887207,51.612876892089844,-17.296924591064453
0,822969,-0.6582702398300171,-45.402931213378906,-1.74424147605896,1.3412578105926514
0,822972,-18.642553329467773,14.366583824157715,-15.379898071289062,-8.782973289489746
0,822973,-19.197494506835938,27.74510955810547,13.707353591918945,-41.838836669921875
0,822976,-6.578332424163818,2.6965696811676025,-31.456768035888672,34.55241775512695
0,822977,-4.32158088684082,-23.034257888793945,-13.314950942993164,60.83303451538086
0,822980,43.36701202392578,-2.5540671348571777,67.68560791015625,-24.141855239868164
0,822981,39.871620178222656,7.701863765716553,46.22809600830078,-24.605722427368164
0,822984,-73.52952575683594,-17.877763748168945,-104.327880859375,-37.5966911315918
0,822985,-22.39643669128418,2.5575687885284424,-46.53722381591797,5.416191101074219
0,822988,46.79497146606445,15.101249694824219,89.70274353027344,42.9439697265625
0,822989,-3.9272139072418213,10.875996589660645,8.034035682678223,-6.532857894897461
0,822992,6.858709335327148,9.403904914855957,-9.74750804901123,6.777288436889648
0,822993,5.307798862457275,-4.558319091796875,12.45627498626709,-0.19148609042167664
0,822996,-19.63395118713379,-10.589561462402344,-51.34071350097656,-11.217672348022461
0,822997,-15.845584869384766,-32.228721618652344,-33.28660583496094,4.8600921630859375
0,823000,40.85981750488281,3.8250207901000977,90.84910583496094,-11.632491111755371
0,823001,20.4898624420166,52.6899528503418,51.37340545654297,2.156064748764038
0,823004,-69.15536499023438,-16.229183197021484,-101.35108947753906,1.4812952280044556
0,823005,14.533806800842285,-14.284440994262695,-22.998764038085938,-43.24824142456055
0,823008,45.62910461425781,21.555200576782227,48.76384353637695,25.944568634033203
0,823009,-49.19521713256836,-36.194339752197266,-18.45418930053711,59.989315032958984
0,823012,17.53409767150879,-10.924209594726562,24.724733352661133,-28.673267364501953
0,823013,56.58129119873047,39.11533737182617,14.292418479919434,-55.7563591003418
0,823016,-66.88668060302734,-12.246484756469727,-84.02656555175781,3.835556745529175
0,823017,-40.31814193725586,-18.615413665771484,-10.217970848083496,26.18634033203125
0,823020,59.41655731201172,28.358169555664062,108.59808349609375,9.300135612487793
0,823021,23.426233291625977,-6.476954460144043,22.986433029174805,16.921892166137695
0,823024,-44.104820251464844,-4.271721839904785,-111.31237030029297,8.053743362426758
0,823025,-33.2646598815918,7.615133762359619,-17.425434112548828,-18.891921997070312
0,823028,35.992774963378906,-28.828439712524414,90.0553207397461,-24.393484115600586
0,823029,34.1329345703125,13.44665241241455,3.068627119064331,1.0062655210494995
0,823032,-11.713050842285156,16.19814109802246,-44.08075714111328,17.520687103271484
0,823033,-14.068191528320312,-23.10901641845703,17.124610900878906,4.697019100189209
0,823036,-9.824170112609863,0.5530295372009277,-2.5000922679901123,-9.47409439086914
0,823037,-17.22677230834961,12.204510688781738,-42.87948226928711,-6.394752502441406
0,823040,33.414649963378906,8.809158325195312,51.40724563598633,14.434099197387695
0,823041,52.37245559692383,7.844852447509766,52.0429801940918,20.9776554107666
0,823044,-45.24593734741211,-28.99371910095215,-96.10855865478516,-24.255155563354492
0,823045,-41.98819351196289,7.220421314239502,-19.647708892822266,10.239876747131348
0,823048,19.65499496459961,23.88563346862793,79.67670440673828,47.454532623291016
0,823049,13.32590103149414,-23.85580062866211,-14.21183967590332,-21.322994232177734
0,823052,14.773740768432617,9.611470222473145,10.60217571258545,-29.405227661132812
0,823053,-11.092794418334961,22.24564552307129,22.190576553344727,-40.28752517700195
0,823056,-24.165950775146484,8.436569213867188,-78.74447631835938,-19.992902755737305
0,823057,10.878959655761719,3.171600818634033,-32.21270751953125,66.55418395996094
0,823060,21.08597755432129,-50.51504898071289,88.6074447631836,-2.237077236175537
0,823061,-0.6067720651626587,-16.722917556762695,45.30424880981445,-37.267608642578125
0,823064,-29.489456176757812,55.41742706298828,-89.90121459960938,24.071500778198242
0,823065,-21.21567726135254,-24.764881134033203,-52.724979400634766,3.995347738265991
0,823068,41.77584457397461,-29.565998077392578,61.87091064453125,25.646316528320312
0,823069,28.087604522705078,18.125282287597656,35.07049560546875,48.977359771728516
0,823072,-26.023805618286133,13.027434349060059,18.315698623657227,-34.35078430175781
0,823073,15.449030876159668,17.536365509033203,-11.593024253845215,-65.9632797241211
0,823076,-24.26162338256836,-29.701587677001953,-73.06340789794922,6.516714572906494
0,823077,-49.852291107177734,-5.6272406578063965,-16.608137130737305,17.572771072387695
0,823080,53.194950103759766,10.949029922485352,90.20372009277344,-0.41819554567337036
0,823081,31.60984230041504,-13.316760063171387,48.7659912109375,-9.8966703414917
0,823084,-48.57963562011719,22.85245132446289,-120.13665008544922,-28.426029205322266
0,823085,-11.690667152404785,-0.7985201478004456,-34.145591735839844,-4.31601619720459
0,823088,48.741119384765625,-2.0234248638153076,114.60661315917969,18.844789505004883
0,823089,-0.9784830212593079,24.972023010253906,6.742565631866455,33.287109375
0,823092,-43.09479904174805,-21.57305145263672,-51.25312805175781,23.649826049804688
0,823093,2.001129627227783,-11.253971099853516,11.875232696533203,-23.609333038330078
0,823096,3.597982883453369,-3.4014387130737305,-20.448427200317383,-8.471075057983398
0,823097,21.0861759185791,17.984426498413086,-30.157493591308594,7.360742092132568
0,823100,35.248775482177734,18.5019588470459,77.55376434326172,-25.58043098449707
0,823101,-15.91528606414795,-44.409523010253906,21.01518440246582,29.056262969970703
0,823104,-43.32224655151367,-7.59404182434082,-99.79035186767578,8.476116180419922
0,823105,-14.066274642944336,52.359004974365234,13.539155006408691,-49.173004150390625
0,823108,44.561180114746094,18.026569366455078,88.64698028564453,15.228212356567383
0,823109,13.117544174194336,-55.7574462890625,-24.928791046142578,8.711700439453125
0,823112,-19.399494171142578,-20.819726943969727,-28.686279296875,25.36607551574707
0,823113,4.798754692077637,18.29010581970215,24.25098419189453,52.029850006103516
0,823116,-18.334903717041016,10.33148193359375,-61.337032318115234,-71.82212829589844
0,823117,-13.022966384887695,20.370513916015625,-38.73442077636719,-47.341854095458984
0,823120,25.714624404907227,-1.693544626235962,97.6448974609375,35.806114196777344
0,823121,2.2523562908172607,-17.71543312072754,28.484636306762695,-24.441078186035156
0,823124,-42.79845428466797,-24.597972869873047,-99.51054382324219,41.5659294128418
0,823125,15.284246444702148,6.0375847816467285,-3.3390161991119385,50.952701568603516
0,823128,51.66380310058594,38.468048095703125,78.77110290527344,-53.33174514770508
0,823129,-27.29491424560547,7.289282321929932,-18.633037567138672,-10.974493980407715
0,823132,-0.5686753392219543,12.53686237335205,-20.32355499267578,17.71845817565918
0,823133,33.3991813659668,-12.659165382385254,37.866722106933594,-0.8743137121200562
0,823136,-55.36857986450195,-54.25240707397461,-38.53302764892578,-15.581543922424316
0,823137,-13.79870319366455,20.967668533325195,-39.83892822265625,-26.663158416748047
0,823142,25.19278335571289,37.088470458984375,35.438419342041016,43.5369873046875
0,823142,-1.6055127382278442,-34.04844284057617,23.555999755859375,18.9000244140625
0,823143,33.8532829284668,-25.5266056060791,7.768380641937256,15.715133666992188
0,823146,0.14340676367282867,12.479870796203613,-15.597689628601074,-41.370887756347656
0,823147,-18.050355911254883,25.018451690673828,6.274281024932861,-99.80188751220703
0,823150,1.426464319229126,7.065490245819092,31.452659606933594,83.79708099365234
0,823151,-1.0574768781661987,-4.376134872436523,-25.825313568115234,52.23097610473633
0,823154,-13.773594856262207,-6.3445725440979,-25.602258682250977,-49.790103912353516
0,823155,-3.4173097610473633,-17.379255294799805,3.4547462463378906,-7.135904788970947
0,823158,26.765195846557617,12.92355728149414,29.578798294067383,32.721805572509766
0,823159,5.1628098487854,5.370489120483398,54.26294708251953,32.49092483520508
0,823162,-23.183874130249023,6.108316421508789,-64.67440032958984,-42.053340911865234
0,823163,-26.864078521728516,2.254577159881592,-76.80626678466797,-22.07820701599121
0,823166,-1.0839781761169434,-26.866607666015625,45.579071044921875,15.119302749633789
0,823167,36.606834411621094,5.209522724151611,29.59517478942871,-0.5143110752105713
0,823170,9.912405967712402,9.455606460571289,-9.203857421875,4.314627170562744
0,823171,-31.56536865234375,-31.64776039123535,-11.544565200805664,-18.502147674560547
0,823174,8.658208847045898,0.27823227643966675,16.431997299194336,-10.409873962402344
0,823175,13.985857963562012,49.590782165527344,-14.996297836303711,29.85076332092285
0,823178,-9.195368766784668,4.03803825378418,-4.473247528076172,37.64039611816406
0,823179,30.438302993774414,-17.355051040649414,67.62714385986328,-9.34516716003418
0,823182,-23.746570587158203,-6.523918151855469,-54.505699157714844,-53.049556732177734
0,823183,-52.10354232788086,2.6115996837615967,-57.004032135009766,23.194881439208984
0,823186,44.36997985839844,3.1048009395599365,62.364803314208984,37.94294738769531
0,823187,34.186378479003906,16.350793838500977,13.202521324157715,-63.25979995727539
0,823190,-16.208370208740234,5.553302764892578,14.150898933410645,-1.2929648160934448
0,823191,-14.729057312011719,-46.0741081237793,4.105093479156494,45.89506149291992
0,823194,-21.74583625793457,4.826393127441406,-36.84501647949219,-32.41867446899414
0,823195,1.4264895915985107,29.43721580505371,-33.17399597167969,-14.292176246643066
0,823198,18.523279190063477,-29.260005950927734,-2.0939383506774902,25.474567413330078
0,823199,24.672887802124023,-3.8542354106903076,90.00885009765625,10.257551193237305
0,823202,-2.130274772644043,35.89805603027344,-13.519248008728027,-9.044229507446289
0,823203,-35.8048210144043,-11.967421531677246,-94.08084869384766,-9.730207443237305
0,823206,5.7294816970825195,-21.158355712890625,36.49312973022461,10.023903846740723
0,823207,12.801254272460938,25.701669692993164,57.58985900878906,-5.835925102233887
0,823210,-12.69964599609375,7.114921569824219,-3.443673849105835,-14.134063720703125
0,823211,-1.656274437904358,-26.91347885131836,-21.16277503967285,43.14146041870117
0,823214,19.13530158996582,0.8878180980682373,-14.043899536132812,12.571471214294434
0,823215,-21.21337127685547,25.76445960998535,-32.67702865600586,-47.10062789916992
0,823218,-11.825533866882324,6.748115539550781,11.54344367980957,-0.2975500822067261
0,823219,68.02953338623047,-8.875608444213867,83.60723114013672,16.89042091369629
0,823222,-7.550932884216309,-1.1637990474700928,-23.39214515686035,10.771539688110352
0,823223,-63.71833038330078,-25.40631866455078,-81.16851043701172,-3.1715829372406006
0,823226,3.0392847061157227,-21.848743438720703,6.937280654907227,-33.733890533447266
0,823227,19.09743881225586,43.69247817993164,19.99828338623047,19.641830444335938
0,823230,18.34181022644043,13.663382530212402,17.535282135009766,15.241726875305176
0,823231,-15.358307838439941,-40.50782012939453,-6.136927604675293,-19.664731979370117
0,823234,-1.7961950302124023,15.276816368103027,-27.2589168548584,-26.19793128967285
0,823235,7.057666301727295,12.968039512634277,-3.6108689308166504,-8.514287948608398
0,823238,-20.00409507751465,-14.903346061706543,38.29777908325195,20.521841049194336
0,823239,50.94589614868164,20.581132888793945,76.15091705322266,0.18305863440036774
0,823242,-16.644634246826172,-24.785140991210938,-59.586517333984375,45.979087829589844
0,823243,-76.07459259033203,-24.37668800354004,-89.09819030761719,31.35519790649414
0,823246,34.33821487426758,31.268217086791992,52.164276123046875,-54.11617660522461
0,823247,55.76858139038086,0.41492030024528503,41.709388732910156,-38.739444732666016
0,823250,-8.087284088134766,1.862955093383789,-6.655513286590576,23.54969596862793
0,823251,-21.29440689086914,16.025415420532227,-22.20874786376953,22.08621597290039
0,823254,20.240419387817383,-5.433958530426025,21.766456604003906,7.458347797393799
0,823255,-30.0588436126709,-10.694117546081543,-8.759026527404785,-2.587237596511841
0,823258,-16.59839630126953,-11.319550514221191,-15.445393562316895,-18.245759963989258
0,823259,46.540122985839844,5.92550802230835,57.99235916137695,6.640704154968262
0,823262,-35.094764709472656,18.30142593383789,-59.44036865234375,-11.85930347442627
0,823263,-7.771361351013184,-7.447041034698486,-50.74272155761719,-14.944184303283691
0,823266,29.53622817993164,-5.14652681350708,74.30900573730469,33.037845611572266
0,823267,-4.466690540313721,10.2570219039917,23.2977237701416,9.544740676879883
0,823270,6.392472267150879,-25.443159103393555,-50.337562561035156,-18.072179794311523
0,823271,-12.066300392150879,-18.718284606933594,-25.519420623779297,-6.799153804779053
0,823274,3.702108144760132,27.471691131591797,41.782623291015625,8.402307510375977
0,823275,-0.3684336245059967,12.219682693481445,-14.691497802734375,-2.7492661476135254
0,823278,-10.398375511169434,3.8790364265441895,-7.579049110412598,-24.76490020751953
0,823279,35.40158462524414,-5.9673380851745605,86.41452026367188,19.77642059326172
0,823282,-22.551782608032227,-16.48343849182129,-57.62491989135742,21.20206069946289
0,823283,-39.75322723388672,35.11145782470703,-73.27392578125,-8.559042930603027
0,823286,36.04461669921875,-0.5790794491767883,63.455745697021484,-14.264955520629883
0,823287,-8.430971145629883,-34.343082427978516,18.166213989257812,-16.02843475341797
0,823290,-7.552295207977295,15.142740249633789,5.227272987365723,23.661460876464844
0,823291,17.077526092529297,24.282617568969727,-4.627032279968262,12.345954895019531
0,823294,-9.460090637207031,-24.384370803833008,-33.010589599609375,-9.933077812194824
0,823295,17.454801559448242,-22.664268493652344,8.78925895690918,-9.115224838256836
0,823298,-2.4267654418945312,30.662736892700195,22.264747619628906,15.395058631896973
0,823299,3.5669326782226562,-13.224390029907227,19.101848602294922,21.848529815673828
0,823302,-3.1621859073638916,-15.148677825927734,-53.05807876586914,-44.065269470214844
0,823304,-28.204179763793945,5.926603317260742,-73.77710723876953,-41.837791442871094
0,823306,16.56887435913086,3.122184991836548,59.15797424316406,42.06867218017578
0,823308,2.8414976596832275,-7.715301036834717,62.939918518066406,42.304771423339844
0,823310,24.845266342163086,11.050934791564941,-15.714292526245117,-30.77341651916504
0,823312,-5.942852020263672,32.20839309692383,-10.45268726348877,7.369661808013916
0,823314,-35.485530853271484,-35.905555725097656,4.53959846496582,10.650136947631836
0,823316,14.304436683654785,-13.571033477783203,-40.824764251708984,-54.72276306152344
0,823318,2.5753724575042725,24.934438705444336,14.121628761291504,1.346130132675171
0,823320,37.91279983520508,6.551036357879639,97.93522644042969,53.250152587890625
0,823322,-12.480192184448242,-8.414836883544922,-64.93768310546875,-10.079195022583008
0,823324,-59.041603088378906,-5.987464904785156,-73.4462890625,-23.025388717651367
0,823326,13.15040397644043,11.597346305847168,54.845802307128906,38.47393035888672
0,823328,30.97893524169922,1.2821626663208008,34.645259857177734,-4.902012348175049
0,823330,5.978147983551025,-6.213268280029297,-0.9981468319892883,-35.36526107788086
0,823332,-23.386808395385742,-5.540011882781982,-40.219749450683594,2.4679417610168457
0,823334,-15.84447956085205,14.922005653381348,-16.002197265625,27.689525604248047
0,823336,-10.576805114746094,-12.391234397888184,-27.627119064331055,17.75342559814453
0,823337,2.9563369750976562,-32.03968048095703,-16.35907745361328,-41.93000030517578
0,823340,45.63216781616211,30.29370880126953,85.27631378173828,-11.030619621276855
0,823341,25.606300354003906,12.720877647399902,61.068511962890625,25.904848098754883
0,823344,-40.8128547668457,11.48357105255127,-54.528228759765625,21.008769989013672
0,823345,-14.354402542114258,27.64594841003418,-60.39790725708008,2.8866310119628906
0,823348,34.49203109741211,-47.93785858154297,30.995960235595703,-46.901405334472656
0,823349,-1.0836952924728394,-20.792943954467773,16.870460510253906,-6.653840065002441
0,823352,-4.924779891967773,35.285667419433594,-12.255745887756348,13.219258308410645
0,823353,-22.622941970825195,-3.481727123260498,18.545806884765625,56.832916259765625
0,823356,-30.033191680908203,-22.478702545166016,-38.34519577026367,22.26824951171875
0,823357,16.62257957458496,-2.0077903270721436,-30.5045108795166,-101.02165222167969
0,823360,38.9560546875,23.589012145996094,79.22869110107422,9.043182373046875
0,823361,18.526771545410156,-11.887187004089355,45.54822540283203,50.614871978759766
0,823364,-66.20344543457031,-17.087329864501953,-76.89507293701172,-10.38522720336914
0,823365,-10.2545804977417,29.277036666870117,-47.7148551940918,-13.604686737060547
0,823368,77.88175201416016,-10.218535423278809,71.38886260986328,-44.45698928833008
1,823371,11.62641429901123,-32.635921478271484,40.77766799926758,5.792073726654053
1,823371,-26.36553955078125,-3.1347763538360596,-49.803192138671875,47.20355224609375
1,823374,-29.29848861694336,16.030216217041016,-31.05769920349121,-17.573270797729492
1,823375,-11.649053573608398,23.88666343688965,-16.542694091796875,-12.568532943725586
1,823378,-8.429455757141113,0.8847317695617676,32.42219924926758,29.16717529296875
1,823379,23.142520904541016,12.66165828704834,65.1451416015625,-1.2280625104904175
1,823382,19.03009605407715,0.550956130027771,-57.26553726196289,-12.837772369384766
1,823383,-35.23110580444336,-28.681812286376953,-71.12921142578125,-0.7541202306747437
1,823386,2.263902187347412,14.615396499633789,32.34623718261719,-15.311257362365723
1,823387,8.674938201904297,6.133802890777588,38.30496597290039,-1.3706568479537964
1,823390,-1.5114092826843262,-14.240367889404297,19.58319664001465,48.696510314941406
1,823391,30.82647705078125,5.9617180824279785,1.6200056076049805,9.166519165039062
1,823394,2.7168197631835938,8.660916328430176,-21.194393157958984,-49.854976654052734
1,823395,-40.45268249511719,-4.0769362449646,-25.574298858642578,-4.596303462982178
1,823398,21.0134220123291,-4.381781101226807,28.148469924926758,40.737667083740234
1,823399,40.383296966552734,-8.8540620803833,58.873146057128906,6.755537986755371
1,823402,-49.893470764160156,-16.162799835205078,-71.37907409667969,-37.912437438964844
1,823403,-22.205150604248047,32.55437469482422,-39.22221374511719,-7.483296871185303
1,823406,40.972225189208984,23.457275390625,47.58754348754883,34.44792938232422
1,823407,-2.782987594604492,-51.601741790771484,-11.062763214111328,-25.006900787353516
1,823410,-6.321434497833252,-14.187049865722656,23.440967559814453,-3.040628671646118
1,823411,-5.382478713989258,43.2724609375,-1.5901497602462769,36.52681350708008
1,823414,-24.06147575378418,0.8818308115005493,-31.414430618286133,-32.03239059448242
1,823415,0.07304725050926208,-9.724090576171875,4.362647533416748,3.2530875205993652
1,823418,24.752634048461914,-3.0638444423675537,15.331011772155762,6.035048484802246
1,823419,24.532663345336914,-10.579358100891113,38.36030578613281,0.25008827447891235
1,823422,-17.72369956970215,8.35520076751709,-44.059844970703125,17.49129867553711
1,823423,-26.79966926574707,-7.991902828216553,-61.08883285522461,-38.034603118896484
1,823426,31.361024856567383,3.768573760986328,66.00191497802734,-9.824097633361816
1,823427,23.220643997192383,25.987056732177734,32.76728820800781,27.1096248626709
1,823430,-21.901166915893555,-16.386884689331055,-46.917789459228516,-0.2036675065755844
1,823431,-17.483585357666016,-8.194518089294434,20.785093307495117,-8.232548713684082
1,823434,-0.8632667660713196,38.8384895324707,37.22522735595703,22.753427505493164
1,823435,10.307297706604004,7.326807022094727,-42.22422409057617,13.593789100646973
1,823438,6.605178356170654,-53.45641326904297,-7.789909839630127,-38.486106872558594
1,823439,5.163158893585205,-20.007938385009766,50.13829040527344,-14.039182662963867
1,823442,-30.928001403808594,26.178504943847656,-50.05242919921875,17.981782913208008
1,823443,-20.009912490844727,-2.763660430908203,-63.76481628417969,-12.231656074523926
1,823446,28.716129302978516,16.162120819091797,59.75685119628906,16.023988723754883
1,823447,18.065195083618164,19.806901931762695,70.3274917602539,82.52178192138672
1,823450,1.7189465761184692,-30.509777069091797,-21.52361297607422,-33.40979766845703
1,823451,-20.40407371520996,-20.342483520507812,-54.532588958740234,-111.20735931396484
1,823454,-6.287903308868408,-7.4780073165893555,2.692763566970825,45.198394775390625
1,823455,4.695938587188721,17.410812377929688,-6.296218395233154,19.291414260864258
1,823458,18.249481201171875,23.482770919799805,12.856755256652832,-19.281827926635742
1,823459,31.66580581665039,1.282972812652588,67.88907623291016,45.27404022216797
1,823462,-25.981569290161133,-3.4060606956481934,-55.38831329345703,-20.84507942199707
1,823463,-32.07205581665039,-7.415823459625244,-75.53717803955078,-29.164627075195312
1,823466,-7.552389144897461,6.331058502197266,51.015037536621094,18.640117645263672
1,823467,4.794003009796143,-14.07897663116455,49.40928649902344,5.524069786071777
1,823470,22.048969268798828,-20.490474700927734,8.952969551086426,3.252790927886963
1,823471,1.0598973035812378,16.203449249267578,-40.0152702331543,3.660001754760742
1,823474,-0.28877171874046326,35.54230880737305,-28.563709259033203,-5.582716464996338
1,823475,-15.301119804382324,-9.813827514648438,-5.602792263031006,9.30056381225586
1,823478,-7.2794318199157715,-39.51590347290039,4.203356742858887,-12.446922302246094
1,823479,46.81013870239258,29.702863693237305,95.41996765136719,4.289979934692383
1,823482,-15.971575736999512,27.6059513092041,-12.570304870605469,5.541497707366943
1,823483,-70.59065246582031,-37.7269401550293,-117.35227966308594,-14.207386016845703
1,823738,63.01398468017578,-4.840732574462891,57.010963439941406,-8.790885925292969
1,823739,102.87765502929688,31.556211471557617,108.83782196044922,-24.0107479095459
1,823742,-50.85679244995117,0.6318875551223755,-12.572489738464355,41.29133987426758
1,823743,-78.20756530761719,-22.643123626708984,-60.879817962646484,35.26825714111328
1,823746,20.872821807861328,1.6389023065567017,-5.839456081390381,-40.696807861328125
1,823747,8.856366157531738,-0.3307042419910431,-14.384602546691895,-14.585217475891113
1,823750,-81.74990844726562,-2.3318428993225098,-137.3346405029297,17.039363861083984
1,824804,-31.22371482849121,1.451332688331604,-61.373382568359375,-6.222007751464844
1,824806,83.92130279541016,-16.17686653137207,124.36896514892578,-2.2148215770721436
1,824807,61.1068229675293,14.124798774719238,86.18309783935547,25.804555892944336
1,824810,-3.6798031330108643,17.613914489746094,0.25585493445396423,-2.828463077545166
1,824811,7.2724175453186035,1.8576632738113403,47.46328353881836,1.7732728719711304
1,824814,-0.8752415776252747,-8.053550720214844,16.67833709716797,9.669232368469238
1,824815,-32.59497833251953,-21.327993392944336,-50.99530029296875,-25.359615325927734
1,824818,0.14506109058856964,-8.47152328491211,1.7325700521469116,-6.0340986251831055
1,824819,-7.551913261413574,20.445709228515625,0.8819785118103027,28.708065032958984
1,824822,-54.139984130859375,26.861438751220703,-105.66739654541016,-11.770459175109863
1,824823,-4.579408645629883,-12.735651969909668,-55.38456344604492,-15.328152656555176
1,824826,45.15098190307617,-4.499155044555664,105.08015441894531,6.9853315353393555
1,824827,36.18777084350586,-2.934232473373413,57.14570617675781,-27.20408821105957
1,824830,10.953286170959473,-37.74258804321289,-15.964059829711914,47.42745590209961
1,824831,-9.403016090393066,-0.6466699838638306,27.13819122314453,-0.8780305981636047
1,824834,-3.399148464202881,22.32758331298828,-1.4284406900405884,-60.45531463623047
1,824835,-20.953533172607422,20.049083709716797,-48.66011047363281,30.37717628479004
1,824838,-4.922286033630371,8.950309753417969,30.565622329711914,-2.11901593208313
1,824839,-2.3474483489990234,-10.07631778717041,36.09351348876953,3.2774927616119385
1,824842,-48.19709014892578,0.9760550856590271,-110.2547607421875,5.811269760131836
1,824843,-13.932124137878418,-18.66568374633789,-52.396568298339844,-4.511962413787842
1,824846,61.58441162109375,-2.8477907180786133,96.07127380371094,22.678083419799805
1,824847,45.09165954589844,31.68102264404297,39.904212951660156,-5.937015533447266
1,824850,-30.026641845703125,-6.622481346130371,-15.329776763916016,-9.962778091430664
1,824851,-5.680304050445557,-18.798900604248047,-12.901663780212402,-14.568319320678711
1,824854,21.82910919189453,8.042400360107422,-16.11630630493164,-12.318476676940918
1,824855,-5.9111456871032715,24.542266845703125,-15.882204055786133,31.357824325561523
1,824858,1.049215316772461,-16.195608139038086,26.99190330505371,5.3906331062316895
1,824859,-10.55346965789795,-24.163225173950195,46.16673278808594,-29.05412483215332
1,824862,-52.56190490722656,3.6051924228668213,-96.92992401123047,16.555147171020508
1,824863,-8.651178359985352,-12.42279052734375,-57.94844436645508,18.997541427612305
1,824866,72.36566162109375,20.704120635986328,105.43621063232422,-9.041900634765625
1,824867,-4.1066131591796875,10.275444984436035,33.1455078125,-32.835548400878906
1,824870,-20.386545181274414,-9.886242866516113,-23.195539474487305,3.5164732933044434
1,824871,43.52371597290039,7.1929612159729,32.186737060546875,56.35940170288086
1,824874,-42.50833511352539,-16.218618392944336,-25.309968948364258,-18.337688446044922
1,824875,-45.2901611328125,-9.892105102539062,-71.88275909423828,-17.41107177734375
1,824878,45.46331024169922,18.65325164794922,79.79462432861328,29.95939064025879
1,824879,35.375152587890625,2.88081693649292,83.46524810791016,-13.911426544189453
1,824882,-34.9747314453125,-2.0679500102996826,-142.245849609375,-11.022933959960938
1,824883,-36.95920944213867,25.745262145996094,-71.81090545654297,-22.12120246887207
1,824886,43.93606185913086,-3.9754128456115723,121.1331787109375,-18.853069305419922
1,824887,30.584314346313477,-30.667972564697266,16.10826301574707,34.735923767089844
1,824890,-32.40077590942383,-0.44678840041160583,-37.349979400634766,3.5333664417266846
1,824891,-10.120469093322754,10.588376998901367,35.83827209472656,2.965127944946289
1,824894,-5.722262859344482,1.2322040796279907,-26.304828643798828,8.318053245544434
1,824895,5.144083023071289,-6.182127952575684,-41.82772445678711,-26.922134399414062
1,824898,34.30387496948242,6.6698222160339355,70.61772918701172,2.3151962757110596
1,824899,-12.191240310668945,7.370735168457031,35.639251708984375,19.649635314941406
1,824902,-41.89363479614258,-21.298250198364258,-93.7593002319336,23.369808197021484
1,824903,13.597167015075684,25.559738159179688,-45.09047317504883,-10.638670921325684
1,824906,17.634183883666992,-0.5702043175697327,43.56007766723633,-63.9970817565918
1,824907,-26.745798110961914,-50.315608978271484,28.2264404296875,13.857037544250488
1,824910,32.51640701293945,31.40874481201172,39.12571334838867,71.97216796875
1,824911,20.05785369873047,11.977490425109863,12.751411437988281,-13.387142181396484
1,824914,-45.378231048583984,-1.3448336124420166,-58.34434127807617,-20.0261287689209
1,824915,-7.788666248321533,33.30518341064453,-24.029077529907227,-3.5440447330474854
1,824918,61.918174743652344,-19.844314575195312,51.05583572387695,-28.83909797668457
1,824919,35.02308654785156,-9.735553741455078,37.35664367675781,6.779738903045654
1,824922,-88.32238006591797,-9.06245231628418,-82.64930725097656,31.26700782775879
1,824923,-30.901023864746094,-17.362850189208984,-56.05508041381836,-4.64768123626709
1,824926,58.59036636352539,17.52936553955078,98.28668212890625,-11.217591285705566
1,824927,-4.98859167098999,-12.611625671386719,10.773946762084961,11.09977912902832
1,824930,-17.52264404296875,-11.116620063781738,-24.715024948120117,32.42265701293945
1,824931,-1.7788379192352295,22.135595321655273,32.84640121459961,24.349828720092773
1,824934,-21.838794708251953,21.446016311645508,-69.4008560180664,-97.31929779052734
1,824935,-7.657558917999268,-18.779380798339844,-26.074249267578125,-49.40883255004883
1,824938,53.62822723388672,-10.165122032165527,68.8511734008789,65.46476745605469
1,824939,29.473148345947266,9.263225555419922,17.617225646972656,2.7615339756011963
1,824942,-86.09538269042969,-26.01074981689453,-69.13946533203125,17.97769546508789
1,824943,-5.698602676391602,36.03022384643555,0.998499870300293,6.398983001708984
1,824946,114.89689636230469,29.39311408996582,105.23841094970703,-31.302623748779297
1,824947,-1.096235990524292,-54.690765380859375,-32.88133239746094,-17.40350341796875
1,824950,-65.92960357666016,-12.325334548950195,-56.426822662353516,-2.7297208309173584
1,824951,6.296559810638428,32.018280029296875,44.443660736083984,54.78256607055664
1,824954,0.048180464655160904,2.6239726543426514,-13.556987762451172,16.313812255859375
1,824955,-26.832176208496094,-13.401988983154297,-42.14692306518555,-35.420658111572266
1,824958,25.944438934326172,17.49237823486328,62.31635284423828,13.791645050048828
1,824959,29.705795288085938,-7.4914326667785645,39.60035705566406,6.269360542297363
1,824962,-52.26000213623047,-20.164119720458984,-99.30921936035156,-22.305301666259766
1,824963,-27.829425811767578,24.48673439025879,-3.2123732566833496,25.175905227661133
1,824966,50.25077819824219,17.49053192138672,68.10847473144531,-6.485417366027832
1,824967,-4.506956100463867,-22.306785583496094,-47.41362762451172,-22.225038528442383
1,824970,-0.617339015007019,-23.020038604736328,-8.721094131469727,14.538207054138184
1,824971,54.21506881713867,6.4369988441467285,63.42177963256836,-19.35373306274414
1,824974,-40.25672149658203,19.200115203857422,-54.203304290771484,1.4999066591262817
1,824975,-74.76954650878906,16.955236434936523,-79.11009979248047,22.438810348510742
1,824978,45.265830993652344,-23.47115135192871,93.39622497558594,-10.124665260314941
1,824979,68.0530014038086,-1.9936176538467407,83.14175415039062,4.136127471923828
1,824982,-56.659427642822266,23.077028274536133,-87.53299713134766,-8.493701934814453
1,824983,-57.79723358154297,-38.39662551879883,-36.572933197021484,-14.236601829528809
1,824986,65.03447723388672,-15.64876937866211,60.34380340576172,24.67009162902832
1,824987,34.076988220214844,37.96308517456055,-8.003509521484375,-0.8077595829963684
1,824990,-42.771278381347656,10.382126808166504,-13.795973777770996,7.752140522003174
1,824991,-17.401744842529297,-17.932964324951172,33.686546325683594,9.971484184265137
1,824994,9.774856567382812,-6.845223903656006,-25.453109741210938,-33.73605728149414
1,824995,15.505009651184082,14.03519058227539,-40.97752380371094,-18.246061325073242
1,824998,11.765159606933594,4.341825485229492,51.32880783081055,5.6728434562683105
1,824999,16.44291114807129,-6.701481819152832,41.181663513183594,37.33449935913086
1,825002,-15.577842712402344,-8.26708984375,-91.40251922607422,-1.1824275255203247
1,825003,-34.52736282348633,-12.0742826461792,-44.21290588378906,-42.16353225708008
1,825006,13.30101203918457,10.153578758239746,101.87073516845703,22.408138275146484
1,825007,11.197509765625,25.815223693847656,20.831560134887695,20.66979217529297
1,825010,2.4289345741271973,2.5541255474090576,-35.07381820678711,-13.249963760375977
1,825011,-1.1412934064865112,-17.39143943786621,2.3272268772125244,-0.906313419342041
1,825014,-31.66217041015625,9.240242958068848,-26.73280906677246,5.455826759338379
1,825015,12.191715240478516,18.68265151977539,-15.302438735961914,-0.06079798564314842
1,825018,50.568016052246094,-20.00995635986328,44.38276290893555,-27.502756118774414
1,825019,0.3172251284122467,-27.81333351135254,51.44292068481445,-6.483407974243164
1,825022,-47.522743225097656,-9.343792915344238,-64.50981903076172,74.51763916015625
1,825023,-21.735618591308594,11.78183364868164,-66.36621856689453,71.71720886230469
1,825026,43.33589553833008,35.3491325378418,83.6089859008789,-81.8065185546875
1,825027,5.927614688873291,-7.637816905975342,16.55666732788086,-106.07331085205078
1,825030,-17.482755661010742,-30.714252471923828,-45.95182800292969,39.96870422363281
1,825031,20.818944931030273,13.150036811828613,39.12910842895508,28.3250789642334
1,825034,-21.621416091918945,-1.5073508024215698,-30.60483169555664,-8.980674743652344
1,825035,-5.942856788635254,0.7746333479881287,-43.91925811767578,42.0262336730957
1,825038,16.99031639099121,15.76418685913086,61.492488861083984,-29.815380096435547
1,825039,-10.064172744750977,-39.239524841308594,1.5932961702346802,-71.93714141845703
1,825042,-28.129602432250977,13.725476264953613,-60.76362228393555,41.59125900268555
1,825043,-16.221424102783203,53.40110778808594,20.19307518005371,54.427791595458984
1,825046,50.5841178894043,-21.55388641357422,54.08464050292969,-3.3711204528808594
1,825047,15.429630279541016,-14.553597450256348,-12.80781364440918,-16.462249755859375
1,825050,-16.87775993347168,4.121674537658691,-39.41202163696289,-22.696651458740234
1,825051,28.73064422607422,5.543464183807373,36.46223831176758,12.091374397277832
1,825054,-21.68561363220215,2.857816457748413,-12.838772773742676,9.599366188049316
1,825055,-53.619224548339844,-27.865392684936523,-75.29427337646484,-13.252959251403809
1,825058,29.943016052246094,-6.165757179260254,92.20755004882812,30.75104522705078
1,825059,47.59115982055664,34.8502197265625,78.552001953125,17.29436492919922
1,825062,-30.068504333496094,-5.743260383605957,-110.04641723632812,-27.879425048828125
1,825063,-18.922697067260742,-36.02238464355469,-38.066009521484375,-37.677066802978516
1,825066,-10.731675148010254,13.937295913696289,104.182861328125,-11.404206275939941
1,825067,-12.77503490447998,31.969900131225586,-11.820975303649902,42.26926040649414
1,825070,46.95412826538086,13.02875804901123,-50.52468490600586,21.820764541625977
1,825071,21.766443252563477,-10.430320739746094,53.680946350097656,-11.884160995483398
1,825074,-27.36001205444336,-16.515350341796875,-43.99527359008789,1.0380628108978271
1,825075,-31.041996002197266,-4.516782760620117,-60.767547607421875,0.947485089302063
1,825078,27.491300582885742,-2.5588467121124268,78.13180541992188,-10.822347640991211
1,825079,54.513023376464844,3.7041170597076416,36.0545539855957,-26.22220802307129
1,825082,-42.50690460205078,3.446930170059204,-109.30072021484375,-11.168009757995605
1,825083,-48.42671203613281,-6.349098205566406,-15.29653549194336,9.220168113708496
1,825086,43.6288948059082,-23.603744506835938,96.38961791992188,15.055480003356934
1,825087,8.771943092346191,-0.14103546738624573,-14.937111854553223,24.287572860717773
1,825090,-26.98714256286621,24.95731544494629,-9.401283264160156,-15.643070220947266
1,825091,14.101850509643555,-17.127588272094727,31.361400604248047,1.274657964706421
1,825094,-10.033445358276367,-10.550394058227539,-65.71757507324219,18.104084014892578
1,825095,-15.474089622497559,24.094419479370117,-28.993364334106445,-33.202693939208984
1,825098,28.72747230529785,7.528994083404541,95.18998718261719,47.45609664916992
1,825099,22.11935043334961,18.030960083007812,51.360172271728516,61.89613723754883
1,825102,-34.960567474365234,6.8669304847717285,-79.62874603271484,-97.49684143066406
1,825103,-10.602242469787598,-29.925771713256836,-54.45920181274414,-60.6083984375
1,825106,59.9262580871582,-4.877527236938477,76.0416259765625,59.908878326416016
1,825108,7.7320942878723145,20.946697235107422,17.625484466552734,5.841249465942383
1,825110,-38.029640197753906,2.407825231552124,-72.80139923095703,-32.49458312988281
1,825111,-33.60340881347656,-26.62095069885254,6.598539352416992,22.11936378479004
1,825114,-21.074039459228516,-4.620174884796143,30.949504852294922,30.09326934814453
1,825115,3.229433059692383,20.326231002807617,-8.549275398254395,-19.99850845336914
1,825118,21.65781593322754,8.484428405761719,29.306987762451172,-40.26918029785156
1,825119,40.876953125,13.316116333007812,-7.689716815948486,-17.808879852294922
1,825122,-18.21871566772461,-10.530174255371094,-71.0978775024414,41.023590087890625
1,825123,-40.456119537353516,-35.70603561401367,22.99496078491211,52.56221389770508
1,825126,40.19797897338867,-21.1359920501709,34.909446716308594,-34.876853942871094
1,825127,16.819950103759766,0.9874057769775391,-29.229209899902344,-41.20929718017578
1,825130,-25.07949447631836,47.90664291381836,40.16075134277344,52.20186233520508
1,825131,26.245201110839844,17.9748477935791,42.971073150634766,39.23259353637695
1,825134,-11.426080703735352,-32.07341766357422,-57.86801528930664,-53.90657424926758
1,825135,-33.579349517822266,-8.046990394592285,-52.745235443115234,-39.465084075927734
1,825138,36.4794921875,6.201803684234619,54.819923400878906,44.351993560791016
1,825139,22.710002899169922,22.013011932373047,58.617095947265625,45.967552185058594
1,825142,-65.81231689453125,-18.805267333984375,-85.14361572265625,-32.004276275634766
1,825143,-43.36183166503906,-21.4157772064209,-29.096668243408203,-34.234283447265625
1,825146,71.72792053222656,65.4341812133789,69.62832641601562,27.543386459350586
1,825147,23.522136688232422,6.39234733581543,-29.143709182739258,-20.94725799560547
1,825150,-3.0849926471710205,-63.915767669677734,26.138742446899414,-20.18198013305664
1,825151,29.247392654418945,11.321319580078125,49.463356018066406,37.09677505493164
1,825154,-51.39551544189453,13.009563446044922,-89.60243225097656,-7.723102569580078
1,825155,-17.88874626159668,-27.67769432067871,-40.33501434326172,-17.560312271118164
1,825158,-1.5313552618026733,4.645411014556885,63.46342849731445,-19.85318374633789
1,825159,-33.39067459106445,36.68120193481445,30.510507583618164,1.1113487482070923
1,825162,41.541629791259766,18.713642120361328,-32.21857452392578,69.13139343261719
1,825163,51.791473388671875,-59.16325378417969,-14.820818901062012,13.274580955505371
1,825166,-6.451753616333008,-39.35520553588867,30.76167106628418,-51.24284744262695
1,825167,-36.3862419128418,88.70941162109375,0.17814800143241882,-6.131211757659912
1,825170,-10.172496795654297,-5.943112850189209,-1.8653067350387573,0.9020129442214966
1,825171,15.814053535461426,-84.7283706665039,14.001508712768555,38.76082229614258
1,825174,-21.0887393951416,43.61863327026367,-48.47182083129883,37.12206268310547
1,825175,-7.119254112243652,39.10261154174805,-17.293312072753906,-63.231788635253906
1,825178,39.583316802978516,-19.612483978271484,82.61463165283203,-50.91649627685547
1,825179,-2.041062116622925,-18.210887908935547,-0.4813872277736664,6.556646347045898
1,825182,-2.2381255626678467,0.9859198331832886,-96.98467254638672,31.225955963134766
1,825183,37.63636779785156,28.111679077148438,5.13792085647583,14.952754020690918
1,825186,21.961254119873047,57.856292724609375,68.8982925415039,5.024313926696777
1,825187,-9.088117599487305,-17.369285583496094,-15.667703628540039,-13.095486640930176
1,825190,-89.32592010498047,-136.40306091308594,-11.485241889953613,-10.284482955932617
1,825191,-63.676551818847656,9.15247917175293,46.9871940612793,11.600882530212402
1,825194,31.4997615814209,104.22885131835938,-44.432586669921875,12.332703590393066
1,825195,-3.4603700637817383,-29.142702102661133,-76.37420654296875,10.45688247680664
1,825198,59.40305709838867,-17.178564071655273,87.96222686767578,-33.13966369628906
1,825199,79.87283325195312,47.00958251953125,79.76534271240234,14.718711853027344
1,825202,-98.5606460571289,-7.343609809875488,-105.74639892578125,19.555068969726562
1,825203,-24.343700408935547,-94.04777526855469,-35.87240219116211,-41.032920837402344
1,825206,99.99699401855469,10.39794635772705,85.18132781982422,22.44217872619629
1,825207,-31.080928802490234,139.61643981933594,-16.130834579467773,20.608928680419922
1,825210,-35.42844009399414,78.48947143554688,-16.031261444091797,-28.472959518432617
1,825211,67.89311981201172,-36.30192184448242,41.63777542114258,-23.33728790283203
1,825214,5.664004325866699,-207.002685546875,-60.32672119140625,-1.057775616645813
1,825215,-56.19075012207031,-88.447509765625,-37.026912689208984,66.54298400878906
1,825218,15.109386444091797,139.964111328125,103.26637268066406,5.607070446014404
1,825219,-1.6269935369491577,18.729387283325195,21.501081466674805,-71.71123504638672
1,825222,-53.169395446777344,13.240489959716797,-92.72242736816406,29.12995147705078
1,825223,21.24573516845703,59.06698226928711,-4.654738426208496,44.21550750732422
1,825226,53.678802490234375,-46.151607513427734,49.600341796875,-55.521324157714844
1,825227,-15.449748992919922,-1.665128231048584,-0.5858058333396912,-32.44315719604492
1,825230,-53.336578369140625,-8.452898979187012,-2.6666452884674072,36.533607482910156
1,825231,-35.27680587768555,-57.49849319458008,-1.0310872793197632,1.0577366352081299
1,825234,29.431163787841797,32.981021881103516,-33.082862854003906,0.5948781967163086
1,825235,58.38325119018555,75.71548461914062,-14.630525588989258,30.14133071899414
1,825238,21.826017379760742,21.673688888549805,54.3748893737793,-35.59926986694336
1,825239,-23.033599853515625,-31.610746383666992,29.108871459960938,-26.087875366210938
1,825242,-37.61301803588867,-66.61357879638672,-72.08228302001953,34.72294998168945
1,825243,9.407697677612305,-47.00752258300781,-21.749914169311523,2.892131805419922
1,825246,2.165112257003784,3.972942590713501,37.10262680053711,12.006769180297852
1,825247,-15.848119735717773,22.17645263671875,0.47266170382499695,18.95178985595703
1,825250,8.13359546661377,45.43233871459961,18.651535034179688,-22.965517044067383
1,825251,10.124579429626465,50.31144332885742,-0.31252872943878174,-22.28534698486328
1,825254,31.706865310668945,-2.836638927459717,-6.32633113861084,1.4485334157943726
1,825256,10.215744972229004,-31.64815330505371,1.675351858139038,0.3388027846813202
1,825258,-38.398311614990234,36.966529846191406,3.2889857292175293,-9.04632568359375
1,825260,-14.168867111206055,7.777501106262207,-4.320186614990234,78.69750213623047
1,825262,-18.2459774017334,-57.22419738769531,-45.121307373046875,15.733293533325195
1,825264,1.6865745782852173,-50.34064865112305,10.582022666931152,-128.98814392089844
1,825266,69.70924377441406,-98.02318572998047,20.8313045501709,-12.350050926208496
1,825268,32.31828308105469,51.162147521972656,13.896224975585938,47.98626708984375
1,825269,-34.12308883666992,148.546875,21.65803337097168,19.99112319946289
1,825272,-47.189205169677734,-12.71645450592041,-22.30135726928711,41.87334442138672
1,825273,-39.53922653198242,-83.92204284667969,-33.37199783325195,5.825654029846191
1,825276,31.96207046508789,-0.30205729603767395,8.060980796813965,-56.957950592041016
1,825277,73.82518005371094,72.76191711425781,94.64827728271484,-42.69028091430664
1,825280,-13.317293167114258,14.301898002624512,-15.298343658447266,40.7076416015625
1,825281,-75.90962982177734,3.876804828643799,-103.4527359008789,49.84721755981445
1,825285,31.65525245666504,9.205023765563965,37.51131820678711,-40.007781982421875
1,825285,71.69758605957031,-13.180607795715332,31.85341453552246,-57.08185577392578
1,825288,-61.164825439453125,78.30558776855469,-19.094722747802734,38.83981704711914
1,825289,-70.2260971069336,69.52510070800781,-13.735994338989258,30.841054916381836
1,825292,14.285405158996582,-323.4572448730469,-4.056161403656006,-7.3503031730651855
1,825293,-0.2708667516708374,-245.7384033203125,-3.3058571815490723,4.62396240234375
1,825296,-9.602850914001465,314.8133850097656,4.612355709075928,-6.491336822509766
1,825297,58.72265625,176.0945281982422,59.17076110839844,-1.351470947265625
1,825300,25.351804733276367,-87.02334594726562,-36.019317626953125,17.240459442138672
1,825301,-39.34935760498047,-32.83893585205078,-64.02407836914062,12.518681526184082
1,825304,-21.293048858642578,-1.2515156269073486,43.16401672363281,-20.512895584106445
1,825305,10.034296989440918,2.805647611618042,28.72105598449707,-20.949743270874023
1,825308,48.65419006347656,11.220124244689941,-2.387425661087036,-4.2057952880859375
1,825309,35.89786148071289,44.47566604614258,-0.7767030000686646,23.242219924926758
1,825312,-23.116090774536133,10.145468711853027,-53.721038818359375,-7.666432857513428
1,825313,-53.78132629394531,-31.603919982910156,-51.792606353759766,-48.391414642333984
1,825316,48.38921356201172,-92.61055755615234,92.12794494628906,47.76837158203125
1,825317,56.923240661621094,-77.22051239013672,86.45325469970703,55.74311065673828
1,825320,-100.04177856445312,75.5941162109375,-80.04536437988281,-43.953285217285156
1,825321,-59.307132720947266,58.04352569580078,-75.23118591308594,-33.42148971557617
1,825324,31.68212127685547,14.026765823364258,40.17621994018555,29.40340232849121
1,825325,14.614167213439941,74.56463623046875,75.35737609863281,11.711033821105957
1,825328,-16.85711097717285,-29.71003532409668,-10.870903968811035,-40.828853607177734
1,825329,13.765702247619629,-114.67523193359375,-48.85958480834961,7.040228843688965
1,825332,86.7444839477539,10.663858413696289,14.862552642822266,40.348140716552734
1,825333,-4.631781101226807,94.21757507324219,-17.4190616607666,-20.04355812072754
1,825336,-57.22399139404297,0.09400072693824768,20.388137817382812,-21.667451858520508
1,825337,25.057018280029297,-36.88948059082031,62.86821365356445,-3.917679786682129
1,825340,-8.58319091796875,39.16847229003906,-83.25336456298828,-27.26248550415039
1,825341,-69.69786834716797,29.09883689880371,-66.32305908203125,-0.25855618715286255
1,825344,-33.982513427734375,-24.553672790527344,57.90674591064453,124.92314910888672
1,825345,28.565067291259766,-89.38237762451172,38.878929138183594,91.84212493896484
1,825348,86.88211822509766,-155.79196166992188,-2.455909013748169,-148.9391632080078
1,825349,27.218996047973633,31.194292068481445,-25.108844757080078,-110.186279296875
1,825352,-76.18582153320312,267.4609680175781,-6.460700511932373,57.30641555786133
1,825353,-21.069719314575195,67.59129333496094,8.158405303955078,35.08080291748047
1,825356,85.36553955078125,-139.5057373046875,4.626330375671387,-12.90356159210205
1,825357,92.94933319091797,-36.16611862182617,61.32883834838867,-5.800073146820068
1,825360,-66.50332641601562,4.958509922027588,-13.994260787963867,-2.2748422622680664
1,825361,-119.91483306884766,-2.6022303104400635,-110.64674377441406,-27.434900283813477
1,825364,38.10798263549805,-52.08076858520508,10.27920150756836,35.970314025878906
1,825365,32.87378692626953,-65.36626434326172,95.7972412109375,49.56245422363281
1,825368,-32.75548553466797,78.06863403320312,16.766931533813477,-51.862117767333984
1,825369,27.251779556274414,142.23086547851562,-38.82862091064453,-5.54154109954834
1,825372,-9.09878158569336,10.096776962280273,-16.965465545654297,34.832767486572266
1,825373,-34.06172561645508,-107.03567504882812,-54.69585418701172,-38.026527404785156
1,825376,18.863433837890625,-70.7060317993164,17.319482803344727,12.537501335144043
1,825377,21.019126892089844,-24.169719696044922,100.99898529052734,30.74698257446289
1,825380,-30.061243057250977,104.90553283691406,-48.572078704833984,-15.516921043395996
1,825381,-36.66990661621094,83.75565338134766,-76.77139282226562,-11.416899681091309
1,825384,40.65681076049805,-154.96762084960938,26.671531677246094,-11.153470993041992
1,825385,39.885433197021484,-55.991573333740234,61.63419723510742,12.0432710647583
1,825388,9.23093318939209,145.04299926757812,23.322471618652344,26.681354522705078
1,825389,-24.642187118530273,46.012657165527344,-63.17094802856445,-0.9670401811599731
1,825392,1.0581393241882324,-54.43211364746094,-26.99907684326172,-26.11273956298828
1,825393,25.435850143432617,-1.7085820436477661,8.796704292297363,-1.6703555583953857
1,825396,-65.41132354736328,86.65364074707031,33.393001556396484,-10.655702590942383
1,825397,-43.03611755371094,40.3875617980957,81.35745239257812,-8.183732032775879
1,825400,92.22869110107422,-289.01141357421875,-62.99695587158203,50.03422546386719
1,825401,51.42453384399414,-202.9161376953125,-74.42200469970703,4.636403560638428
1,825404,-52.85441970825195,313.7084045410156,69.02992248535156,-37.562984466552734
1,825405,-7.446885585784912,160.87937927246094,26.09712791442871,4.330909729003906
1,825408,-51.72882843017578,-66.20718383789062,-59.03274917602539,-12.671773910522461
1,825409,-57.30647277832031,28.44055938720703,-28.21776008605957,-35.1810188293457
1,825412,94.33706665039062,-125.77665710449219,32.176605224609375,53.783958435058594
1,825413,67.78038024902344,-106.96260070800781,-10.592490196228027,55.784297943115234
1,825416,-38.085044860839844,133.5690155029297,21.745882034301758,14.163363456726074
1,825417,11.49743938446045,113.27136993408203,80.6705093383789,-12.357773780822754
1,825420,-22.03251838684082,-42.22346115112305,-82.01360321044922,-99.62378692626953
1,825421,-28.749820709228516,-59.66612243652344,-81.07418060302734,-20.057880401611328
1,825424,-32.69759750366211,-39.096641540527344,78.73688507080078,49.61018753051758
1,825425,-66.6246566772461,-23.77643394470215,29.787757873535156,5.231940746307373
1,825428,101.0715103149414,63.914066314697266,10.620777130126953,3.754645586013794
1,825429,84.98530578613281,20.041515350341797,16.343647003173828,9.096776008605957
1,825432,-33.13924789428711,-55.77815246582031,-43.358062744140625,0.3687172830104828
1,825433,-57.61283493041992,-2.107088565826416,-58.72959899902344,-37.62620162963867
1,825436,-22.873544692993164,14.991859436035156,16.5528507232666,-24.0107421875
1,825437,52.842044830322266,85.3225326538086,97.17207336425781,62.10319519042969
1,825440,-2.309937000274658,23.47911262512207,-34.775875091552734,-14.49557113647461
1,825441,-27.24365997314453,-101.46686553955078,-97.35626983642578,-71.40670013427734
1,825444,75.45986938476562,-33.90536117553711,48.17422103881836,97.66657257080078
1,825446,72.80432891845703,-18.90459632873535,60.90006637573242,103.29824829101562
1,825448,-76.47193908691406,11.141837120056152,-19.38750648498535,-128.1840057373047
1,825450,-95.2846908569336,72.41212463378906,-21.478565216064453,-124.08312225341797
1,825452,-25.980426788330078,-3.3984873294830322,-4.158365726470947,132.4328155517578
1,825454,-74.11271667480469,-2.3967840671539307,-27.13536834716797,83.5069351196289
1,825456,94.29534149169922,10.993103981018066,37.39686584472656,-66.1060791015625
1,825458,211.5588836669922,-35.87959671020508,100.54052734375,-25.61077117919922
1,825459,-70.65787506103516,44.88114929199219,-54.945926666259766,-21.545576095581055
1,825462,-156.7545623779297,65.27764892578125,-88.47138214111328,11.522370338439941
1,825463,2.0155820846557617,-63.62895965576172,22.05583381652832,11.328641891479492
1,825466,100.11781311035156,-184.6209259033203,-3.5053436756134033,4.231996536254883
1,825467,-14.27054214477539,-2.7645835876464844,-18.746292114257812,15.895136833190918
1,825470,-74.45105743408203,105.82676696777344,12.458209991455078,-20.634929656982422
1,825473,55.67710494995117,14.237691879272461,32.271514892578125,32.11744689941406
1,825473,-10.876893997192383,76.03057098388672,-12.968695640563965,33.76557540893555
1,825476,-10.43116569519043,-26.342483520507812,-2.368098258972168,-80.4489517211914
1,825477,58.97914505004883,-6.170132160186768,54.3233528137207,-51.125492095947266
1,825480,-112.93187713623047,108.18852996826172,-56.97879409790039,65.27867126464844
1,825481,-41.596378326416016,-26.8262882232666,-54.5847282409668,27.17429542541504
1,825484,157.84896850585938,-97.0035400390625,65.0867691040039,-26.7550106048584
1,825485,5.176663398742676,0.16576898097991943,40.29418182373047,-0.5656352043151855
1,825488,-31.6356201171875,4.17234992980957,3.851069450378418,18.524173736572266
1,825489,46.24630355834961,-1.7895680665969849,-13.996874809265137,10.766694068908691
1,825492,-67.86241912841797,-28.70179557800293,-59.037818908691406,-22.718311309814453
1,825493,-109.13835906982422,-86.1962890625,-51.441097259521484,-35.80885314941406
1,825496,51.162349700927734,10.103058815002441,59.022090911865234,-61.287437438964844
1,825497,137.4978485107422,73.39622497558594,82.88430786132812,2.674565076828003
1,825500,-40.508182525634766,53.493141174316406,-52.834957122802734,114.7053451538086
1,825501,-79.04833984375,-3.6356825828552246,-48.63311767578125,-6.427478790283203
1,825504,26.802480697631836,55.0396728515625,43.820030212402344,-39.51145553588867
1,825505,46.713157653808594,79.00383758544922,39.485286712646484,97.04442596435547
1,825508,19.615699768066406,-127.85855865478516,4.872912406921387,-42.04917907714844
1,825509,-33.12945556640625,-142.0663299560547,-37.176578521728516,-81.02024841308594
1,825512,-20.607620239257812,88.16587829589844,-30.6081485748291,107.72896575927734
1,825513,-9.937314987182617,25.610057830810547,-8.556330680847168,28.03824234008789
1,825516,-2.516953706741333,-35.140682220458984,43.92721939086914,-81.02336883544922
1,825517,-15.27377986907959,69.24057006835938,54.76610565185547,-43.97055435180664
1,825520,24.320716857910156,23.90184211730957,-95.37397766113281,22.12132453918457
1,825521,78.81671142578125,-61.26139831542969,-61.42084503173828,49.91670608520508
1,825524,-78.21049499511719,-19.45853042602539,80.55574798583984,-32.255279541015625
1,825525,-90.12017822265625,118.54930877685547,21.54806900024414,-61.711944580078125
1,825528,25.051654815673828,-133.95767211914062,-5.155440330505371,46.73002243041992
1,825529,31.761350631713867,-248.87408447265625,8.838071823120117,43.80070495605469
1,825532,113.02405548095703,90.85135650634766,5.526933670043945,-18.708881378173828
1,825533,-35.456214904785156,143.49940490722656,-30.583343505859375,31.12737464904785
1,825536,-136.59474182128906,262.876220703125,7.687811374664307,-39.7711181640625
1,825537,51.40036392211914,183.7421875,82.12127685546875,-52.78232192993164
1,825540,-0.0383431650698185,-243.32064819335938,-90.11236572265625,13.618484497070312
1,825541,4.814638614654541,-252.543701171875,-110.30367279052734,30.810588836669922
1,825544,176.1404266357422,-251.6086883544922,83.88351440429688,77.84049224853516
1,825545,-21.775917053222656,6.964857578277588,80.51395416259766,12.156468391418457
1,825548,-146.33523559570312,535.0625,-14.597511291503906,-123.84005737304688
1,825549,48.88249969482422,314.98095703125,-27.549192428588867,-89.73485565185547
1,825552,12.053913116455078,-239.63189697265625,-3.836951732635498,51.562923431396484
1,825553,-82.49269104003906,-286.9351806640625,-41.299163818359375,52.795291900634766
1,825556,51.95799255371094,-166.21714782714844,24.246051788330078,42.06321716308594
1,825557,66.34886169433594,-72.82505798339844,88.43433380126953,33.64860916137695
1,825560,-90.71461486816406,167.64151000976562,-73.01295471191406,9.181726455688477
1,825561,-43.70170593261719,173.7704620361328,-62.21876525878906,-9.02324390411377
1,825564,52.996788024902344,16.86174774169922,78.73855590820312,-103.37196350097656
1,825565,27.455841064453125,25.664791107177734,43.26824188232422,-23.54840850830078
1,825568,32.26812744140625,-19.670494079589844,-22.176101684570312,91.33815002441406
1,825569,-11.436004638671875,-113.12191009521484,-41.52394104003906,8.77141284942627
1,825572,-33.24345779418945,-79.1799087524414,-39.49585723876953,-12.300524711608887
1,825573,-4.370094299316406,-79.4661636352539,-26.89326286315918,12.923018455505371
1,825576,71.41619873046875,78.43962097167969,75.52098846435547,-4.206483840942383
1,825577,78.7555923461914,217.1066436767578,92.46441650390625,23.609683990478516
1,825580,-200.37841796875,44.92739486694336,-101.5494155883789,-44.96906280517578
1,825581,-226.47085571289062,-5.321816921234131,-83.27467346191406,-94.89080047607422
1,825584,223.35458374023438,-228.41136169433594,81.75436401367188,68.65974426269531
1,825585,383.0906677246094,-438.3847351074219,49.692649841308594,176.54078674316406
1,825588,-164.0547637939453,231.5343780517578,1.8325990438461304,-45.2005615234375
1,825589,-402.34991455078125,572.4822387695312,-20.59132957458496,-216.32754516601562
1,825592,52.05570983886719,-27.412464141845703,-47.52333450317383,10.873315811157227
1,825593,175.93017578125,-123.69840240478516,-39.553890228271484,99.34001922607422
