Aktueller Finger,timestamp_ms,sensor_0,sensor_1,sensor_2,sensor_3
0,130652,-70.60144805908203,66.9112777709961,42.16433334350586,51.977508544921875
0,130652,41.64906692504883,47.774906158447266,13.094925880432129,13.470683097839355
0,130654,-5.284313678741455,-27.47314453125,-41.21656799316406,-4.277028560638428
0,130655,-26.767099380493164,-19.843303680419922,-22.073144912719727,-16.784765243530273
0,130658,-20.670639038085938,-25.366058349609375,40.663455963134766,-27.025455474853516
0,130659,-27.759729385375977,24.375904083251953,9.65668773651123,18.396610260009766
0,130662,51.361228942871094,46.64906692504883,-18.586063385009766,17.175582885742188
0,130663,85.18898010253906,-5.1033430099487305,19.728633880615234,-7.636326313018799
0,130666,-5.077022075653076,-14.549980163574219,-0.2829819321632385,26.87937355041504
0,130667,-20.581933975219727,12.84239387512207,-4.049580097198486,-4.558236598968506
0,130670,2.0223052501678467,-24.495254516601562,-8.94636344909668,-28.952049255371094
0,130671,-20.924888610839844,-35.334693908691406,-23.72677230834961,1.0773135423660278
0,130674,3.3114984035491943,55.88654708862305,42.053306579589844,-11.133140563964844
0,130675,-8.349820137023926,16.887428283691406,14.75624942779541,9.061810493469238
0,130678,-48.09405517578125,-59.92842102050781,-47.0843391418457,9.113729476928711
0,130679,-31.323938369750977,-24.20441436767578,-10.181283950805664,-22.60933494567871
0,130682,123.65310668945312,8.314706802368164,10.929657936096191,10.103955268859863
0,130683,92.55967712402344,33.73646926879883,32.80809783935547,36.9106559753418
0,130686,-117.66793823242188,9.98356819152832,-9.613737106323242,-29.15628433227539
0,130687,-31.473045349121094,36.04930114746094,-42.288177490234375,-36.803558349609375
0,130690,-25.046064376831055,-7.704627513885498,30.633935928344727,34.979007720947266
0,130691,-4.473917484283447,-139.4853057861328,47.819854736328125,30.33930206298828
0,130694,103.01319885253906,14.048615455627441,-24.06503677368164,-25.98318099975586
0,130695,-45.806922912597656,168.13101196289062,-27.754295349121094,-8.608111381530762
0,130698,-105.94117736816406,15.602618217468262,18.890869140625,22.661270141601562
0,130699,-12.696435928344727,-63.5582275390625,-14.110506057739258,-8.009450912475586
0,130702,132.9798126220703,-4.999451637268066,-17.67173957824707,-14.628986358642578
0,130703,130.51266479492188,-7.27126932144165,16.109941482543945,-9.120500564575195
0,130706,-170.7581329345703,-36.98908615112305,22.270109176635742,17.94065284729004
0,130707,-181.90145874023438,-47.8885498046875,1.8782566785812378,17.16340446472168
0,130710,173.5968475341797,113.51739501953125,-16.128400802612305,-5.5347466468811035
0,130711,167.9786376953125,127.49853515625,12.532078742980957,-5.447824001312256
0,130714,-136.8151397705078,-170.0121307373047,-11.126764297485352,-28.615787506103516
0,130715,-75.12667846679688,-146.7254638671875,-41.54546356201172,-7.417806625366211
0,130718,93.35322570800781,89.9853286743164,9.038333892822266,9.75020694732666
0,130719,-1.5649687051773071,26.066648483276367,43.013797760009766,14.95841121673584
0,130722,-47.8428955078125,-15.227553367614746,18.711076736450195,23.3963565826416
0,130723,9.605536460876465,53.458648681640625,-29.385730743408203,-3.5181467533111572
0,130726,10.572250366210938,8.652178764343262,-12.445870399475098,-3.989323616027832
0,130727,-34.28337478637695,3.7836785316467285,13.080015182495117,-3.2367491722106934
0,130730,10.095585823059082,-11.560538291931152,-20.6174259185791,-12.539068222045898
0,130731,26.260225296020508,-21.717975616455078,-8.766426086425781,2.4301791191101074
0,130734,-17.51815414428711,16.513154983520508,33.3420524597168,9.197824478149414
0,130735,34.02702713012695,-1.357507586479187,12.66661548614502,-4.4129133224487305
0,130738,-1.4494866132736206,-31.60552978515625,-16.122142791748047,-19.0742244720459
0,130739,-56.16986083984375,-12.245408058166504,-12.858138084411621,-15.207866668701172
0,130742,36.83322525024414,51.20866012573242,-4.6704277992248535,12.593008041381836
0,130743,5.389225959777832,10.336792945861816,11.144803047180176,6.563405513763428
0,130746,-36.56448745727539,-43.205047607421875,-7.870072364807129,11.024550437927246
0,130747,41.86851501464844,20.775697708129883,4.934729099273682,14.429288864135742
0,130750,30.053817749023438,16.12420654296875,28.944181442260742,-18.895496368408203
0,130751,-4.960181713104248,-18.162151336669922,-14.312247276306152,-5.049722194671631
0,130754,-43.39118957519531,25.541847229003906,-13.71171760559082,8.96737289428711
0,130755,-57.75223922729492,2.3966991901397705,10.198593139648438,4.438638210296631
0,130758,56.94781494140625,-45.30295181274414,0.6290666460990906,14.887589454650879
0,130759,15.270164489746094,-0.9892178773880005,-4.086957931518555,1.4610064029693604
0,130762,-103.71227264404297,28.359111785888672,1.2779675722122192,-8.354806900024414
0,130763,30.01723289489746,-9.113582611083984,-13.234548568725586,-17.53904151916504
0,130766,217.6946258544922,20.890287399291992,14.450738906860352,6.51972770690918
0,130767,73.35684967041016,63.16775894165039,34.254371643066406,41.021873474121094
0,130770,-311.32379150390625,7.369470596313477,-42.27330017089844,-42.41164779663086
0,130771,-151.35079956054688,-67.40288543701172,-30.418813705444336,-41.94900131225586
0,130774,217.1160430908203,-217.52146911621094,17.18474006652832,32.09819412231445
0,130775,105.47915649414062,-22.278980255126953,6.744185447692871,26.284109115600586
0,130778,-12.432232856750488,228.6517333984375,4.133555889129639,-1.6171516180038452
0,130779,-63.279972076416016,-8.664132118225098,-1.6301614046096802,-29.248451232910156
0,130782,-114.6232681274414,29.63203239440918,0.6357869505882263,-1.2244248390197754
0,131037,33.566402435302734,78.93657684326172,-1.5112056732177734,30.797060012817383
0,131038,100.46800231933594,-120.52235412597656,13.460223197937012,6.474819183349609
0,131041,-9.753117561340332,-25.808231353759766,14.445839881896973,-28.531925201416016
0,131042,-23.767606735229492,64.77764892578125,-31.399744033813477,-10.379652976989746
0,131045,43.50067901611328,10.875972747802734,4.102715492248535,15.171737670898438
0,191530,5.513252258300781,6.37954568862915,45.6328239440918,9.076001167297363
0,191532,-56.0938606262207,-11.247798919677734,-16.99666976928711,-5.9840168952941895
0,191533,3.5746536254882812,-35.78068161010742,-30.23740577697754,-8.543402671813965
0,191536,24.05276870727539,-0.898033857345581,1.7152338027954102,20.126962661743164
0,191537,-8.729233741760254,-7.057249069213867,1.536849856376648,-1.0576841831207275
0,191540,2.977038860321045,-19.52112579345703,2.052055597305298,-45.321197509765625
0,191541,-14.378594398498535,10.971360206604004,-8.567431449890137,10.235397338867188
0,191544,-4.5331711769104,23.14276695251465,-4.664181232452393,44.29314041137695
0,191545,3.007805824279785,-17.78180503845215,13.649572372436523,-9.007035255432129
0,191548,-34.93141174316406,-11.835963249206543,-3.2215676307678223,-24.80272674560547
0,191549,-2.700033187866211,71.09496307373047,9.077432632446289,17.229541778564453
0,191552,45.738258361816406,34.7120475769043,8.910918235778809,25.299455642700195
0,191553,15.591646194458008,-49.95040512084961,-15.641023635864258,-28.42598533630371
0,191556,10.02275276184082,-58.710411071777344,11.320111274719238,-16.773914337158203
0,191557,90.44523620605469,-31.771516799926758,6.96574592590332,22.975027084350586
0,191560,-69.02516174316406,-4.223597049713135,-21.47701072692871,-10.336865425109863
0,191561,-171.40370178222656,31.323448181152344,-5.11710262298584,-13.010222434997559
0,191564,73.22325897216797,36.669036865234375,9.002446174621582,24.773164749145508
0,191565,59.91521453857422,2.8848965167999268,6.363282203674316,7.437793731689453
0,191568,-24.914419174194336,-9.808462142944336,3.0085999965667725,-21.973281860351562
0,191569,25.526033401489258,-13.36986255645752,-8.215076446533203,-14.751606941223145
0,191572,1.148655652999878,7.191430568695068,-14.688237190246582,16.495214462280273
0,191573,1.8928089141845703,36.19712448120117,12.17386245727539,17.557985305786133
0,191576,-34.4732666015625,7.137515544891357,2.5634520053863525,-22.12322235107422
0,191577,-31.21429443359375,-42.93744659423828,-4.913895130157471,2.404623508453369
0,191580,39.35749816894531,-26.595687866210938,25.68539047241211,27.220287322998047
0,191581,23.720478057861328,18.592744827270508,-15.194469451904297,2.4194939136505127
0,191584,-0.11168096959590912,16.568397521972656,-19.125263214111328,-9.345562934875488
0,191585,12.649880409240723,6.508896827697754,22.776777267456055,-31.963178634643555
0,191588,-24.086135864257812,11.16457462310791,10.721333503723145,0.2153686136007309
0,191589,-22.151134490966797,-11.427803039550781,-18.888525009155273,25.352144241333008
0,191592,28.63332748413086,-36.411354064941406,-10.208608627319336,-14.649914741516113
0,191593,2.097417116165161,-41.405155181884766,16.071203231811523,11.866881370544434
0,191596,-18.258705139160156,78.43086242675781,8.191306114196777,20.54888153076172
0,191597,19.163490295410156,97.5322265625,-6.457586765289307,-34.65354919433594
0,191600,-15.169651985168457,-89.28791809082031,-12.675747871398926,-21.543460845947266
0,191601,-22.474023818969727,-65.77352905273438,1.890340805053711,10.709847450256348
0,191604,33.42646026611328,39.68495559692383,8.451476097106934,9.274584770202637
0,191605,6.174878120422363,15.319973945617676,-1.7279157638549805,32.26495361328125
0,191608,-16.535511016845703,-20.774320602416992,-6.317522048950195,5.736828327178955
0,191609,1.5563017129898071,9.892215728759766,2.6305019855499268,-19.912059783935547
0,191612,8.232076644897461,24.87607765197754,8.286428451538086,-0.9047651886940002
0,191613,-0.935238778591156,-15.134449005126953,-21.416912078857422,-15.921148300170898
0,191616,-1.5813039541244507,-3.4428722858428955,-5.234498500823975,-0.90611732006073
0,191617,1.5736021995544434,8.005472183227539,24.921525955200195,18.037273406982422
0,191620,-12.244917869567871,-16.048980712890625,-4.506227016448975,-5.1700639724731445
0,191621,-21.054241180419922,-15.586788177490234,-18.440980911254883,-20.013521194458008
0,191624,14.12397575378418,9.372527122497559,7.080545425415039,3.699019193649292
0,191625,37.177669525146484,28.59552764892578,-3.6877856254577637,26.18901824951172
0,191628,-2.253582000732422,12.924498558044434,0.706113338470459,4.002957344055176
0,191629,-18.82663345336914,-21.445825576782227,36.03165817260742,-9.517736434936523
0,191632,-2.181957483291626,-33.142757415771484,-4.438130855560303,-1.1709694862365723
0,191633,5.403561115264893,-3.329261302947998,-25.160669326782227,-4.395021915435791
0,191636,-3.9045302867889404,58.72018814086914,16.97295379638672,0.20865878462791443
0,191637,-9.634429931640625,28.486915588378906,13.15644359588623,15.865647315979004
0,191640,-13.133692741394043,-33.6663818359375,-19.140504837036133,-11.186716079711914
0,191641,15.235150337219238,-52.6042594909668,-26.423181533813477,-13.646038055419922
0,191644,-0.26808929443359375,-11.606876373291016,6.714200973510742,22.515195846557617
0,191645,17.410661697387695,38.54247283935547,32.1989860534668,-7.3429789543151855
0,191648,17.475418090820312,-14.527886390686035,-13.153040885925293,-24.554428100585938
0,191649,-49.06279754638672,-14.399426460266113,-8.026532173156738,5.147530555725098
0,191652,12.529380798339844,25.129640579223633,28.330663681030273,21.388578414916992
0,191653,0.20629334449768066,5.301916122436523,-8.208122253417969,-14.871137619018555
0,191656,-14.814650535583496,-23.01266860961914,-22.03430938720703,-8.184676170349121
0,191657,19.66419792175293,-3.896169424057007,-22.70635414123535,22.720840454101562
0,191660,19.499719619750977,47.718177795410156,6.1536383628845215,-0.03286530077457428
0,191661,-0.7151064872741699,20.03407096862793,38.42284393310547,-4.520438194274902
0,191664,-47.408267974853516,-44.44557571411133,-14.217272758483887,-17.79071044921875
0,191665,16.916671752929688,-8.107868194580078,-17.28135108947754,-0.37168818712234497
0,191668,36.30889129638672,37.067604064941406,17.80136489868164,21.053539276123047
0,191669,-6.897412300109863,16.83843231201172,10.439460754394531,3.9035298824310303
0,191672,-7.5708699226379395,-27.59325408935547,-10.395244598388672,-18.755586624145508
0,191673,-5.353165149688721,-28.52323341369629,-15.691773414611816,-21.012210845947266
0,191676,1.6465510129928589,-30.85308837890625,-5.555100917816162,14.243446350097656
0,191677,3.7406702041625977,7.762277603149414,25.89507484436035,15.28346061706543
0,191680,9.621003150939941,75.09656524658203,29.568952560424805,7.657257556915283
0,191681,2.623962163925171,4.3795013427734375,-36.23488998413086,8.060763359069824
0,191684,-23.711135864257812,-38.27162170410156,-23.541431427001953,-6.059871673583984
0,191685,-16.004150390625,-29.372440338134766,14.957244873046875,-8.523629188537598
0,191689,28.20942497253418,6.33190393447876,-0.541780948638916,-22.286785125732422
0,191690,-2.6040921211242676,14.062928199768066,10.388632774353027,2.1459147930145264
0,191691,-26.597482681274414,2.939793348312378,1.404168963432312,18.21465492248535
0,191694,20.172800064086914,12.179579734802246,-23.20429039001465,2.160727024078369
0,191695,6.193191051483154,-20.08319854736328,14.20317268371582,16.3150634765625
0,191698,-18.06755256652832,9.32894229888916,28.006216049194336,-12.326212882995605
0,191699,-3.6389694213867188,-4.018558025360107,6.782994747161865,-7.5555338859558105
0,191702,-5.385921478271484,-18.65677261352539,-8.166425704956055,26.756521224975586
0,191703,9.488286018371582,37.147216796875,-28.52364158630371,-29.05103302001953
0,191706,25.14603614807129,-1.4100905656814575,5.700719833374023,-21.82721710205078
0,191707,5.233530521392822,-80.88471984863281,7.042176246643066,20.414152145385742
0,191710,12.957935333251953,-0.8477910757064819,-8.455955505371094,7.070163249969482
0,191711,17.062335968017578,109.97736358642578,2.574176073074341,4.509437561035156
0,191714,-44.92632293701172,44.00572204589844,-19.970691680908203,-3.3158600330352783
0,191715,-40.31232833862305,-36.543155670166016,3.4856035709381104,-12.970961570739746
0,191718,18.204648971557617,-35.05467224121094,32.19073486328125,0.5621419548988342
0,191719,2.6912801265716553,-12.49787425994873,3.008876323699951,17.54014015197754
0,191722,14.135313034057617,-29.24057388305664,-25.44789695739746,-7.384280681610107
0,191723,28.05353546142578,5.929398536682129,-11.362003326416016,-4.582156658172607
0,191726,-23.16873550415039,50.11883544921875,21.054201126098633,21.01242446899414
0,191727,-25.494754791259766,-3.544607639312744,16.520671844482422,-8.427281379699707
0,191730,8.99456787109375,-23.190702438354492,-7.8608317375183105,-21.69708251953125
0,191731,8.596707344055176,0.8912279009819031,2.9630165100097656,17.212156295776367
0,191734,4.48362398147583,-9.575368881225586,7.405623435974121,6.284178733825684
0,191735,2.481973171234131,-29.9349308013916,-21.260351181030273,-9.101669311523438
0,191738,-6.088690757751465,19.228172302246094,-3.620059013366699,15.023836135864258
0,191739,-3.8259212970733643,19.742090225219727,-2.978105306625366,-19.306819915771484
0,191742,12.47927188873291,-31.0598201751709,-19.475168228149414,-25.29464340209961
0,191743,21.076820373535156,22.604215621948242,21.000200271606445,18.653444290161133
0,191746,-14.70046615600586,27.104724884033203,3.844799518585205,7.46931791305542
0,191747,-33.53834915161133,-20.492761611938477,-3.0043625831604004,8.894357681274414
0,191750,15.969733238220215,22.53757095336914,24.031124114990234,15.269185066223145
0,191751,18.755449295043945,11.37038516998291,-29.142547607421875,-17.210004806518555
0,191754,-10.94849681854248,-44.56159591674805,-8.19848918914795,-11.119673728942871
0,191755,-13.006521224975586,-4.668824672698975,29.469575881958008,7.101062297821045
0,191758,-9.136927604675293,19.572265625,-7.14469575881958,31.264270782470703
0,191759,29.036123275756836,-9.782691955566406,7.506285667419434,-11.43216609954834
0,191762,22.464771270751953,-11.627054214477539,-7.957897663116455,-70.40182495117188
0,191763,-21.98162269592285,34.27622604370117,-29.006637573242188,25.884363174438477
0,191766,-15.331000328063965,15.170965194702148,21.353797912597656,44.255462646484375
0,191767,-8.83234977722168,-48.4678840637207,19.8504695892334,-23.369596481323242
0,191770,-14.958832740783691,-7.358625888824463,-0.1108151525259018,-4.837347030639648
0,191771,32.84743118286133,26.289209365844727,-2.403838634490967,11.65746021270752
0,191774,39.248172760009766,-9.463089942932129,-29.827253341674805,3.933558940887451
0,191775,5.079106330871582,-10.785248756408691,1.1761780977249146,-25.23853874206543
0,191778,-36.10752868652344,11.250068664550781,29.154273986816406,-2.334343194961548
0,191779,-55.37726974487305,-3.513306140899658,-15.118850708007812,27.429433822631836
0,191782,49.18401336669922,10.925792694091797,-20.14523696899414,-18.132883071899414
0,191783,7.266946792602539,14.017217636108398,14.000250816345215,6.511882781982422
0,191786,-57.38421630859375,-7.306391716003418,14.296782493591309,18.535017013549805
0,191787,42.01702117919922,-11.991569519042969,3.086808204650879,-19.840932846069336
0,191790,25.513229370117188,-19.665029525756836,-14.880777359008789,-8.013361930847168
0,191791,-14.140851020812988,25.546184539794922,-5.037765026092529,8.798494338989258
0,191794,-24.78722381591797,63.85282897949219,16.69449806213379,10.373774528503418
0,191795,-20.12125015258789,-0.21808645129203796,6.317501068115234,2.458376169204712
0,191798,27.972742080688477,-57.03001022338867,-1.9554122686386108,3.410128116607666
0,191799,4.0478081703186035,-43.571922302246094,-9.479195594787598,-2.8235108852386475
0,191802,8.55245304107666,-20.053878784179688,-16.30866050720215,-6.690566539764404
0,191803,29.689245223999023,28.174997329711914,2.5622174739837646,-11.088390350341797
0,191806,-19.398983001708984,34.026039123535156,12.182953834533691,-0.5872887969017029
0,191807,-14.665960311889648,-5.547082901000977,-4.855688095092773,23.965972900390625
0,191810,2.45242977142334,0.486020565032959,11.248702049255371,3.7000210285186768
0,191811,-13.119035720825195,-11.602357864379883,-18.963680267333984,-14.882081985473633
0,191814,19.02170753479004,2.4655861854553223,-8.375612258911133,-1.9851300716400146
0,191815,-6.7121782302856445,21.081579208374023,44.09749221801758,-0.2506842315196991
0,191818,-25.095008850097656,-21.99706268310547,-2.874642848968506,-16.27240562438965
0,191819,34.763771057128906,-11.19455337524414,1.8251088857650757,3.0965065956115723
0,191822,27.133005142211914,32.862483978271484,3.2173235416412354,32.0938606262207
0,191823,-26.792999267578125,34.639007568359375,-40.38713455200195,-5.075840473175049
0,191826,-34.08209991455078,-22.14753532409668,-8.714418411254883,-27.219457626342773
0,191827,13.703063011169434,-34.33665084838867,42.34149932861328,-8.243340492248535
0,191830,27.942779541015625,2.399319648742676,4.798308849334717,19.960235595703125
0,191831,-6.76138162612915,-12.733412742614746,-47.968589782714844,13.25529956817627
0,191834,-7.179490566253662,-23.621793746948242,-6.263709545135498,-20.069133758544922
0,191835,9.310123443603516,9.838937759399414,27.03391456604004,-12.17214298248291
0,191838,-6.0981268882751465,37.93165969848633,5.802539825439453,17.74050521850586
0,191839,-7.3788676261901855,28.405569076538086,-15.823307991027832,14.031648635864258
0,191842,-29.029497146606445,-6.271616458892822,-3.0928094387054443,-30.932998657226562
0,191843,-12.57140064239502,-30.916696548461914,24.879148483276367,-7.424185276031494
0,191846,54.88448715209961,-14.299304962158203,16.533309936523438,39.677215576171875
0,191847,9.017210960388184,26.786714553833008,-13.58062744140625,6.083907127380371
0,191850,-36.81013107299805,6.286416530609131,-20.37750244140625,-35.6095085144043
0,191851,15.158636093139648,-13.669686317443848,-0.9609158039093018,-2.8619749546051025
0,191854,17.747896194458008,6.496573448181152,4.912477016448975,22.690330505371094
0,191856,-25.181062698364258,-11.705318450927734,9.28463363647461,-1.1008068323135376
0,191857,9.385370254516602,16.108020782470703,-1.4316290616989136,1.2607753276824951
0,191861,-1.66670823097229,-34.70292663574219,-17.49934959411621,4.08957052230835
0,191861,-34.113407135009766,-57.455230712890625,7.163792133331299,-6.4647932052612305
0,191864,30.162540435791016,14.436602592468262,15.990214347839355,-3.978947401046753
0,191865,42.7763557434082,-9.992757797241211,-19.090913772583008,-16.374889373779297
0,191868,5.826189041137695,92.9502944946289,6.2700276374816895,3.3580732345581055
0,191869,-31.50197410583496,120.28132629394531,43.80156326293945,41.12607955932617
0,191872,-55.23637390136719,-66.13020324707031,-18.805843353271484,4.682144641876221
0,191873,-16.10617446899414,-67.18767547607422,-41.78549575805664,-22.335519790649414
0,191876,22.953859329223633,-4.9247283935546875,17.3779296875,-8.964282989501953
0,191877,43.135433197021484,-22.20433235168457,24.697404861450195,-8.109070777893066
0,191880,44.01810836791992,36.70597839355469,-15.6985502243042,10.160555839538574
0,191881,-23.519861221313477,30.63876724243164,-8.380023956298828,12.233861923217773
0,191884,-60.30653762817383,-26.00611686706543,-2.42055082321167,-1.39060640335083
0,191885,1.5481898784637451,-14.867958068847656,5.203193664550781,-19.497299194335938
0,191888,30.595745086669922,-37.27650451660156,15.210248947143555,-14.367572784423828
0,191889,2.1837949752807617,16.7309513092041,-8.322278022766113,35.57969665527344
0,191892,6.148120403289795,1.8978220224380493,-0.9688234925270081,11.725174903869629
0,191893,7.187378883361816,-46.88541793823242,-10.48208236694336,-33.01237487792969
0,191896,18.233306884765625,59.29024124145508,-0.0154960248619318,-22.488508224487305
0,191897,-16.776641845703125,-1.1034727096557617,18.80072784423828,14.416437149047852
0,191900,-66.73530578613281,-21.75887680053711,-27.113264083862305,7.036755561828613
0,191901,35.68008804321289,27.38559913635254,-41.321407318115234,-19.378965377807617
0,191904,55.14675521850586,0.7578429579734802,18.17266273498535,28.749021530151367
0,191905,-43.19218063354492,33.306541442871094,70.6767578125,18.47730827331543
0,191908,-42.97356414794922,-18.059492111206055,-11.168852806091309,-37.557945251464844
0,191909,7.966716766357422,-22.260517120361328,-32.960445404052734,17.84817886352539
0,191912,36.24911117553711,16.620121002197266,29.29877471923828,15.277852058410645
0,191913,26.966602325439453,-17.2559871673584,-25.13328742980957,-55.284427642822266
0,191916,1.464882731437683,-12.806662559509277,-10.255789756774902,23.622594833374023
0,191917,-15.399709701538086,28.705961227416992,49.42983627319336,76.88160705566406
0,191920,-30.189186096191406,21.658348083496094,-23.067249298095703,25.237957000732422
0,191921,-10.584254264831543,-30.31429672241211,-44.3599853515625,-36.179534912109375
0,191924,28.273345947265625,-5.698925018310547,41.12743377685547,-105.95660400390625
0,191925,13.997222900390625,30.620370864868164,15.987985610961914,-64.71256256103516
0,191928,8.068856239318848,-9.699419975280762,-24.467376708984375,56.94664001464844
0,191929,-4.887340545654297,-45.076416015625,2.1801204681396484,93.27819061279297
0,191932,-33.80039596557617,5.795579433441162,-10.72616958618164,27.172306060791016
0,191933,-1.7582341432571411,71.51585388183594,-19.985124588012695,-41.4944953918457
0,191936,16.112308502197266,-16.869314193725586,20.27812385559082,-27.117149353027344
0,191937,-10.79703426361084,-71.1195297241211,31.80365753173828,22.111404418945312
0,191940,0.013586058281362057,29.57143211364746,-6.7818779945373535,-17.399572372436523
0,191941,4.187897682189941,7.523109436035156,-5.114615440368652,-73.72723388671875
0,191944,-5.703813076019287,-51.159568786621094,-1.7848347425460815,39.70323944091797
0,191945,19.537900924682617,10.026885986328125,-2.585495948791504,127.92060852050781
0,191948,-13.70129108428955,54.98069381713867,8.817883491516113,5.625555515289307
0,191949,33.1851921081543,20.032032012939453,-15.504735946655273,-58.97214889526367
0,191952,13.540464401245117,-21.954559326171875,-33.55379867553711,16.751197814941406
0,191953,-86.2495346069336,0.21441632509231567,25.052303314208984,-19.229124069213867
0,191956,3.728088140487671,24.43320083618164,40.074806213378906,-22.701457977294922
0,191957,18.297435760498047,-7.803757190704346,-9.121511459350586,38.81715774536133
0,191960,21.107032775878906,-92.01101684570312,-27.344863891601562,-94.9498062133789
0,191961,71.4026107788086,-158.97296142578125,-32.40825271606445,-87.17865753173828
0,191964,12.582063674926758,188.50979614257812,34.63106155395508,110.49759674072266
0,191965,47.01884078979492,324.5976867675781,48.12479782104492,140.7724609375
0,191968,-52.38343811035156,-229.25833129882812,-52.38334655761719,-73.26226806640625
0,191969,-208.0184783935547,-211.08279418945312,-18.868480682373047,-153.0506134033203
0,191972,14.996341705322266,111.92523956298828,40.935089111328125,58.685550689697266
0,191973,88.55609893798828,26.264060974121094,-20.345430374145508,77.68290710449219
0,191976,15.392157554626465,-10.581965446472168,6.928846836090088,-14.992849349975586
0,191977,36.647361755371094,34.926841735839844,17.899818420410156,-21.235727310180664
0,191980,20.71385383605957,55.91765594482422,-22.314184188842773,-27.486003875732422
0,191981,40.33033752441406,-0.2660750150680542,-14.419487953186035,46.5506477355957
0,191984,-97.66114044189453,-69.98757934570312,-13.176155090332031,30.563886642456055
0,191985,-108.12105560302734,-26.08496856689453,43.757015228271484,-41.771522521972656
0,191988,82.6934585571289,18.60835075378418,18.51532745361328,32.2255859375
0,191989,68.60202026367188,19.313684463500977,-107.20133972167969,84.0370101928711
0,191992,1.8561490774154663,-10.935174942016602,6.392183780670166,-27.9666805267334
0,191993,-1.0826594829559326,-35.6622314453125,129.93026733398438,-145.25369262695312
0,191996,-74.36207580566406,14.858052253723145,-19.450342178344727,-33.97236633300781
0,191997,-20.623092651367188,-1.47468101978302,-67.18070220947266,96.93872833251953
0,192000,75.66588592529297,-14.40169620513916,21.035266876220703,-7.149407386779785
0,192001,43.5588493347168,65.18792724609375,25.333702087402344,-14.821528434753418
0,192004,119.82011413574219,139.93084716796875,-4.147723197937012,89.61627197265625
0,192005,-33.51737594604492,9.638465881347656,18.547502517700195,-158.17782592773438
0,192008,-265.8749694824219,-262.5171203613281,-3.706923723220825,-143.25210571289062
0,192009,-90.90435791015625,-86.33926391601562,-32.8380241394043,132.1972198486328
0,192012,222.46868896484375,132.97047424316406,3.6527061462402344,139.236328125
0,192013,179.49746704101562,-15.008840560913086,-4.840922832489014,216.4892578125
0,192016,-178.29530334472656,72.76397705078125,15.162837028503418,-154.50758361816406
0,192017,-78.05367279052734,105.39405822753906,26.684850692749023,-281.1694641113281
0,192020,30.476186752319336,-63.127784729003906,-29.48760986328125,216.37673950195312
0,192023,-25.182737350463867,-161.169189453125,-40.03446578979492,57.329978942871094
0,192023,133.71490478515625,-108.0478744506836,1.2254444360733032,-108.11767578125
0,192026,48.29350662231445,210.20286560058594,31.947134017944336,53.22438049316406
0,192027,-35.49675369262695,161.32078552246094,-8.575339317321777,-36.260066986083984
0,192030,-113.46310424804688,-126.54497528076172,-12.338016510009766,-77.58460235595703
0,192031,-94.12823486328125,-70.42264556884766,30.034053802490234,-16.32832908630371
0,192034,146.80691528320312,17.180889129638672,-2.7171032428741455,47.882389068603516
0,192035,96.71875762939453,21.80803871154785,-28.458282470703125,55.246036529541016
0,192038,-96.33463287353516,7.806607246398926,3.6828417778015137,27.01150131225586
0,192039,-106.2700424194336,-29.136579513549805,21.541934967041016,-4.1448540687561035
0,192042,-12.221122741699219,-7.590210437774658,2.6054208278656006,-83.79212951660156
0,192043,17.0732479095459,38.28647232055664,-19.61486053466797,-25.092823028564453
0,192046,-2.159379005432129,25.023048400878906,-7.7783403396606445,87.80887603759766
0,192047,44.96314239501953,-72.6986312866211,14.70640754699707,31.135746002197266
0,192050,70.3174819946289,47.4261589050293,11.788145065307617,7.629866600036621
0,192051,18.2530460357666,88.28812408447266,16.897804260253906,39.57381820678711
0,192054,-3.253934144973755,-152.6788330078125,-8.006880760192871,-182.98370361328125
0,192055,-37.86774444580078,-46.22101593017578,-11.024828910827637,-73.11054229736328
0,192058,64.88433074951172,137.35269165039062,-11.08417797088623,308.2159423828125
0,192059,71.45365142822266,120.11034393310547,-18.177677154541016,85.9650650024414
0,192062,-197.83416748046875,-92.84111022949219,28.566640853881836,-135.265625
0,192063,-133.48876953125,-162.41600036621094,21.29393768310547,-150.2017822265625
0,192066,175.3492431640625,1.6261600255966187,3.172233819961548,-133.48406982421875
0,192067,163.80470275878906,-18.116043090820312,-35.12221908569336,-22.952953338623047
0,192070,-56.786590576171875,67.71401977539062,-30.537813186645508,100.0338363647461
0,192071,-111.92449951171875,80.03905487060547,24.4305362701416,188.70884704589844
0,192074,-76.07803344726562,-4.272791862487793,18.750892639160156,75.41031646728516
0,192075,27.340986251831055,9.319296836853027,19.469587326049805,-3.387390375137329
0,192078,75.68313598632812,-15.94720458984375,-22.30140495300293,-108.05524444580078
0,192079,-8.313931465148926,-12.098529815673828,-18.794527053833008,-119.43772888183594
0,192082,-41.78521728515625,-48.46597671508789,7.562350749969482,-130.98416137695312
0,192083,-107.65719604492188,-51.056976318359375,1.9684432744979858,50.67888259887695
0,192086,76.88745880126953,76.24266052246094,29.401073455810547,410.29534912109375
0,192087,274.3381652832031,99.36090087890625,-11.03959846496582,39.44826889038086
0,192090,-110.38732147216797,3.8845341205596924,-24.388839721679688,-290.81170654296875
0,192091,-171.61907958984375,-31.771039962768555,17.782394409179688,-151.6468048095703
0,192094,91.90408325195312,-114.45975494384766,-8.126172065734863,-111.781494140625
0,192095,3.69732666015625,-126.20890808105469,-11.931614875793457,55.52205276489258
0,192098,27.382463455200195,121.2181396484375,6.523245811462402,280.8388977050781
0,192099,78.38599395751953,157.88816833496094,2.828388214111328,112.50648498535156
0,192102,-94.97993469238281,-86.67436981201172,16.5479679107666,-132.00869750976562
0,192103,-154.4895782470703,-35.954185485839844,3.9233384132385254,16.264934539794922
0,192106,56.59619903564453,31.51595687866211,-15.147673606872559,-3.833925247192383
0,192107,62.515953063964844,1.607845425605774,-8.7985258102417,-187.31468200683594
0,192110,-32.037818908691406,8.408600807189941,-7.768849849700928,25.35480308532715
0,192111,17.942150115966797,-46.27820587158203,-6.109004974365234,299.6477355957031
0,192114,18.089160919189453,10.637931823730469,12.197839736938477,92.48329162597656
0,192115,-9.625320434570312,31.373334884643555,6.067526817321777,-260.9281921386719
0,192118,1.2902644872665405,-14.713348388671875,6.978749752044678,-373.0236511230469
0,192119,14.796813011169434,-4.762702465057373,13.20763111114502,-75.38741302490234
0,192122,-21.999427795410156,-15.02475357055664,-8.41473388671875,413.12469482421875
0,192123,9.275960922241211,20.417510986328125,-8.383437156677246,175.54136657714844
0,192126,45.445526123046875,122.08253479003906,19.999635696411133,-187.72792053222656
0,192127,9.020926475524902,31.097558975219727,11.685969352722168,6.088233470916748
0,192130,-10.297982215881348,-200.09654235839844,-19.34842300415039,245.49212646484375
0,192131,-4.508103370666504,-143.55224609375,-21.973955154418945,33.089107513427734
0,192134,-68.69879913330078,149.76011657714844,-36.86444854736328,-472.06915283203125
0,192135,-74.21903991699219,95.27828216552734,20.273292541503906,-347.8450927734375
0,192138,141.07676696777344,-108.22744750976562,52.155311584472656,492.0843811035156
0,192139,124.16117095947266,-29.49520492553711,-2.508333444595337,497.582763671875
0,192142,-44.8935432434082,65.09721374511719,-14.473434448242188,-294.4941711425781
0,192143,-29.34058380126953,79.2165756225586,-24.01753807067871,-239.3432159423828
0,192146,-202.47206115722656,10.018820762634277,18.49041748046875,-3.7060234546661377
0,192147,-81.16555786132812,-84.49679565429688,25.32291030883789,2.422557830810547
0,192150,252.59786987304688,75.82987213134766,-19.139001846313477,116.03299713134766
0,192151,54.7548713684082,99.90750122070312,-25.845203399658203,13.02055549621582
0,192154,-77.61003875732422,-175.2957305908203,5.755372524261475,-22.97237777709961
0,192155,-92.00999450683594,-113.16463470458984,9.48736572265625,20.509777069091797
0,192158,-46.10111999511719,-12.488335609436035,-30.455108642578125,-17.567975997924805
0,192159,31.35466766357422,6.303913593292236,22.475997924804688,-21.55377197265625
0,192162,9.129383087158203,215.71673583984375,27.418006896972656,23.679885864257812
0,192163,75.46184539794922,92.01825714111328,20.01860237121582,17.026844024658203
0,192166,60.23545837402344,-166.5590057373047,0.4714045226573944,-85.76541900634766
0,192167,71.44530487060547,-103.25183868408203,-71.28878021240234,-9.7890043258667
0,192170,-42.751224517822266,31.36623764038086,7.7365241050720215,121.00819396972656
0,192171,-120.42232513427734,80.48815155029297,45.2608642578125,-8.17322826385498
0,192174,0.8146308660507202,39.82182693481445,-1.9592856168746948,-151.098388671875
0,192175,24.852008819580078,-19.36676597595215,0.02552483044564724,38.69600296020508
0,192178,-3.058119773864746,-3.703972578048706,0.15939204394817352,182.9215087890625
0,192179,11.029801368713379,-4.767485618591309,1.4896587133407593,-58.4955940246582
0,192182,-5.549029350280762,-42.38672637939453,-33.887535095214844,-78.232177734375
0,192183,-9.290955543518066,-40.920654296875,-41.41965103149414,-39.19974899291992
0,192186,9.291108131408691,-19.112428665161133,10.900947570800781,-103.70294189453125
0,192187,-9.689796447753906,18.50791358947754,38.27605438232422,124.00029754638672
0,192190,-20.98566246032715,0.594505250453949,27.540544509887695,168.0825958251953
0,192191,-9.249604225158691,3.786670207977295,-2.4789626598358154,-85.35834503173828
0,192194,34.58798599243164,110.56451416015625,-21.616573333740234,-165.07568359375
0,192195,28.2236328125,104.98814392089844,-6.364460468292236,-16.334505081176758
0,192197,59.33360290527344,-28.919340133666992,19.220233917236328,146.98272705078125
0,192200,-41.12409210205078,-145.1499786376953,-5.205164432525635,103.63304138183594
0,192201,-124.07830810546875,-101.31739044189453,-11.007299423217773,-56.064552307128906
0,192204,75.9603271484375,64.53425598144531,18.841135025024414,-61.31096267700195
0,192205,29.054901123046875,52.33755874633789,-14.170023918151855,-3.2186625003814697
0,192208,-66.0767593383789,-34.453521728515625,-1.665907382965088,2.093851089477539
0,192209,46.73921203613281,-41.86587142944336,13.75409984588623,36.70665740966797
0,192212,38.871788024902344,0.3434419631958008,-16.52789306640625,-18.320524215698242
0,192213,35.23013687133789,72.63748168945312,15.96798038482666,-72.079833984375
0,192216,-42.54063034057617,45.987911224365234,10.33381175994873,22.861783981323242
0,192217,-98.55278015136719,8.453267097473145,-26.087234497070312,50.342018127441406
0,192220,47.26626968383789,-11.858818054199219,-7.045603275299072,-74.56217956542969
0,192221,32.239200592041016,-67.84607696533203,-4.003200531005859,-18.486440658569336
0,192224,-29.208650588989258,-28.57925796508789,4.517751693725586,147.92323303222656
0,192225,-3.2339279651641846,37.3741340637207,22.58171844482422,-0.727668285369873
0,192228,-3.0174288749694824,31.658567428588867,4.265621662139893,-164.05133056640625
0,192229,-0.7360547780990601,-5.443192958831787,3.33856463432312,-31.20102310180664
0,192232,-42.28434371948242,1.8948636054992676,-31.138309478759766,161.43307495117188
0,192233,-15.741212844848633,-9.119861602783203,-7.223539352416992,116.02296447753906
0,192236,125.29508209228516,-67.63126373291016,51.662113189697266,-73.5484390258789
0,192237,68.10071563720703,-19.0543212890625,-22.422401428222656,-134.9272003173828
0,192240,36.30704879760742,116.18965911865234,-27.731000900268555,-16.246604919433594
0,192241,-46.54460525512695,61.30671691894531,26.108356475830078,106.02802276611328
0,192244,-239.85902404785156,-101.77963256835938,-20.995590209960938,75.1965103149414
0,192245,-8.747638702392578,-63.11162185668945,-18.255992889404297,-47.6429328918457
0,192248,140.1147003173828,-24.75916862487793,34.22669219970703,-114.55335998535156
0,192249,92.36898803710938,-4.722604274749756,18.996530532836914,-33.25970458984375
0,192252,-1.1586880683898926,148.775634765625,-23.775592803955078,-63.070377349853516
0,192253,-138.40679931640625,177.96925354003906,-6.73063325881958,-34.56000518798828
0,192256,-47.98189163208008,-112.79756927490234,24.846498489379883,170.4551544189453
0,192257,62.005767822265625,-202.9033966064453,-3.7869937419891357,87.85189819335938
0,192260,75.73114013671875,17.91908836364746,-7.290463924407959,-21.592750549316406
0,192261,-12.462560653686523,66.79976654052734,-3.5090558528900146,18.089189529418945
0,192264,-29.437402725219727,-3.262373208999634,-24.914264678955078,-20.384302139282227
0,192265,37.398704528808594,34.00048065185547,9.2560453414917,-49.07408905029297
0,192268,-55.2776985168457,7.8699116706848145,43.1851692199707,-38.7784538269043
0,192269,-32.81023025512695,-82.34367370605469,-15.64304256439209,-9.924335479736328
0,192272,111.37139892578125,12.23922061920166,-32.44409942626953,39.919673919677734
0,192273,-4.814013481140137,31.503673553466797,17.433141708374023,43.20649719238281
0,192276,-122.593994140625,-53.73849105834961,0.8086025714874268,-21.942779541015625
0,192277,9.628127098083496,-18.02216911315918,-6.222850322723389,-13.477715492248535
0,192280,95.06846618652344,64.10973358154297,29.568016052246094,-48.738826751708984
0,192281,7.709521770477295,51.25558853149414,12.583486557006836,-98.03714752197266
0,192284,-83.56880950927734,11.045878410339355,-39.809837341308594,129.90989685058594
0,192285,-15.05561637878418,-11.773699760437012,-21.40679168701172,159.8997039794922
0,192288,60.66455078125,-22.320758819580078,35.299373626708984,-87.06370544433594
0,192289,40.19816207885742,3.4126977920532227,23.314970016479492,-82.58219146728516
0,192292,23.846378326416016,11.403950691223145,-17.224300384521484,6.372148513793945
0,192293,-46.91209030151367,19.8190860748291,-27.431129455566406,34.88328170776367
0,192296,-78.30023956298828,-65.89789581298828,-2.581997871398926,12.284412384033203
0,192297,6.396592617034912,-79.12986755371094,21.330055236816406,-40.71983337402344
0,192300,90.29561614990234,65.77961730957031,10.500511169433594,1.3199679851531982
0,192301,63.03169631958008,52.66800308227539,-8.579093933105469,6.073681831359863
0,192304,-83.33975982666016,-42.28938674926758,-24.765426635742188,-28.969402313232422
0,192305,-91.52410888671875,-33.833683013916016,-0.7048830986022949,-33.490203857421875
0,192308,47.80260467529297,-6.095612525939941,12.08341121673584,-8.753340721130371
0,192309,41.78177261352539,14.984195709228516,-7.101200103759766,41.5883674621582
0,192312,-41.79755401611328,45.21723556518555,7.0594048500061035,66.13172912597656
0,192313,-9.286857604980469,46.44070816040039,4.564846515655518,31.137619018554688
0,192316,30.11551284790039,-65.00132751464844,5.839351654052734,-57.08707809448242
0,192317,-8.682598114013672,-16.83026885986328,15.633088111877441,-33.3321418762207
0,192320,9.966485023498535,80.45211791992188,-1.334180474281311,46.54758834838867
0,192321,22.128421783447266,-33.75758361816406,-12.098456382751465,6.765292167663574
0,192324,8.03719425201416,41.46064758300781,2.7683005332946777,-60.80478286743164
0,192325,-8.100459098815918,8.929967880249023,15.958222389221191,5.836896896362305
0,192328,-71.42704772949219,-198.8448028564453,-15.718474388122559,65.9001235961914
0,192329,3.8879799842834473,6.190766334533691,-17.314746856689453,1.6818379163742065
0,192332,91.24049377441406,245.73997497558594,-9.776992797851562,-23.660329818725586
0,192333,-16.85386085510254,4.039680480957031,-15.833273887634277,-26.26445960998535
0,192336,-93.8464126586914,-155.6730194091797,29.176311492919922,-28.935993194580078
0,192337,82.17520904541016,-13.49482536315918,16.953519821166992,29.557987213134766
0,192340,168.6011962890625,39.399227142333984,-16.63701820373535,14.86268138885498
0,192341,-110.57765197753906,-4.8753533363342285,-12.839099884033203,-43.47697067260742
0,192344,-186.1628875732422,-24.84716796875,-12.563309669494629,8.520438194274902
0,192345,55.416908264160156,25.96881103515625,24.295164108276367,18.397411346435547
0,192348,84.06771850585938,23.72344398498535,22.558691024780273,-2.4735724925994873
0,192349,-46.95219802856445,-28.983367919921875,-21.59190559387207,20.15440559387207
0,192352,-20.885501861572266,6.346423625946045,1.7886883020401,3.487398624420166
0,192353,13.181509017944336,55.67404556274414,27.48927879333496,-0.40142056345939636
0,192356,18.681888580322266,-24.5145320892334,-10.456871032714844,1.2352179288864136
0,192357,65.17874908447266,-74.82645416259766,-18.148637771606445,-5.296128273010254
0,192360,-50.81144714355469,17.698740005493164,2.309807062149048,-3.2926156520843506
0,192361,-69.61138916015625,95.74726104736328,-8.070743560791016,-15.058215141296387
0,192364,47.73731231689453,-11.238187789916992,-13.635076522827148,-2.3068971633911133
0,192365,42.53287124633789,-70.74673461914062,17.448354721069336,11.108109474182129
0,192368,26.272075653076172,15.262661933898926,20.737192153930664,14.807825088500977
0,192369,-0.0020837411284446716,3.900984764099121,-20.811641693115234,-5.695082187652588
0,192372,-32.50210189819336,-21.43352508544922,-17.531492233276367,-29.351085662841797
0,192373,-2.4851999282836914,-13.897289276123047,12.143455505371094,16.701005935668945
0,192376,-38.60234069824219,1.2337449789047241,13.400155067443848,22.86418914794922
0,192377,-35.21048355102539,21.358234405517578,-4.225681781768799,-11.365249633789062
0,192380,33.030460357666016,13.859041213989258,12.711868286132812,-7.569444179534912
0,192381,-15.874504089355469,-6.818789958953857,28.97870635986328,-0.8296584486961365
0,192384,42.61395263671875,2.3914220333099365,-13.492667198181152,21.170494079589844
0,192385,59.752986907958984,16.899398803710938,-26.792476654052734,-9.266674995422363
0,192388,-50.411346435546875,8.317220687866211,-16.728036880493164,-41.20347595214844
0,192391,-14.354169845581055,14.44665813446045,18.473485946655273,15.911943435668945
0,192392,8.882415771484375,-10.679122924804688,45.02421188354492,28.29752540588379
0,192393,-12.365180015563965,-33.63085174560547,-41.32940673828125,1.4370019435882568
0,192396,6.5893025398254395,-11.817646980285645,-38.48662185668945,-19.54131317138672
0,192397,-10.65817928314209,10.121402740478516,40.74653244018555,-8.002419471740723
0,192400,-4.730990409851074,22.75955581665039,-4.764791965484619,17.38490867614746
0,192401,15.315390586853027,-5.2650837898254395,-21.21402931213379,-1.8462893962860107
0,192404,-16.682464599609375,-28.878725051879883,-3.4185943603515625,-19.64689064025879
0,192405,-1.4497828483581543,7.966853141784668,2.0131490230560303,-5.314846038818359
0,192408,25.787256240844727,40.443878173828125,41.64467239379883,38.97990417480469
0,192409,1.3484994173049927,1.604051113128662,-0.3594478964805603,11.857994079589844
0,192412,-2.133890151977539,-24.191978454589844,-45.05834197998047,-26.62692642211914
0,192413,2.5479929447174072,-43.23860549926758,-7.777743816375732,0.9146533608436584
0,192416,-5.366479396820068,-25.55880355834961,32.94316864013672,5.564450263977051
0,192417,31.60486602783203,54.30794143676758,21.825212478637695,1.8741254806518555
0,192420,-33.56398391723633,35.4542121887207,-30.208158493041992,-19.939109802246094
0,192421,-75.17591857910156,51.49003219604492,-1.936780571937561,3.7043280601501465
0,192424,47.719329833984375,61.01334762573242,15.315692901611328,37.785552978515625
0,192425,35.02598190307617,-100.03194427490234,-24.36910629272461,-31.973981857299805
0,192428,-1.187177300453186,-136.7405242919922,19.83011245727539,-33.71957778930664
0,192429,-13.421281814575195,-19.415332794189453,12.579343795776367,7.110518932342529
0,192432,3.1604020595550537,76.79326629638672,-17.691253662109375,25.041492462158203
0,192433,62.6341667175293,67.39041137695312,-2.9719858169555664,35.79595947265625
0,192436,-60.617271423339844,-29.034421920776367,-2.0979511737823486,-18.382143020629883
0,192437,8.208213806152344,3.765535831451416,25.21681022644043,-39.39054489135742
0,192440,53.9266242980957,40.44151306152344,-8.794439315795898,0.6156700849533081
0,192441,-82.56363677978516,-32.53532409667969,-19.881519317626953,27.806941986083984
0,192444,-10.573445320129395,-10.08979606628418,20.407184600830078,-2.26594614982605
0,192445,1.1573759317398071,14.296411514282227,8.474263191223145,-13.531417846679688
0,192448,13.2291259765625,-58.20930099487305,-39.42396545410156,-1.4185739755630493
0,192449,6.3029961585998535,23.023630142211914,-0.06775684654712677,8.164628028869629
0,192452,-9.580211639404297,71.39942932128906,52.2718620300293,19.051998138427734
0,192453,19.421228408813477,-62.15407180786133,-17.931636810302734,-6.702117919921875
0,192456,-35.205078125,-43.36366271972656,-40.74172592163086,-16.523174285888672
0,192457,-13.660661697387695,37.236907958984375,-0.2534405589103699,-2.8690185546875
0,192460,96.08731842041016,36.107200622558594,30.814041137695312,12.894216537475586
0,192461,26.90306282043457,39.236351013183594,21.010915756225586,17.565279006958008
0,192464,-89.26321411132812,-29.53224754333496,-8.480709075927734,1.7465137243270874
0,192465,-6.524101257324219,-78.24945831298828,-11.800317764282227,-17.20122528076172
0,192468,34.0203857421875,27.747276306152344,6.831646919250488,-12.806304931640625
0,192469,19.846065521240234,63.103179931640625,18.045116424560547,2.770003080368042
0,192472,-7.679897785186768,-13.405163764953613,-20.66136360168457,-14.104710578918457
0,192473,-35.89617919921875,-30.947429656982422,-33.393089294433594,2.6503922939300537
0,192476,-3.0954232215881348,2.3065903186798096,12.8699312210083,41.81338119506836
0,192477,11.09996223449707,20.523725509643555,21.56293296813965,3.653987169265747
0,192480,-16.428380966186523,-27.48931884765625,-13.898565292358398,-49.077022552490234
0,192481,2.104121685028076,-25.609399795532227,-5.795268535614014,-7.337328910827637
0,192484,36.154666900634766,14.97575855255127,-2.64253306388855,42.403865814208984
0,192485,6.012691497802734,10.115767478942871,-29.20061492919922,-9.352960586547852
0,192488,7.310581684112549,25.644287109375,41.647216796875,-1.962433099746704
0,192489,-6.339896202087402,10.891010284423828,33.40320587158203,6.457294940948486
0,192492,-37.49312210083008,-10.732394218444824,-47.54094314575195,-43.75762176513672
0,192493,4.872487545013428,6.149752140045166,28.784347534179688,25.496456146240234
0,192496,-18.652128219604492,-16.808225631713867,19.060590744018555,66.79029083251953
0,192497,-16.847530364990234,-22.159265518188477,-36.38065719604492,-41.988651275634766
0,192500,43.93742752075195,9.814608573913574,13.52574348449707,-62.20452117919922
0,192501,3.8661413192749023,4.976536750793457,21.754430770874023,52.38432312011719
0,192504,-21.19786834716797,-25.733070373535156,-17.90377426147461,33.20694351196289
0,192505,25.089340209960938,8.074341773986816,-0.17535173892974854,-30.62550926208496
0,192508,40.587799072265625,43.05339813232422,-6.758455753326416,-25.556591033935547
0,192509,-35.82346725463867,9.038512229919434,-34.13043975830078,-11.291496276855469
0,192512,-64.2503433227539,-42.096614837646484,-0.9387692213058472,21.434123992919922
0,192513,9.424766540527344,-113.11863708496094,-28.284954071044922,-15.359810829162598
0,192516,91.56109619140625,63.021141052246094,41.47270584106445,6.722815990447998
0,192517,51.42180633544922,188.01976013183594,84.23296356201172,42.448890686035156
0,192520,-122.64370727539062,-75.78267669677734,-35.22868728637695,-32.02606201171875
0,192521,-76.93762969970703,-122.36619567871094,-42.526329040527344,2.9015791416168213
0,192524,102.76866912841797,134.6036376953125,7.1791300773620605,25.44243621826172
0,192525,78.95592498779297,113.449462890625,2.3550071716308594,-13.925040245056152
0,192528,-79.41132354736328,-161.129150390625,4.61820125579834,10.46226978302002
0,192529,-91.24214172363281,-109.88347625732422,4.300351142883301,-19.361356735229492
0,192532,76.93136596679688,70.25418853759766,-6.9972076416015625,-7.868374824523926
0,192533,46.159324645996094,22.481225967407227,13.307915687561035,22.322969436645508
0,192536,-51.0699348449707,-6.541202068328857,-4.677404880523682,-10.548432350158691
0,192537,4.7895283699035645,2.507085084915161,-10.18081283569336,-1.9902887344360352
0,192540,2.6861135959625244,-30.657005310058594,-12.050321578979492,-18.8873233795166
0,192541,9.88192367553711,-49.156654357910156,-31.169750213623047,-9.546247482299805
0,192544,7.329404830932617,4.020683288574219,9.181008338928223,5.518928050994873
0,192545,-22.873477935791016,62.20730209350586,16.988346099853516,-3.0415356159210205
0,192548,20.89070701599121,50.21409225463867,34.85993957519531,40.099586486816406
0,192549,14.59932804107666,8.816550254821777,25.73522186279297,24.574684143066406
0,192552,-22.164777755737305,-22.01194190979004,-36.487525939941406,-19.978120803833008
0,192553,-17.65648651123047,-11.434879302978516,-21.827709197998047,-15.908631324768066
0,192556,24.636672973632812,29.366371154785156,16.313751220703125,-14.261068344116211
0,192557,19.008264541625977,8.918252944946289,5.723688125610352,-11.587104797363281
0,192560,-20.63396644592285,-39.13714599609375,-1.9021860361099243,23.720443725585938
0,192561,-14.611071586608887,-29.9680118560791,-11.398469924926758,24.18109703063965
0,192564,-6.519896030426025,1.7294436693191528,-7.221676826477051,-5.329639911651611
0,192565,7.555018424987793,17.329317092895508,15.832535743713379,-11.48824691772461
0,192568,10.319669723510742,14.956829071044922,-10.426194190979004,-24.92409324645996
0,192569,16.347640991210938,2.7640390396118164,2.5944859981536865,-7.206390380859375
0,192572,1.1613085269927979,-9.289510726928711,31.749725341796875,19.089920043945312
0,192573,-23.822399139404297,0.5507234334945679,-10.893745422363281,1.0552984476089478
0,192576,-16.224544525146484,8.80146312713623,-27.528146743774414,2.8202836513519287
0,192577,4.620447635650635,2.7976810932159424,11.086606979370117,10.160167694091797
0,192580,7.697117328643799,-15.061198234558105,-5.374172210693359,-22.556594848632812
0,192581,-12.313003540039062,-11.814064025878906,-13.922924995422363,-11.46933650970459
0,192584,23.819744110107422,5.9763007164001465,27.245182037353516,65.95294189453125
0,192585,37.5518684387207,-6.453653335571289,14.801647186279297,5.029017925262451
0,192588,-33.59547805786133,-7.836535930633545,-6.849865913391113,-111.61717987060547
0,192589,-51.821903228759766,13.92422866821289,-22.354373931884766,-70.59556579589844
0,192592,10.81075668334961,27.94139862060547,-0.7863568663597107,102.68682861328125
0,192595,50.916770935058594,17.986549377441406,14.187581062316895,129.3634796142578
0,192595,4.479476451873779,-26.721155166625977,-3.517317771911621,-36.282493591308594
0,192598,-22.630889892578125,-29.582300186157227,3.2885591983795166,-64.76774597167969
0,192599,-8.351308822631836,-9.625208854675293,0.9033079743385315,0.7206211686134338
0,192602,-1.376684308052063,-2.5068023204803467,-9.831731796264648,16.9797306060791
0,192603,7.350074291229248,0.7072920203208923,-12.754934310913086,-0.9794367551803589
0,192606,19.267738342285156,8.434680938720703,7.719675540924072,-3.40891170501709
0,192607,-5.472443580627441,44.90141677856445,27.11312484741211,8.683406829833984
0,192610,-38.99425506591797,0.16619955003261566,-0.965363621711731,4.020970344543457
0,192611,18.9169921875,-58.915313720703125,-38.36863708496094,-29.37697410583496
0,192614,32.70453643798828,8.847990036010742,-4.418673038482666,-32.74299240112305
0,192615,-13.495718002319336,37.94938278198242,20.28718376159668,20.283702850341797
0,192618,-13.516261100769043,-20.218982696533203,13.791672706604004,23.333316802978516
0,192619,2.116983652114868,8.81286907196045,6.277093887329102,-16.551515579223633
0,192622,-14.51208782196045,27.284337997436523,-7.42803430557251,1.4928594827651978
0,192623,1.4292397499084473,-42.64577865600586,-14.571390151977539,30.83515739440918
0,192626,31.59091567993164,-13.968268394470215,-8.251431465148926,-15.992911338806152
0,192627,-21.503021240234375,44.253353118896484,20.520374298095703,-38.15830993652344
0,192630,-11.742570877075195,-15.158357620239258,3.55045747756958,17.61376953125
0,192631,25.665103912353516,-7.555675506591797,-2.818986177444458,35.328895568847656
0,192634,3.6205289363861084,13.50874137878418,-7.17392635345459,-9.081957817077637
0,192635,-4.519829273223877,-25.173084259033203,-12.200895309448242,-10.909852027893066
0,192638,-18.69207000732422,8.64434814453125,26.17718505859375,-0.8892896771430969
0,192639,-6.391813278198242,9.117547988891602,-1.3767549991607666,-14.030616760253906
0,192642,25.759719848632812,-12.506425857543945,-36.89168930053711,-2.438474416732788
0,192643,22.94710922241211,27.699851989746094,0.8653351664543152,12.817585945129395
0,192646,-4.738687515258789,16.248287200927734,22.70602798461914,8.979010581970215
0,192647,-14.220312118530273,-15.874044418334961,-3.971198081970215,-2.4818994998931885
0,192650,-25.356727600097656,-12.186291694641113,2.218548059463501,20.416118621826172
0,192651,-14.071614265441895,-20.78936767578125,9.0093994140625,6.216056823730469
0,192654,19.46122169494629,23.709619522094727,-10.350248336791992,-24.885631561279297
0,192655,35.79694747924805,22.684066772460938,2.6582720279693604,-6.371782302856445
0,192658,-8.128064155578613,-42.50905227661133,-9.206604957580566,-11.93394660949707
0,192659,-53.7448616027832,12.088701248168945,8.022987365722656,-4.689977645874023
0,192662,-4.236782550811768,52.76747131347656,21.657442092895508,20.568971633911133
0,192663,-2.3795483112335205,-24.120790481567383,-16.567842483520508,12.3449068069458
0,192666,12.043578147888184,-146.3567352294922,13.643680572509766,-5.3935394287109375
0,192667,51.09369659423828,-63.824432373046875,6.988815784454346,-8.391704559326172
0,192670,71.53736114501953,192.46157836914062,-11.114095687866211,17.922449111938477
0,192671,18.373205184936523,122.47667694091797,12.2942533493042,4.908482551574707
0,192674,-148.47279357910156,-82.56783294677734,-18.857017517089844,-20.75026512145996
0,192675,-68.26054382324219,-57.61331558227539,-10.862316131591797,-3.954144239425659
0,192678,73.30755615234375,-2.2450175285339355,10.711268424987793,-7.322193145751953
0,192679,24.280250549316406,-7.801974296569824,-15.721224784851074,10.910292625427246
0,192682,3.1347312927246094,21.24814796447754,-27.25527000427246,15.762988090515137
0,192683,11.20165729522705,15.546040534973145,6.6900715827941895,-20.17344093322754
0,192686,4.991830348968506,-23.99030303955078,46.30557632446289,-18.939983367919922
0,192687,-24.150009155273438,-2.513505220413208,5.2052531242370605,-2.1926517486572266
0,192690,-9.732771873474121,14.734251976013184,-34.42841339111328,9.7861909866333
0,192691,17.360469818115234,-13.868498802185059,-3.2496025562286377,21.659465789794922
0,192694,-21.345617294311523,13.326654434204102,15.033721923828125,19.66954231262207
0,192695,-37.379188537597656,32.62395477294922,-3.086735486984253,-17.824478149414062
0,192698,58.60235595703125,-42.391666412353516,6.965104579925537,-38.047698974609375
0,192699,70.34019470214844,-39.365966796875,10.46268367767334,2.9029436111450195
0,192702,-30.194091796875,30.126863479614258,-8.248473167419434,29.101329803466797
0,192703,9.851970672607422,10.432948112487793,20.2572078704834,13.74051570892334
0,192706,-12.601932525634766,3.507244110107422,-9.726380348205566,-0.8028301000595093
0,192707,-73.05609893798828,35.681217193603516,-23.43994903564453,12.513017654418945
0,192710,20.347095489501953,-15.577110290527344,-3.651064872741699,21.08387565612793
0,192711,51.337249755859375,-62.798580169677734,-3.2018725872039795,-3.063537836074829
0,192714,-22.214996337890625,-14.88327693939209,8.641692161560059,-53.855010986328125
0,192715,-64.7800521850586,65.4157943725586,-22.091655731201172,-73.13211822509766
0,192718,-0.8236557841300964,24.035099029541016,24.434906005859375,-47.03077697753906
0,192719,44.98887634277344,-59.41404724121094,27.954177856445312,76.97325134277344
0,192722,13.2672700881958,-7.608880043029785,-25.495220184326172,142.3402099609375
0,192723,3.290743589401245,36.442935943603516,1.5022929906845093,-11.991408348083496
0,192726,20.838762283325195,18.720605850219727,3.793444871902466,-77.43660736083984
0,192727,0.6574484705924988,57.704566955566406,8.836627006530762,-16.474164962768555
0,192730,-107.60148620605469,16.86098289489746,19.56842613220215,5.861345291137695
0,192731,-41.939491271972656,-77.82402038574219,-19.78046226501465,-0.793613076210022
0,192734,160.68527221679688,-105.4924087524414,-38.766395568847656,13.345540046691895
0,192735,110.81515502929688,-110.40860748291016,13.962369918823242,38.29052734375
0,192738,16.045690536499023,113.61148071289062,29.25497055053711,-2.99934983253479
0,192739,-56.48490524291992,205.6638946533203,-13.856728553771973,-34.038639068603516
0,192742,-219.58995056152344,-52.09442138671875,-12.453329086303711,-22.69136619567871
0,192743,-63.012638092041016,-80.3456039428711,-2.8396599292755127,-15.844258308410645
0,192746,163.84970092773438,15.507505416870117,8.571647644042969,18.309431076049805
0,192747,28.938264846801758,2.90337872505188,7.194127082824707,5.192933082580566
0,192750,-48.81841278076172,-7.652127265930176,1.344921350479126,-17.081411361694336
0,192751,30.235944747924805,-7.135973930358887,8.702398300170898,25.14238739013672
0,192754,11.100749969482422,20.572629928588867,-19.532711029052734,19.638444900512695
0,192755,-31.776649475097656,9.638769149780273,-0.4531167149543762,7.5697431564331055
0,192758,-7.317311763763428,-6.808313846588135,21.69629669189453,13.741096496582031
0,192759,33.12175750732422,1.9538276195526123,-18.73396873474121,-22.088970184326172
0,192762,18.266841888427734,-33.90825653076172,-6.917201995849609,-38.99050521850586
0,192763,-14.826412200927734,-20.286945343017578,17.081378936767578,4.95127534866333
0,192766,-5.931543827056885,22.417301177978516,-8.171382904052734,17.77750587463379
0,192767,-0.0019904952496290207,2.148589611053467,-14.897260665893555,-17.469038009643555
0,192770,-1.6505601406097412,0.8161991834640503,10.600993156433105,16.245759963989258
0,192771,2.964860200881958,6.361799240112305,12.256328582763672,26.299434661865234
0,192774,-7.249899864196777,-2.9427716732025146,-5.2398600578308105,-20.528213500976562
0,192775,-20.308094024658203,-1.431448221206665,4.489504814147949,-14.836970329284668
0,192778,4.2523016929626465,17.302961349487305,2.3412835597991943,9.687031745910645
0,192779,23.6593017578125,-5.77001428604126,-10.8150634765625,11.398834228515625
0,192782,-6.678234577178955,-26.967933654785156,-2.851508378982544,-10.226473808288574
0,192783,-3.2037479877471924,-18.66382598876953,2.1504547595977783,-8.22138786315918
0,192786,24.088993072509766,15.102105140686035,12.49863052368164,0.7300266027450562
0,192787,-14.23212718963623,72.04609680175781,17.15498161315918,-14.081134796142578
0,192790,-9.556346893310547,-1.4966479539871216,-8.518331527709961,-0.6906059980392456
0,192791,15.183972358703613,-55.2899169921875,-20.335487365722656,11.913743019104004
0,192794,-18.134824752807617,36.62883377075195,7.830665111541748,4.86817741394043
0,192796,-0.8048969507217407,26.7916316986084,9.058633804321289,-0.8786618709564209
0,192797,38.75609588623047,-47.73590087890625,-8.42165470123291,-2.5152173042297363
0,192800,-13.397309303283691,-21.785621643066406,-1.832542061805725,23.690298080444336
0,192801,-43.88950729370117,11.689444541931152,-3.674560308456421,-1.5248475074768066
0,192804,13.628808975219727,18.590726852416992,-13.700773239135742,-20.17749786376953
0,192805,14.747490882873535,-11.055004119873047,-11.36217975616455,12.804591178894043
0,192808,23.1965389251709,-28.88970947265625,13.944543838500977,6.997320652008057
0,192809,14.30016040802002,-33.26325988769531,16.837665557861328,-8.401260375976562
0,192812,-35.39727783203125,4.239055156707764,-7.434820175170898,-27.30888557434082
0,192813,-24.358009338378906,114.2878189086914,-20.390987396240234,9.335208892822266
0,192816,-39.465484619140625,45.090023040771484,5.927822589874268,32.40898895263672
0,192817,-3.7771294116973877,-38.31307601928711,48.45516586303711,-10.391562461853027
0,192820,69.71736145019531,-73.18401336669922,-1.5311847925186157,-12.534077644348145
0,192821,22.502477645874023,-93.8979263305664,-36.11949920654297,4.9794464111328125
0,192824,-15.200454711914062,56.82804870605469,-4.441098213195801,7.223190784454346
0,192825,-16.930875778198242,69.37175750732422,0.16298234462738037,-5.87816858291626
0,192828,-3.3302788734436035,-10.665594100952148,36.59522247314453,-2.18498158454895
0,192829,31.58834457397461,-18.332521438598633,6.584013938903809,-3.022958755493164
0,192832,-8.93754768371582,-31.27628517150879,-39.582679748535156,-1.0537147521972656
0,192833,-39.70915985107422,-1.4182606935501099,-12.712919235229492,5.972564697265625
0,192836,16.698902130126953,36.57620620727539,10.56482982635498,-0.34981027245521545
0,192837,31.235578536987305,20.355308532714844,16.145063400268555,-5.401980400085449
0,192840,-9.733170509338379,2.984697103500366,-0.9359865188598633,0.7674163579940796
0,192841,-17.436534881591797,4.141225337982178,5.826444625854492,22.123769760131836
0,192844,-7.72047758102417,-19.195005416870117,-17.338031768798828,-14.604803085327148
0,192845,0.9659466743469238,-14.627184867858887,-2.974993944168091,-24.899513244628906
0,192848,-27.848188400268555,36.74260711669922,35.16435623168945,12.311840057373047
0,192849,9.4126558303833,17.011585235595703,-13.953009605407715,8.297541618347168
0,192852,34.992042541503906,-78.13890075683594,-34.85258483886719,6.102970123291016
0,192853,1.8335078954696655,-70.21382904052734,-3.68327260017395,-0.003976254723966122
0,192856,15.843825340270996,89.6299819946289,24.781354904174805,0.35469168424606323
0,192857,3.839118719100952,101.3521957397461,24.21296501159668,0.10478001832962036
0,192860,-30.155006408691406,-74.34210968017578,-21.09857749938965,-17.415185928344727
0,192861,-37.00946044921875,-94.21643829345703,-29.613019943237305,-14.062936782836914
0,192864,38.80703353881836,52.499359130859375,23.99129867553711,11.386085510253906
0,192865,28.184207916259766,92.7186279296875,9.759889602661133,23.55340003967285
0,192868,-53.51692581176758,-55.090702056884766,-19.565723419189453,6.817361354827881
0,192869,0.2990615963935852,-32.70189666748047,14.630284309387207,-0.08613274991512299
0,192872,37.89767837524414,24.210338592529297,11.012983322143555,-25.243127822875977
0,192873,8.579829216003418,-16.86995506286621,-23.12784767150879,-23.134397506713867
0,192876,14.92795467376709,12.608885765075684,17.35704231262207,19.75690460205078
0,192877,-19.195241928100586,37.129493713378906,25.012601852416992,17.513505935668945
0,192880,-23.67167854309082,-0.4801812469959259,-42.907711029052734,11.3629150390625
0,192881,-25.809036254882812,-91.73609161376953,-27.42853546142578,-9.35714054107666
0,192884,-9.948412895202637,44.38066101074219,21.32550048828125,-16.65937042236328
0,192885,63.63087844848633,110.65804290771484,36.25233459472656,4.573118686676025
0,192888,-13.465132713317871,-74.69886779785156,0.6603749394416809,-4.368475437164307
0,192889,-42.27107620239258,-83.10245513916016,-32.10521697998047,-0.5888049602508545
0,192892,38.283775329589844,25.91402244567871,-10.519537925720215,0.21678084135055542
0,192893,9.542952537536621,17.78035545349121,9.561158180236816,3.9835853576660156
0,192896,-28.038623809814453,8.423126220703125,26.17052459716797,19.322490692138672
0,192897,16.502487182617188,28.65176010131836,28.147783279418945,-6.722049236297607
0,192900,7.868934154510498,-19.826168060302734,-13.160847663879395,-14.048295974731445
0,192901,-14.591401100158691,-15.35600757598877,-31.881244659423828,9.905110359191895
0,192904,29.740341186523438,17.098346710205078,-1.0230019092559814,-0.748638927936554
0,192905,-4.051352500915527,-1.8376911878585815,6.198936939239502,-5.2233805656433105
0,192908,-30.674394607543945,-16.203628540039062,-0.03620363026857376,-12.60904312133789
0,192909,-2.189531087875366,4.881961822509766,4.552769660949707,-21.83738899230957
0,192912,4.155191421508789,16.63731575012207,0.49753421545028687,41.079193115234375
0,192913,8.341950416564941,9.210371017456055,-17.77143669128418,32.01291275024414
0,192916,-19.93599510192871,22.501026153564453,6.69506311416626,-29.466184616088867
0,192917,-0.7387385964393616,2.6477417945861816,24.931528091430664,-0.2903260886669159
0,192920,58.447265625,-51.17607116699219,-16.70016098022461,-11.099266052246094
0,192921,-8.873310089111328,-33.505226135253906,-12.924581527709961,-7.906260967254639
0,192924,-76.3656234741211,17.0826358795166,-11.825716018676758,30.22784996032715
0,192925,30.970142364501953,7.388058662414551,-18.43703269958496,2.752166271209717
0,192928,70.3953857421875,19.51090431213379,35.22492980957031,-12.108664512634277
0,192929,-41.5772819519043,29.602218627929688,45.1566276550293,-7.290279865264893
0,192932,-42.47847366333008,-18.201751708984375,-16.340261459350586,-16.467294692993164
0,192933,14.1585111618042,-37.061161041259766,-46.81120300292969,-13.867058753967285
0,192936,6.064963340759277,26.55807113647461,9.858842849731445,27.543193817138672
0,192937,-0.3455672264099121,36.41093063354492,34.22367858886719,17.678482055664062
0,192940,5.5714850425720215,-26.229503631591797,-21.04567527770996,-33.646766662597656
0,192941,16.179853439331055,-5.188689231872559,-13.028388023376465,0.11599643528461456
0,192944,-4.209009647369385,4.529831886291504,17.03286361694336,22.841297149658203
0,192945,-24.575523376464844,-11.81503677368164,7.383472919464111,3.738502264022827
0,192948,26.175743103027344,4.427371501922607,-0.3479704260826111,-1.6342387199401855
0,192949,40.12160110473633,7.693759918212891,-21.26428985595703,-13.264894485473633
0,192952,-36.39271545410156,2.309657096862793,-7.627169609069824,3.3685853481292725
0,192953,-42.47454071044922,-20.516061782836914,21.962602615356445,11.327629089355469
0,192956,5.746347427368164,-48.93669509887695,-7.511080741882324,-9.871515274047852
0,192957,-0.1586235761642456,5.212460994720459,-17.700069427490234,-12.973461151123047
0,192960,26.220401763916016,58.022438049316406,22.190093994140625,1.9140275716781616
0,192961,28.7404842376709,-6.746186256408691,11.446578025817871,11.745092391967773
0,192964,-39.05472183227539,-6.810697555541992,-28.131505966186523,0.5543326735496521
0,192965,-3.975160598754883,25.61070442199707,10.381624221801758,2.7614762783050537
0,192968,10.185989379882812,-8.567383766174316,30.22959327697754,6.092048645019531
0,192969,-6.385921001434326,6.017058849334717,-13.434647560119629,-25.745458602905273
0,192972,21.373323440551758,42.83622360229492,-15.708962440490723,-26.389698028564453
0,192973,-22.254566192626953,-8.655264854431152,-18.622512817382812,20.085567474365234
0,192976,-8.464505195617676,-64.94326782226562,10.164414405822754,56.49401092529297
0,192977,13.357575416564941,-51.05097579956055,38.71519470214844,13.568025588989258
0,192980,37.46855163574219,4.263605117797852,-21.431461334228516,-46.91234588623047
0,192982,-7.065771102905273,81.20442962646484,-18.25531578063965,-8.945266723632812
0,192983,-4.8476715087890625,19.891799926757812,27.80518913269043,19.778003692626953
0,192986,33.0022087097168,-45.14901351928711,-0.8842600584030151,-2.5881295204162598
0,192987,-98.42704772949219,10.647235870361328,-8.283076286315918,-1.4643844366073608
0,192990,-12.460249900817871,-1.6110749244689941,7.723791599273682,20.42391586303711
0,192991,36.008975982666016,-19.47349739074707,-7.991188049316406,1.0289312601089478
0,192994,3.311288833618164,11.605561256408691,-13.053741455078125,-34.54774856567383
0,192995,18.798582077026367,-12.848154067993164,-11.99747371673584,-26.7915096282959
0,192998,-30.158369064331055,-2.0094151496887207,19.44194793701172,-4.821752548217773
0,192999,62.7576789855957,84.20559692382812,23.48363494873047,17.330188751220703
0,193002,31.609804153442383,29.32642936706543,-33.411128997802734,20.40379524230957
0,193003,-88.6197738647461,-48.81803894042969,-20.51044464111328,0.6139701008796692
0,193006,2.574772357940674,-59.79734802246094,27.617982864379883,-24.689510345458984
0,193007,52.19624710083008,-57.46409606933594,11.411765098571777,-13.311680793762207
0,193010,-26.128700256347656,34.1855354309082,-22.200130462646484,30.65281105041504
0,193011,-9.593454360961914,30.83342170715332,-7.046163558959961,8.592719078063965
0,193014,7.204263687133789,-19.69950294494629,19.580337524414062,3.1583495140075684
0,193015,-26.476734161376953,24.59950828552246,10.51676082611084,35.6446418762207
0,193018,0.6590269207954407,13.315244674682617,-7.25738000869751,-38.85078430175781
0,193019,35.28893280029297,-43.58017349243164,-3.274081230163574,-25.39692497253418
0,193022,0.9252262711524963,30.97445297241211,-9.361532211303711,47.710899353027344
0,193023,-39.577056884765625,26.845998764038086,-12.912287712097168,6.633971691131592
0,193026,-22.62059211730957,-51.43312072753906,17.723020553588867,-32.86710739135742
0,193027,-0.6774922013282776,5.4699177742004395,25.462169647216797,-31.276325225830078
0,193030,55.185302734375,26.295820236206055,-2.162299633026123,18.248594284057617
0,193031,46.16907501220703,11.673675537109375,-0.6557593941688538,48.31865692138672
0,193034,-19.994342803955078,0.2598542273044586,-1.183048129081726,-19.908401489257812
0,193035,-19.347475051879883,-6.991087913513184,-17.951894760131836,-34.62133026123047
0,193038,-23.444385528564453,11.773787498474121,15.313481330871582,17.94807243347168
0,193039,-14.719660758972168,-16.492469787597656,2.1320266723632812,-16.04212188720703
0,193042,6.109368324279785,-47.72658157348633,-24.780170440673828,-1.1042197942733765
0,193044,20.303804397583008,26.44425392150879,38.235679626464844,52.90472412109375
0,193045,7.094577312469482,53.46445846557617,13.266485214233398,-15.540196418762207
0,193048,-5.075535297393799,-32.087100982666016,-54.45970153808594,-48.608551025390625
0,193049,19.715316772460938,-29.316064834594727,-21.865943908691406,23.791576385498047
0,193052,7.755787372589111,36.95707321166992,27.457853317260742,30.26123046875
0,193053,-23.42801856994629,17.63622283935547,9.498847961425781,12.769749641418457
0,193056,-13.851662635803223,-18.729923248291016,-19.221372604370117,-18.482540130615234
0,193057,3.944798231124878,-14.458608627319336,25.76487922668457,-47.7569580078125
0,193060,-14.37462043762207,-39.54729080200195,4.264406204223633,23.974485397338867
0,193061,-11.84930419921875,-45.586936950683594,-26.737159729003906,14.056960105895996
0,193064,31.667804718017578,94.75812530517578,14.687521934509277,-34.362876892089844
0,193065,24.54435920715332,78.3816146850586,-9.138644218444824,34.26034927368164
0,193068,-26.74633026123047,-74.59097290039062,-16.55807113647461,19.04991912841797
0,193069,-14.721658706665039,1.9803688526153564,31.913185119628906,-29.147789001464844
0,193072,-8.046829223632812,2.0284063816070557,19.450716018676758,16.555652618408203
0,193073,-7.8938117027282715,-46.45061492919922,-32.30402755737305,-2.458324432373047
0,193076,20.835792541503906,-22.906187057495117,-14.613340377807617,-41.164894104003906
0,193077,16.24504852294922,-7.611625671386719,33.027034759521484,10.994592666625977
0,193080,38.5820426940918,70.78218078613281,-8.672433853149414,37.25383758544922
0,193081,-26.29106903076172,34.31180191040039,-21.51057243347168,-10.692815780639648
0,193084,-73.25619506835938,-21.259992599487305,19.62430763244629,-30.139314651489258
0,193085,42.49728775024414,-9.29182243347168,7.643673419952393,8.133810997009277
0,193088,39.068115234375,-18.065471649169922,3.8014650344848633,20.106931686401367
0,193089,-1.1877381801605225,-4.926182746887207,-3.6668317317962646,4.913362503051758
0,193092,-0.7581923007965088,-1.2858312129974365,-17.41376304626465,-9.147089958190918
0,193093,-36.681644439697266,9.338539123535156,-12.899859428405762,-25.51405143737793
0,193096,7.5921783447265625,16.67228889465332,6.320190906524658,11.862821578979492
0,193097,6.74667501449585,15.415407180786133,24.57512855529785,15.816948890686035
0,193100,-29.74044418334961,1.7784655094146729,-3.197488307952881,-11.964438438415527
0,193101,16.526756286621094,-32.5682487487793,-15.06086254119873,14.63621711730957
0,193104,19.45960807800293,-26.44666862487793,1.3621528148651123,-10.23151969909668
0,193105,-18.348276138305664,5.315630912780762,12.076447486877441,-19.803905487060547
0,193108,-7.071692943572998,34.01833724975586,7.497709274291992,55.961456298828125
0,193109,0.5204429626464844,-3.8473289012908936,-15.870599746704102,10.226908683776855
0,193112,16.641958236694336,-76.7929916381836,4.670630931854248,-44.84877014160156
0,193113,34.776554107666016,10.666548728942871,1.877428650856018,10.373359680175781
0,193116,-15.898568153381348,108.19900512695312,-11.99128246307373,28.21285629272461
0,193117,-60.14897537231445,-0.41635245084762573,14.65463638305664,-2.2222588062286377
0,193120,29.27565574645996,-44.69947052001953,10.62061595916748,-47.96776580810547
0,193121,54.9874153137207,22.19327163696289,-4.127094745635986,-15.719202995300293
0,193124,-64.01251983642578,-35.75819396972656,-22.08304214477539,-40.74864959716797
0,193125,4.519475936889648,-33.40048599243164,-15.412381172180176,-49.22285842895508
0,193128,48.41952133178711,36.29696273803711,18.44829750061035,127.11241912841797
0,193129,-54.63226318359375,5.399458408355713,9.73522663116455,94.53041076660156
0,193132,-12.954292297363281,7.700272560119629,3.6186745166778564,-68.44090270996094
0,193133,34.13442611694336,15.937653541564941,-5.727027893066406,-42.53958511352539
0,193136,5.715639114379883,-14.061798095703125,-12.802875518798828,-33.60264587402344
0,193137,-5.178784370422363,-19.348100662231445,16.110963821411133,0.17103801667690277
0,193140,4.995154857635498,-23.545333862304688,-4.693615913391113,78.63336181640625
0,193141,-2.7039809226989746,-3.6178817749023438,-12.066976547241211,-7.884991645812988
0,193144,-6.667099952697754,55.297698974609375,-5.381062984466553,-6.313839435577393
0,193145,19.606962203979492,25.806209564208984,13.340719223022461,46.387203216552734
0,193148,-36.77283477783203,-34.16188430786133,23.45950698852539,-63.08811950683594
0,193149,-7.722118854522705,-20.999534606933594,-19.591007232666016,-56.72043228149414
0,193152,54.43071365356445,6.848937511444092,-16.967439651489258,34.088470458984375
0,193153,-17.475290298461914,22.022188186645508,15.247167587280273,7.391988754272461
0,193156,2.062681198120117,-22.664533615112305,33.87321472167969,-2.260316848754883
0,193157,2.3306102752685547,-16.89360237121582,2.6730058193206787,32.66571807861328
0,193160,-3.7199759483337402,11.47651481628418,-46.52404022216797,-30.213661193847656
0,193161,17.53452491760254,-10.009176254272461,2.028569221496582,-26.311126708984375
0,193164,-46.21648406982422,13.070767402648926,27.904541015625,84.64002227783203
0,193165,-15.463627815246582,11.985389709472656,-28.192134857177734,3.1596317291259766
0,193168,42.24890899658203,-16.262849807739258,0.8525331616401672,-75.65003204345703
0,193169,0.7675169706344604,-22.809051513671875,14.826004028320312,10.74299144744873
0,193172,-26.2744197845459,38.8057746887207,-13.366289138793945,7.40433931350708
0,193173,15.16707992553711,40.83961868286133,3.867987871170044,-24.528873443603516
0,193176,19.75190544128418,-8.908470153808594,7.589158058166504,10.349218368530273
0,193177,-43.261199951171875,13.7780179977417,-15.305410385131836,35.26993942260742
0,193180,-12.544961929321289,-27.505762100219727,-10.915836334228516,25.095787048339844
0,193181,34.89653396606445,-51.68473434448242,15.728755950927734,-25.400943756103516
0,193184,-2.9882724285125732,-4.2433390617370605,16.943201065063477,-39.88371276855469
0,193185,16.875089645385742,11.42512035369873,-0.44020119309425354,16.630224227905273
0,193188,1.8376336097717285,18.213319778442383,-9.308895111083984,9.264171600341797
0,193189,14.083471298217773,4.7147135734558105,10.048781394958496,-33.98977279663086
0,193192,11.86052417755127,-27.314250946044922,-20.809261322021484,0.4594273567199707
0,193193,-51.76129150390625,15.740177154541016,-12.148786544799805,35.76934814453125
0,193196,12.760262489318848,33.556461334228516,52.429439544677734,17.436973571777344
0,193197,1.7401540279388428,-14.0367431640625,8.1541748046875,-4.994546413421631
0,193200,-28.900920867919922,-4.533966541290283,-38.16350173950195,3.792858839035034
0,193201,13.590182304382324,14.713101387023926,-12.068998336791992,-12.704739570617676
0,193204,22.87734603881836,-27.388031005859375,0.20143082737922668,-25.861217498779297
0,193205,13.038483619689941,-65.03477478027344,0.9281280636787415,17.267255783081055
0,193208,25.06623077392578,29.899173736572266,11.819134712219238,-2.8755807876586914
0,193209,28.20701026916504,94.69218444824219,12.985637664794922,-30.65491485595703
0,193212,-66.26061248779297,-28.764719009399414,-7.947354316711426,43.34415054321289
0,193213,-78.84317016601562,-48.988407135009766,-27.910133361816406,41.83222961425781
0,193216,39.0036506652832,21.225522994995117,3.9570441246032715,-46.678829193115234
0,193217,57.107364654541016,-13.207741737365723,29.21962547302246,-36.70543670654297
0,193220,2.281111001968384,6.832920551300049,0.5931106209754944,20.92478370666504
0,193221,-26.099699020385742,29.135435104370117,-10.178297996520996,13.643257141113281
0,193224,-39.94696807861328,-15.159074783325195,-7.122340679168701,-7.070803165435791
0,193225,-10.748268127441406,41.69395446777344,8.574503898620605,9.461743354797363
0,193228,29.866708755493164,-26.349517822265625,10.635286331176758,4.4268317222595215
0,193229,20.635639190673828,-98.45098114013672,-24.454965591430664,-11.586991310119629
0,193232,35.389381408691406,91.33289337158203,3.032907247543335,15.18131160736084
0,193233,14.175110816955566,72.00318908691406,12.226165771484375,-0.5994266867637634
0,193236,-94.23343658447266,-70.5081558227539,-11.531122207641602,-40.351898193359375
0,193237,-31.528398513793945,-46.52152633666992,7.597167015075684,3.741574287414551
0,193240,85.9656753540039,0.24289488792419434,1.002988576889038,36.221832275390625
0,193241,25.751468658447266,32.38277816772461,-16.306684494018555,14.330413818359375
0,193244,-38.25152587890625,8.334946632385254,-8.187368392944336,-2.1291399002075195
0,193245,-7.2324042320251465,-17.1226806640625,19.146488189697266,-16.33247947692871
0,193248,-7.407210826873779,6.608240604400635,22.604961395263672,2.6294076442718506
0,193249,2.722841501235962,21.090396881103516,-0.7763630747795105,-6.345799446105957
0,193252,35.06597900390625,-11.26604175567627,-9.459785461425781,-4.251718521118164
0,193253,-8.497897148132324,2.9999265670776367,-10.428443908691406,13.897627830505371
0,193256,-3.7205564975738525,9.173365592956543,-5.516826152801514,-20.27001190185547
0,193257,5.82095193862915,-54.11674880981445,6.025923252105713,-10.087676048278809
0,193260,-33.36766052246094,18.628387451171875,18.402082443237305,28.175975799560547
0,193261,-9.769330978393555,48.859832763671875,-0.11505428701639175,1.5542247295379639
0,193264,24.001117706298828,-29.73782730102539,-11.245194435119629,-37.91209411621094
0,193265,20.18056869506836,-14.862053871154785,3.955847978591919,-7.828284740447998
0,193268,-6.961995601654053,32.95689392089844,-4.055985450744629,13.428030967712402
0,193269,-12.957598686218262,34.60772705078125,1.159454107284546,38.6844367980957
0,193272,-0.8286100029945374,-61.25151062011719,-17.366832733154297,0.7574515342712402
0,193273,-14.218369483947754,-82.54356384277344,-24.690645217895508,-42.17905807495117
0,193276,14.247515678405762,59.598716735839844,36.447269439697266,26.66844367980957
0,193277,40.885746002197266,69.09696197509766,32.7652587890625,13.765114784240723
0,193280,-27.4732723236084,-35.9225959777832,-51.52309799194336,-21.53579330444336
1,193284,-16.347211837768555,-1.301483154296875,-16.889448165893555,10.874322891235352
1,193284,40.78934097290039,6.562123775482178,62.36457061767578,17.111196517944336
1,193286,-7.287318229675293,-9.301321029663086,-10.654026985168457,-24.388154983520508
1,193287,-44.037044525146484,7.814143657684326,-27.143476486206055,-25.583782196044922
1,193290,-4.658749580383301,0.3130435645580292,22.672971725463867,18.460784912109375
1,193291,50.04808044433594,24.12346839904785,-16.302480697631836,16.844175338745117
1,193294,-24.062114715576172,-35.78507614135742,-17.946590423583984,-6.526775360107422
1,193295,-57.41846466064453,-43.93989181518555,28.363122940063477,-1.437488317489624
1,193298,50.60030746459961,48.47066879272461,18.140907287597656,-0.4218406081199646
1,193299,32.29756546020508,25.749591827392578,-28.51846694946289,-19.54547119140625
1,193302,-33.393211364746094,-39.431121826171875,-16.330917358398438,17.06939125061035
1,193303,-6.70396089553833,-6.355996608734131,23.287384033203125,33.61486053466797
1,193306,8.485584259033203,12.495963096618652,14.214845657348633,-29.594240188598633
1,193307,-1.1266847848892212,-19.29282569885254,-10.648093223571777,-12.204007148742676
1,193310,-31.28573226928711,46.885093688964844,-20.52113151550293,30.264646530151367
1,193311,14.002132415771484,48.09973907470703,3.189911127090454,-12.342934608459473
1,193314,64.08330535888672,-45.685585021972656,15.755059242248535,-11.949424743652344
1,193315,-37.50852584838867,1.4846123456954956,-3.880450963973999,4.663287162780762
1,193318,-25.356924057006836,0.24350957572460175,-7.440028190612793,-12.417094230651855
1,193319,45.37297439575195,-53.9085578918457,8.031266212463379,6.342031478881836
1,193322,-23.514480590820312,-32.677207946777344,6.356773853302002,0.812534749507904
1,193323,-11.757829666137695,-20.13878631591797,4.300283432006836,-12.218698501586914
1,193326,73.81586456298828,64.56835174560547,-3.946035385131836,23.082176208496094
1,193327,4.004946708679199,64.47212982177734,-22.182287216186523,17.151473999023438
1,193330,-99.37372589111328,-27.934141159057617,14.877989768981934,-19.150793075561523
1,193331,-23.355960845947266,-43.49106216430664,-4.452893257141113,-1.8124009370803833
1,193334,52.2677116394043,-18.308284759521484,-22.58988380432129,-13.80969524383545
1,193335,-3.0195417404174805,39.833091735839844,28.81851577758789,-22.51875877380371
1,193338,-23.373687744140625,50.457191467285156,10.858500480651855,44.03556442260742
1,193339,16.258413314819336,6.590446949005127,-7.510098457336426,23.74864387512207
1,193342,17.642929077148438,-47.98383331298828,-1.4595563411712646,-24.041297912597656
1,193343,-2.9995007514953613,-76.67640686035156,-19.98138999938965,-26.403085708618164
1,193346,22.372844696044922,17.21865463256836,-4.138864994049072,-6.854827880859375
1,193347,20.2439022064209,100.45423889160156,40.10284423828125,32.158451080322266
1,193350,-51.016300201416016,-17.681438446044922,6.436434745788574,4.683525562286377
1,193351,-20.575225830078125,-65.2298355102539,-41.41573715209961,-1.336635947227478
1,193354,24.35715675354004,23.208595275878906,-4.365904808044434,-7.992787837982178
1,193355,-1.70082688331604,13.19629192352295,2.8081109523773193,-34.00684356689453
1,193358,7.629271984100342,12.74300479888916,-19.188405990600586,6.7854180335998535
1,193359,4.035537242889404,32.30986404418945,23.254140853881836,28.073423385620117
1,193362,-18.14626693725586,1.2162925004959106,37.19074249267578,20.059600830078125
1,193363,-11.198259353637695,-22.4781551361084,-12.55285358428955,5.21067476272583
1,193366,7.333784580230713,-31.89255714416504,-7.272827625274658,-34.99899673461914
1,193367,-0.9833870530128479,-16.86741065979004,0.9608042240142822,-26.85546875
1,193370,4.941262245178223,5.981508731842041,-9.06583309173584,12.486532211303711
1,193371,28.838376998901367,30.24069595336914,5.492091178894043,14.918952941894531
1,193374,-24.322519302368164,8.572208404541016,5.241152763366699,5.8629608154296875
1,193375,-24.871877670288086,-41.01017761230469,14.033966064453125,-2.3708508014678955
1,193378,62.57560348510742,-37.43729782104492,6.451434135437012,7.555342197418213
1,193379,25.181671142578125,22.480348587036133,-27.38826560974121,0.0823618620634079
1,193382,-37.21568298339844,63.4979248046875,-32.956756591796875,-22.54737663269043
1,193383,-36.137420654296875,0.16743507981300354,1.3682734966278076,3.5042405128479004
1,193386,-27.030658721923828,-38.802955627441406,17.943925857543945,36.15361785888672
1,193387,16.490158081054688,-12.33899974822998,24.35581398010254,7.8233208656311035
1,193390,20.967470169067383,20.380359649658203,2.839647054672241,-70.88433837890625
1,193391,18.961206436157227,41.82821273803711,-34.73343276977539,-8.912097930908203
1,193394,26.339651107788086,10.551201820373535,23.631229400634766,76.58086395263672
1,193395,-39.5977897644043,-44.77473831176758,21.721105575561523,-12.18616771697998
1,193650,-8.80358600616455,-48.16062545776367,-42.76774978637695,-33.32735824584961
1,193653,22.705177307128906,11.824931144714355,14.707991600036621,12.326711654663086
1,193654,-29.981924057006836,50.258975982666016,22.801504135131836,3.208266258239746
1,193657,8.318561553955078,10.59502124786377,-22.876203536987305,4.642354488372803
1,193658,5.66935920715332,-23.424488067626953,9.44451904296875,20.180561065673828
1,194405,-3.7059240341186523,3.571288824081421,-10.771129608154297,-2.1495020389556885
1,194406,18.47571563720703,-4.133069038391113,-31.559688568115234,-23.64201545715332
1,194407,-20.634063720703125,-22.83682632446289,17.89446258544922,1.1946715116500854
1,194410,-13.614645004272461,10.200258255004883,24.331113815307617,18.956546783447266
1,194411,6.535237789154053,-6.496434211730957,-2.765162467956543,-9.353181838989258
1,194414,40.585609436035156,-26.061782836914062,-2.696464776992798,-15.601703643798828
1,194415,60.80942916870117,30.357954025268555,15.264900207519531,6.8799872398376465
1,194418,-67.59711456298828,38.062278747558594,2.554945230484009,-4.840522766113281
1,194419,-88.59119415283203,0.3200266361236572,-7.1633148193359375,-3.327442169189453
1,194422,45.74776077270508,-18.568180084228516,-4.877729892730713,6.842406749725342
1,194423,53.711204528808594,-20.746288299560547,-10.536816596984863,-0.08848674595355988
1,194426,-31.14766502380371,-11.059869766235352,7.266351222991943,-15.437651634216309
1,194427,-5.26256799697876,-8.70525074005127,-3.791046142578125,9.157122611999512
1,194430,34.04813003540039,15.225576400756836,-19.214513778686523,8.379048347473145
1,194431,-24.09942626953125,11.642778396606445,9.0278959274292,1.3923379182815552
1,194434,-14.771183013916016,-0.04550057649612427,18.788822174072266,19.86097526550293
1,194435,-4.907341480255127,20.501550674438477,-6.505820274353027,-14.471736907958984
1,194438,-13.617288589477539,4.583878993988037,-15.589456558227539,-13.840245246887207
1,194439,31.41386604309082,0.013820935972034931,2.34905743598938,-6.564558029174805
1,194442,7.821412086486816,-12.518681526184082,5.006154537200928,9.735441207885742
1,194443,-1.73955500125885,-14.443218231201172,16.02570343017578,3.2212319374084473
1,194446,10.27585506439209,6.883697509765625,1.3213536739349365,-12.668112754821777
1,194447,-12.346611022949219,-4.371962547302246,-30.129253387451172,13.681811332702637
1,194450,6.945323467254639,0.989778995513916,11.457987785339355,1.5898020267486572
1,194451,-6.088641166687012,-0.4762607514858246,6.015934467315674,14.465120315551758
1,194454,-15.904830932617188,-46.80584716796875,-10.287328720092773,-7.019598007202148
1,194455,-3.8436362743377686,5.703564167022705,25.641223907470703,-27.446226119995117
1,194458,13.929845809936523,78.172119140625,6.929088592529297,25.34670066833496
1,194459,13.99625301361084,8.91650104522705,-2.7051122188568115,-2.130683660507202
1,194462,-20.978992462158203,-48.326725006103516,-16.73343276977539,-24.0101318359375
1,194463,11.425475120544434,-28.906618118286133,-16.14339256286621,18.425378799438477
1,194466,13.841992378234863,29.124969482421875,24.20028305053711,10.73820686340332
1,194467,-22.438451766967773,14.838655471801758,-0.9119850397109985,-10.925140380859375
1,194470,-12.447789192199707,-7.497926712036133,-16.109376907348633,0.5892302393913269
1,194471,13.006354331970215,6.377444267272949,-3.018720865249634,10.602778434753418
1,194474,17.077993392944336,3.4414069652557373,19.15618133544922,-12.102704048156738
1,194475,-8.632498741149902,3.1756632328033447,16.919710159301758,-12.106014251708984
1,194478,-9.337111473083496,-25.198951721191406,-34.12933349609375,1.5819814205169678
1,194479,-11.334633827209473,-28.603708267211914,-1.2570264339447021,4.965665817260742
1,194482,5.931326389312744,24.746959686279297,18.2188663482666,14.665550231933594
1,194483,20.003385543823242,62.759925842285156,-18.812368392944336,11.957605361938477
1,194486,-13.560140609741211,-0.6932254433631897,20.448171615600586,1.7901009321212769
1,194487,-25.233858108520508,-30.230674743652344,15.184276580810547,-13.227733612060547
1,194490,-5.795250415802002,-25.23462677001953,-49.280418395996094,-5.95235538482666
1,194491,34.593780517578125,-25.00091552734375,-1.7311491966247559,11.062167167663574
1,194494,45.51093673706055,-45.449432373046875,28.991384506225586,-13.604060173034668
1,194495,-2.210033416748047,-4.451533317565918,-11.018321990966797,-24.68649673461914
1,194498,-4.921204566955566,128.11366271972656,16.6947021484375,7.440030574798584
1,194499,25.821060180664062,7.970026969909668,10.463446617126465,16.009029388427734
1,194502,-89.40396118164062,-61.14938735961914,-24.568342208862305,-1.6430540084838867
1,194503,-95.42019653320312,37.73483657836914,-1.6743049621582031,-6.373490810394287
1,194506,103.73680877685547,-38.97038269042969,-8.229368209838867,4.336761951446533
1,194507,62.99699401855469,-58.81961441040039,-0.1625756025314331,2.131944179534912
1,194510,-45.14191818237305,32.8358154296875,17.015779495239258,-10.019342422485352
1,194511,36.87682342529297,61.538414001464844,-0.6461181044578552,11.598237991333008
1,194514,-22.028751373291016,43.466400146484375,15.241361618041992,12.19075870513916
1,194515,-92.84602355957031,12.091046333312988,-9.960986137390137,-10.409163475036621
1,194518,45.73270034790039,-70.75652313232422,-30.304882049560547,10.532746315002441
1,194519,53.067955017089844,-80.53016662597656,11.52417278289795,5.224696636199951
1,194522,-22.81694221496582,28.521038055419922,3.867901563644409,-10.419097900390625
1,194523,13.364906311035156,33.76505661010742,7.900692462921143,3.925138473510742
1,194526,15.822830200195312,-12.07043170928955,25.4935245513916,-4.089684963226318
1,194527,-15.281173706054688,12.343009948730469,-10.365890502929688,-23.663183212280273
1,194530,-20.80616569519043,15.267406463623047,-12.801353454589844,0.3149065375328064
1,194531,-18.18833351135254,-12.061420440673828,3.974997043609619,14.041497230529785
1,194534,-1.192445993423462,13.756742477416992,-4.470977306365967,-13.630889892578125
1,194535,8.36629581451416,9.774857521057129,-6.413064479827881,-3.7643439769744873
1,194538,4.546786308288574,-25.744409561157227,12.013233184814453,16.696300506591797
1,194539,32.2525520324707,-2.0084354877471924,8.112334251403809,14.537955284118652
1,194542,16.630962371826172,1.8078207969665527,-2.808734178543091,-2.460460901260376
1,194544,-27.044235229492188,-15.090527534484863,2.503150701522827,-13.578847885131836
1,194546,-14.484274864196777,31.528535842895508,-4.974136829376221,11.54348087310791
1,194547,9.152071952819824,36.461204528808594,-19.667707443237305,14.012262344360352
1,194550,-30.478904724121094,-27.933008193969727,-10.648963928222656,-6.933481216430664
1,194551,-5.137056350708008,-71.97028350830078,11.009950637817383,-8.550225257873535
1,194554,88.76866149902344,-4.986773490905762,-5.110177040100098,-6.727134704589844
1,194555,29.733613967895508,68.2767333984375,2.432184934616089,9.640813827514648
1,194558,-84.13914489746094,-41.526309967041016,8.196508407592773,-0.805040180683136
1,194559,-44.74545669555664,-40.44514083862305,-4.089268684387207,-32.544097900390625
1,194562,32.86924362182617,115.69071197509766,6.944061279296875,-1.7643170356750488
1,194563,2.642627477645874,59.11623764038086,4.73519229888916,21.541061401367188
1,194566,-3.1590685844421387,-75.2794418334961,9.006135940551758,16.053997039794922
1,194567,9.269222259521484,-41.00027847290039,-1.4879149198532104,-0.004761030897498131
1,194570,10.163769721984863,-15.596956253051758,-25.084840774536133,-7.7119855880737305
1,194571,-6.605866432189941,-1.9012411832809448,-1.4710185527801514,3.550494432449341
1,194574,-18.449230194091797,49.42334747314453,38.293922424316406,-5.878787994384766
1,194575,-10.33517837524414,22.432416915893555,13.85205078125,12.046935081481934
1,194578,8.368059158325195,-47.8323860168457,-34.586307525634766,8.308022499084473
1,194579,16.073781967163086,-30.9497013092041,-19.70647621154785,-28.386449813842773
1,194582,-7.316949367523193,14.381813049316406,0.8510627746582031,-13.397708892822266
1,194583,23.886287689208984,-1.0175751447677612,7.110119342803955,23.6589412689209
1,194586,54.5738525390625,23.848100662231445,19.0494327545166,1.5054020881652832
1,194587,-43.98461151123047,10.038787841796875,-4.944592475891113,-7.1946702003479
1,194590,-71.0255355834961,-23.86130142211914,-23.14847755432129,-3.716092348098755
1,194591,41.82497787475586,13.607189178466797,5.82102108001709,-10.131537437438965
1,194594,3.263613224029541,28.381391525268555,23.750322341918945,31.03460121154785
1,194595,-19.47885513305664,3.4217376708984375,7.057862281799316,-7.075483798980713
1,194598,12.501860618591309,-35.903541564941406,-16.95726203918457,-24.360700607299805
1,194599,0.559315025806427,-20.76258087158203,-4.36722469329834,28.407535552978516
1,194602,36.73455047607422,6.993031024932861,10.006208419799805,-3.013113021850586
1,194603,1.0773411989212036,12.217059135437012,-10.831748962402344,-2.9493248462677
1,194606,-11.967635154724121,29.967018127441406,5.872547149658203,0.3063085377216339
1,194607,-9.822708129882812,-27.92905616760254,0.18613380193710327,-24.71678924560547
1,194610,-37.14878463745117,-46.96617126464844,-8.858785629272461,9.383075714111328
1,194611,62.60935974121094,18.089136123657227,7.895961284637451,2.2870843410491943
1,194614,-2.114266872406006,43.68636703491211,8.429686546325684,9.01651668548584
1,194615,-89.28436279296875,29.121171951293945,-1.9431209564208984,15.540095329284668
1,194618,33.86220169067383,-19.594940185546875,-12.499031066894531,-15.915450096130371
1,194619,42.924556732177734,-15.344080924987793,11.601675033569336,3.9611411094665527
1,194622,-36.73848342895508,0.9447416663169861,-14.294783592224121,-1.6645503044128418
1,194623,-21.4471435546875,-10.96796703338623,-12.312872886657715,-12.267366409301758
1,194626,65.49545288085938,-14.964646339416504,35.760475158691406,10.716562271118164
1,194627,47.85586929321289,-15.345477104187012,1.8695635795593262,10.535917282104492
1,194630,-32.841548919677734,31.130184173583984,-26.940032958984375,0.10369236022233963
1,194631,-64.92487335205078,6.544280052185059,1.4981977939605713,-2.27038311958313
1,194634,-44.29984664916992,-10.674662590026855,17.150814056396484,-2.5826308727264404
1,194635,17.983064651489258,69.5681381225586,5.244572639465332,-10.325995445251465
1,194638,56.99600601196289,28.05342674255371,-8.489124298095703,1.9235728979110718
1,194639,18.45086669921875,-90.0751724243164,-12.76172924041748,18.294811248779297
1,194642,-33.936763763427734,-119.6229476928711,-5.988553524017334,-7.93287992477417
1,194643,5.777347087860107,23.722135543823242,14.363914489746094,-29.620241165161133
1,194646,63.40906524658203,136.34503173828125,18.74900245666504,9.139451026916504
1,194647,-15.438916206359863,-12.768584251403809,-28.632658004760742,16.57722282409668
1,194650,-102.73887634277344,-58.137351989746094,-6.481881618499756,-20.679555892944336
1,194651,3.844651460647583,34.42015075683594,41.46632766723633,0.8006890416145325
1,194654,76.47874450683594,22.124252319335938,-18.068742752075195,14.690974235534668
1,194655,12.883390426635742,-25.159832000732422,-30.9826602935791,16.85504722595215
1,194658,-31.710115432739258,-15.892867088317871,-4.018080711364746,4.329042911529541
1,194659,-4.531456470489502,27.34942626953125,8.817821502685547,-29.778671264648438
1,194662,-0.471228688955307,5.989437580108643,21.626358032226562,-4.073611259460449
1,194663,-17.638425827026367,-5.958423137664795,-4.388067245483398,7.573631286621094
1,194666,2.2402701377868652,-10.3432035446167,10.038407325744629,3.1846370697021484
1,194667,2.5671029090881348,-31.508705139160156,-1.2902225255966187,-2.6792285442352295
1,194670,-10.398553848266602,2.449826717376709,-41.78511047363281,13.568726539611816
1,194671,20.398967742919922,12.14271354675293,5.411620616912842,14.357684135437012
1,194674,29.0362606048584,54.415470123291016,77.91104125976562,-28.65981674194336
1,194676,-24.041139602661133,-0.8425830006599426,1.7598501443862915,-9.82072639465332
1,194677,14.08536148071289,-81.77879333496094,-77.44816589355469,-2.606686592102051
1,194680,16.921714782714844,68.46463012695312,23.10011100769043,-3.3282744884490967
1,194681,-57.33366012573242,29.04041862487793,18.82462501525879,21.349868774414062
1,194684,12.270468711853027,-98.76451873779297,-2.190021276473999,29.15626335144043
1,194685,40.586341857910156,-40.089012145996094,19.906723022460938,-4.045602798461914
1,194688,-12.053803443908691,69.88834381103516,-47.25069808959961,-19.83030891418457
1,194689,-8.285411834716797,53.85863494873047,-18.688833236694336,1.320561408996582
1,194692,-21.861787796020508,-35.534976959228516,25.212661743164062,0.1147812083363533
1,194693,40.75893783569336,-22.017948150634766,8.675895690917969,-1.3345626592636108
1,194696,-55.96854782104492,-41.27605438232422,4.878546714782715,-2.6683237552642822
1,194697,-122.2351303100586,14.178290367126465,-0.4020611047744751,-5.412384510040283
1,194700,121.59297180175781,125.54098510742188,-6.371986389160156,8.263029098510742
1,194703,146.58995056152344,39.558929443359375,-8.477351188659668,-6.421201229095459
1,194703,-16.592649459838867,-71.33673858642578,-1.5798180103302002,-6.273162364959717
1,194706,-104.28996276855469,-92.6746826171875,13.789979934692383,-0.1352998912334442
1,194707,-85.11663055419922,-10.978161811828613,2.56298565864563,-3.6993346214294434
1,194710,69.62291717529297,88.86223602294922,-28.978103637695312,10.055848121643066
1,194711,11.002254486083984,-17.94004249572754,2.93064546585083,-14.951386451721191
1,194714,-78.40327453613281,-52.004573822021484,26.15349578857422,1.8177512884140015
1,194715,102.14874267578125,-22.26539421081543,-14.982704162597656,5.341384410858154
1,194718,86.56948852539062,13.632034301757812,24.7770938873291,14.103833198547363
1,194719,102.94709777832031,139.8789825439453,42.74860382080078,23.55551528930664
1,194722,-100.8576889038086,-32.10114288330078,-58.02728271484375,-34.67689895629883
1,194723,-346.3475341796875,-175.76077270507812,-30.225400924682617,-15.65634536743164
1,194726,114.37157440185547,64.04550170898438,45.12184524536133,12.64160442352295
1,194727,201.18162536621094,78.01597595214844,-0.14510169625282288,6.726526737213135
1,194730,-65.73489379882812,-19.298124313354492,-19.29105567932129,13.740077018737793
1,194731,3.488865852355957,26.51958656311035,2.9791622161865234,-3.3152246475219727
1,194734,28.06901741027832,-8.572453498840332,-1.694845199584961,-7.064724922180176
1,194735,-61.27506637573242,-28.868900299072266,-8.11229133605957,-0.2189524918794632
1,194738,-50.946468353271484,-41.94334030151367,-9.73788833618164,-7.152849197387695
1,194739,81.54147338867188,12.549256324768066,-0.7883433699607849,-1.8632889986038208
1,194742,25.232946395874023,49.44524383544922,24.763376235961914,-0.4278549551963806
1,194743,-23.455411911010742,-10.519619941711426,13.154158592224121,7.368174076080322
1,194746,23.904672622680664,-71.42362213134766,-14.936899185180664,20.47884750366211
1,194747,-58.08671951293945,9.803421974182129,-2.6834487915039062,-0.5698700547218323
1,194750,81.68505096435547,112.34466552734375,6.932962417602539,-31.742263793945312
1,194751,45.829071044921875,-63.51774597167969,-17.43601417541504,-11.877996444702148
1,194754,-167.97169494628906,-115.4561767578125,-8.86966609954834,26.900569915771484
1,194755,-11.997385025024414,56.56972885131836,29.557830810546875,13.730015754699707
1,194758,125.96881866455078,166.8700714111328,0.5407899022102356,-18.926586151123047
1,194759,2.911318302154541,83.2735824584961,-34.136383056640625,-25.406335830688477
1,194762,-135.53086853027344,-76.80950927734375,25.021879196166992,20.547954559326172
1,194763,21.88445472717285,-65.43765258789062,35.55778121948242,28.78327178955078
1,194766,121.5626449584961,-121.95536804199219,-30.762643814086914,-14.472286224365234
1,194767,10.230263710021973,-23.21626853942871,-32.66363525390625,-6.24399995803833
1,194770,-40.8599739074707,141.2535400390625,23.19066619873047,15.066298484802246
1,194771,-58.93592071533203,-40.259559631347656,-2.0564448833465576,-7.385873794555664
1,194774,29.999916076660156,9.036286354064941,2.119312286376953,-8.651922225952148
1,194775,60.25128936767578,110.03672790527344,39.30876159667969,13.77828311920166
1,194778,-75.50215911865234,-198.25340270996094,-50.63174819946289,-22.487829208374023
1,194779,-89.7110595703125,-194.81207275390625,-28.691280364990234,-7.420302867889404
1,194782,29.34886932373047,178.0395965576172,33.00670623779297,30.951963424682617
1,194783,58.619544982910156,154.7677459716797,12.583073616027832,-14.417490005493164
1,194786,-51.57586669921875,77.2730941772461,24.33123016357422,-29.56694221496582
1,194787,-53.43247604370117,57.25935363769531,0.31357526779174805,32.97621536254883
1,194790,30.423337936401367,-107.65489196777344,-8.529499053955078,38.870704650878906
1,194791,39.30141067504883,-88.78788757324219,-16.855379104614258,-45.71272277832031
1,194794,348.4513244628906,-57.613800048828125,0.35571789741516113,4.660170078277588
1,194795,293.95611572265625,-34.52086639404297,25.65778923034668,30.109432220458984
1,194798,-550.8077392578125,5.014313697814941,-43.652305603027344,-54.70061111450195
1,194799,-377.40740966796875,67.98807525634766,8.116097450256348,28.020503997802734
1,194802,361.0826416015625,18.77035903930664,40.38029479980469,22.447954177856445
1,194803,-8.133174896240234,-112.33592224121094,-57.60349655151367,-71.56865692138672
1,194806,-149.61793518066406,22.893701553344727,-5.475419044494629,-0.38058343529701233
1,194807,117.44403076171875,136.75538635253906,40.40647506713867,25.819765090942383
1,194810,49.104087829589844,169.6336669921875,26.01242446899414,18.508468627929688
1,194811,-61.77037811279297,-8.48241138458252,0.02577495016157627,43.58467483520508
1,194814,-118.7560806274414,-273.6587829589844,-55.697349548339844,-0.952769935131073
1,194815,20.35087013244629,-60.23997497558594,-17.801225662231445,-20.0927677154541
1,194818,78.07270812988281,93.57064056396484,14.512737274169922,-48.09626007080078
1,194819,14.602911949157715,6.21923303604126,21.950204849243164,-43.29694366455078
1,194822,68.5565185546875,36.92851638793945,0.22966794669628143,81.86278533935547
1,194823,185.6868438720703,8.616141319274902,-23.845230102539062,47.46879577636719
1,194826,17.3852481842041,5.583534240722656,29.50814437866211,-64.34296417236328
1,194827,-214.58309936523438,5.336275577545166,10.066553115844727,-4.919648170471191
1,194830,-131.13970947265625,-65.92134094238281,-30.904212951660156,-5.101120948791504
1,194831,16.49713134765625,-21.820802688598633,20.639877319335938,-37.27625274658203
1,194834,36.59320068359375,31.913772583007812,26.308574676513672,41.678985595703125
1,194835,32.09032440185547,32.58335876464844,7.7968645095825195,41.249691009521484
1,194838,92.72834014892578,-15.689875602722168,-34.83719253540039,-21.672237396240234
1,194839,-2.0942296981811523,32.319244384765625,-25.791149139404297,4.78464937210083
1,194842,-62.81058120727539,62.54307556152344,31.564605712890625,11.95911693572998
1,194843,-95.3273696899414,-117.06942749023438,-26.721574783325195,-76.50455474853516
1,194846,-12.764812469482422,-56.9376335144043,14.381179809570312,5.5797247886657715
1,194847,182.0203399658203,90.32478332519531,20.452877044677734,81.91985321044922
1,194850,89.04427337646484,72.94182586669922,-26.98883819580078,-11.483133316040039
1,194851,-127.06083679199219,33.96611022949219,27.650239944458008,-22.99553871154785
1,194854,-179.96678161621094,-135.05459594726562,-4.437106132507324,-24.332073211669922
1,194855,74.17079162597656,-31.40879249572754,3.882185697555542,4.018283367156982
1,194858,163.82115173339844,105.57836151123047,-6.6554107666015625,58.35648727416992
1,194859,-16.330322265625,-158.58786010742188,-55.49227523803711,42.273155212402344
1,194862,-125.35467529296875,-11.859258651733398,16.155561447143555,4.040464401245117
1,194863,-21.858430862426758,239.3564453125,32.94626998901367,-72.5306625366211
1,194866,130.39227294921875,23.137088775634766,1.3423840999603271,-83.2955093383789
1,194867,148.49417114257812,-101.4168472290039,20.143579483032227,20.894189834594727
1,194870,-67.62107849121094,-92.55335998535156,7.659308433532715,67.00303649902344
1,194873,-342.3638916015625,-45.222564697265625,-45.60786819458008,-14.192377090454102
1,194874,-27.41227149963379,63.94828414916992,-16.050050735473633,-52.27428436279297
1,194875,200.06375122070312,70.62740325927734,32.96221160888672,22.31578826904297
1,194878,-11.137445449829102,-10.341937065124512,10.94863510131836,13.8560209274292
1,194879,-39.219181060791016,1.1381967067718506,-1.5746729373931885,-22.51000213623047
1,194882,85.22172546386719,-2.3123233318328857,-30.599660873413086,27.933393478393555
1,194883,58.06720733642578,-117.87213897705078,-37.54465866088867,22.713167190551758
1,194886,-47.532936096191406,14.198909759521484,58.11971664428711,-12.401875495910645
1,194887,-19.363496780395508,161.94627380371094,52.79255676269531,13.39826774597168
1,194890,-0.17372757196426392,-64.50273132324219,-52.136688232421875,9.662625312805176
1,194891,-46.272422790527344,-79.23409271240234,-22.553974151611328,-31.033069610595703
1,194894,45.23893737792969,159.9558868408203,15.33092212677002,-16.012434005737305
1,194895,118.32122802734375,70.47813415527344,-0.6695247292518616,15.891180992126465
1,194898,-69.34735107421875,-217.4522247314453,5.309813976287842,26.284759521484375
1,194899,-54.135868072509766,-112.58564758300781,4.382649898529053,3.824064254760742
1,194902,20.93675422668457,182.19781494140625,-11.154741287231445,-57.45780944824219
1,194903,-90.53581237792969,65.85259246826172,-6.139698028564453,-41.857730865478516
1,194906,59.08842468261719,-23.321561813354492,23.761999130249023,53.857177734375
1,194907,162.19509887695312,-42.5459098815918,-5.798506736755371,50.85525894165039
1,194910,-127.6774673461914,-132.3185577392578,-37.338199615478516,-16.876483917236328
1,194911,-140.41004943847656,-12.43354606628418,-5.862804889678955,-12.687174797058105
1,194914,137.08624267578125,131.58053588867188,32.65534591674805,-12.918697357177734
1,194915,9.54123306274414,152.2769317626953,51.26576232910156,-0.9623581171035767
1,194918,-94.48345184326172,-46.00816345214844,-12.083818435668945,20.493146896362305
1,194919,13.765913963317871,-171.08934020996094,-40.0393180847168,16.79995346069336
1,194922,32.5582275390625,-2.6234753131866455,19.54033088684082,4.645259857177734
1,194923,-25.07741928100586,31.826932907104492,-22.850723266601562,-8.885332107543945
1,194926,-70.78141021728516,-72.85442352294922,-31.276575088500977,-54.539554595947266
1,194927,112.78522491455078,35.8808708190918,29.5559139251709,-46.97920608520508
1,194930,328.6611328125,221.8905487060547,37.91172409057617,108.29618072509766
1,194931,81.81846618652344,-63.086917877197266,-7.143256664276123,64.68553161621094
1,194934,-496.373291015625,-236.78713989257812,-43.67414093017578,-117.51805877685547
1,194935,-249.85232543945312,148.0210723876953,28.36374855041504,-73.22176361083984
1,194938,325.90582275390625,97.17381286621094,21.28485679626465,77.67497253417969
1,194939,83.00779724121094,-128.27011108398438,-27.117252349853516,76.5941162109375
1,194942,-122.00691223144531,6.304769992828369,12.398348808288574,12.581366539001465
1,194943,78.08869934082031,-11.490986824035645,-1.7033551931381226,11.58741283416748
1,194946,37.43464279174805,-31.793039321899414,-7.266524314880371,-47.055328369140625
1,194947,-91.24353790283203,115.60124969482422,-7.210897922515869,-71.74781799316406
1,194950,-60.84050369262695,22.914148330688477,-27.85138511657715,-30.950220108032227
1,194951,-10.863012313842773,-97.91162872314453,13.329679489135742,31.564409255981445
1,194954,81.15825653076172,-29.884952545166016,3.3046891689300537,51.15852355957031
1,194955,70.17720031738281,5.855769157409668,-0.7633512616157532,-26.009794235229492
1,194958,-12.067909240722656,67.96983337402344,18.436073303222656,-14.239090919494629
1,194959,-6.010425567626953,63.05278015136719,-19.584083557128906,10.263045310974121
1,194962,4.409257411956787,-57.87743377685547,27.423534393310547,-9.16396427154541
1,194963,-34.38414001464844,-90.46044921875,28.591890335083008,-0.2228544056415558
1,194966,-44.036766052246094,24.884571075439453,-31.78416633605957,38.727149963378906
1,194967,5.659145355224609,51.02290344238281,-29.55599021911621,40.79464340209961
1,194970,30.202964782714844,-58.731021881103516,-1.7978177070617676,-45.37245559692383
1,194971,25.188426971435547,1.2843480110168457,29.594934463500977,0.653453528881073
1,194974,-10.124451637268066,50.35087585449219,-10.573305130004883,18.41611671447754
1,194975,-50.2854118347168,23.6284236907959,11.073585510253906,-49.410240173339844
1,194978,98.52955627441406,42.673221588134766,49.99515914916992,7.356361389160156
1,194979,69.49927520751953,-14.687702178955078,-3.72436261177063,38.414955139160156
1,194982,-130.938232421875,-16.973800659179688,-54.71762466430664,-15.801780700683594
1,194983,-63.409053802490234,12.893567085266113,-39.1607551574707,-69.60639953613281
1,194986,-15.992003440856934,-45.8139762878418,20.497713088989258,17.504852294921875
1,194987,81.71670532226562,-55.89384078979492,31.87661361694336,93.00423431396484
1,194990,29.532501220703125,-27.30323028564453,-25.483308792114258,1.554384469985962
1,194991,-98.74999237060547,-69.1314468383789,-24.867446899414062,-32.459068298339844
1,194994,145.76934814453125,70.60269927978516,30.991819381713867,-23.865915298461914
1,194995,126.7730484008789,168.74192810058594,-1.8242886066436768,-37.394569396972656
1,194998,-154.05886840820312,-67.74664306640625,0.4997025728225708,10.030584335327148
1,194999,-145.97300720214844,-74.82829284667969,38.06743621826172,53.00540542602539
1,195002,11.603399276733398,33.505252838134766,-19.524370193481445,34.790828704833984
1,195003,110.32537841796875,35.3876838684082,-21.705469131469727,4.0309062004089355
1,195006,119.50516510009766,153.19659423828125,33.49985885620117,-34.6497802734375
1,195007,-186.89755249023438,56.28890609741211,-6.67617654800415,-30.404117584228516
1,195010,-213.65870666503906,-329.2247009277344,-41.81361770629883,-28.01228904724121
1,195011,171.8697052001953,-235.34518432617188,1.1705913543701172,-42.12836837768555
1,195014,170.81105041503906,333.0206604003906,42.73910903930664,57.72700881958008
1,195015,66.8512954711914,284.1652526855469,24.615135192871094,47.15485382080078
1,195018,-180.84849548339844,-138.09576416015625,-36.435176849365234,-56.70001983642578
1,195019,-178.06338500976562,-153.84768676757812,-36.389549255371094,-7.21754789352417
1,195022,306.6561584472656,-99.82157897949219,27.230079650878906,57.686546325683594
1,195023,151.83360290527344,-60.081993103027344,15.653903007507324,0.010799468494951725
1,195026,-257.5062255859375,113.0056381225586,-13.752547264099121,-37.90049362182617
1,195027,-86.36192321777344,71.20832824707031,-3.3484952449798584,23.14985466003418
1,195030,28.65607452392578,1.5930010080337524,3.693049192428589,-10.23173713684082
1,195031,22.815093994140625,20.545330047607422,31.236778259277344,5.412877559661865
1,195034,89.24905395507812,-37.599342346191406,5.093504428863525,60.291725158691406
1,195035,-31.97066879272461,32.5362548828125,-61.4134521484375,-44.83892059326172
1,195038,-17.525127410888672,-5.796483516693115,-20.04136848449707,-57.82440948486328
1,195039,33.93785095214844,-66.96263885498047,61.27311706542969,42.74972915649414
1,195042,-109.04310607910156,-17.46851921081543,19.069690704345703,8.929892539978027
1,195043,-48.62541961669922,-20.44644546508789,-27.7496337890625,-31.2343692779541
1,195046,282.32342529296875,151.8883056640625,20.679439544677734,19.511016845703125
1,195047,218.3755645751953,107.4363784790039,-19.563556671142578,-0.1798800677061081
1,195050,-285.3193359375,-149.83160400390625,-59.98971176147461,6.986550331115723
1,195051,-268.00640869140625,-22.741010665893555,66.21746063232422,34.7787971496582
1,195054,78.42472076416016,35.021583557128906,41.698307037353516,-31.943580627441406
1,195055,71.1251449584961,-81.76410675048828,-51.93011474609375,-36.28062438964844
1,195058,26.6452579498291,-50.51136016845703,-3.995260238647461,9.489083290100098
1,195060,8.49127197265625,-4.948792934417725,-26.035615921020508,1.3785812854766846
1,195061,-52.15154266357422,83.76556396484375,-2.8913116455078125,22.554109573364258
1,195064,2.226924180984497,55.94412612915039,43.20370101928711,14.470372200012207
1,195065,-68.03096771240234,-14.905497550964355,4.007874488830566,-46.824703216552734
1,195068,-71.54528045654297,-67.91712951660156,-18.52383041381836,-19.05986976623535
1,195069,114.17318725585938,-96.41168975830078,-10.266018867492676,25.219364166259766
1,195072,99.60943603515625,107.75868225097656,-10.480558395385742,14.251381874084473
1,195073,122.3237533569336,108.27598571777344,-22.801679611206055,4.48720645904541
1,195076,173.4029541015625,-36.48111343383789,79.82124328613281,34.69584655761719
1,195077,-180.28709411621094,80.86895751953125,51.88453674316406,22.214723587036133
1,195080,-351.0193176269531,81.65057373046875,-96.08721160888672,-75.05152130126953
1,195081,40.31012725830078,-129.1966094970703,-1.6653445959091187,-63.13772964477539
1,195084,109.29169464111328,-221.49539184570312,14.065533638000488,78.11640930175781
1,195085,-38.40522003173828,-177.6942138671875,-51.84992599487305,70.7832260131836
1,195088,158.0125274658203,108.66710662841797,37.10210418701172,-37.6351432800293
1,195089,129.31394958496094,239.99838256835938,25.580751419067383,-16.982402801513672
1,195092,-95.57808685302734,91.01117706298828,-13.306044578552246,-23.523422241210938
1,195093,-81.06826782226562,-5.136678695678711,15.380922317504883,-10.222564697265625
1,195096,-153.32022094726562,-114.14681243896484,-19.747848510742188,28.335723876953125
1,195097,25.607149124145508,2.8485803604125977,-6.347944736480713,-30.31881332397461
1,195100,163.98281860351562,44.14316940307617,35.31303024291992,13.1598482131958
1,195101,-37.554298400878906,-26.424100875854492,-4.323923587799072,54.099910736083984
1,195104,-107.69761657714844,-69.88030242919922,6.750581741333008,-16.80397605895996
1,195105,-20.69122886657715,-10.063491821289062,-2.068720817565918,-19.961336135864258
1,195108,173.11309814453125,192.107177734375,-47.46426010131836,-28.745248794555664
1,195109,115.99555969238281,28.770639419555664,-10.965948104858398,17.436355590820312
1,195112,-86.6915054321289,-182.14337158203125,40.67245864868164,33.183441162109375
1,195113,-142.25311279296875,-105.7059097290039,7.524054527282715,-75.05351257324219
1,195116,-0.3488386869430542,26.666839599609375,-37.03720474243164,10.48059368133545
1,195117,89.2162857055664,66.88458251953125,18.5752010345459,83.48541259765625
1,195120,14.067265510559082,-7.3369317054748535,11.158965110778809,-0.08940045535564423
1,195121,-43.38082504272461,7.9729766845703125,-36.20103454589844,-50.256980895996094
1,195124,-2.9882757663726807,71.49678039550781,10.521563529968262,-35.025386810302734
1,195125,-8.98282241821289,16.075658798217773,46.13285827636719,32.48820114135742
1,195128,-38.68612289428711,25.115407943725586,-11.916515350341797,-1.3337067365646362
1,195129,-22.30533218383789,-7.955610275268555,-31.006521224975586,-68.87808227539062
1,195132,23.437021255493164,-56.03422546386719,43.96686935424805,61.53231430053711
1,195133,47.82347869873047,-44.407264709472656,12.808385848999023,89.36699676513672
1,195136,-13.905472755432129,-93.7028579711914,-59.044681549072266,-73.24329376220703
1,195137,25.905799865722656,19.24378204345703,-2.8342580795288086,-20.479774475097656
1,195140,4.645553112030029,149.60293579101562,-0.41979458928108215,51.4841194152832
1,195141,-74.94896697998047,44.2514762878418,-1.1216036081314087,-17.54810905456543
1,195144,56.3719367980957,-29.50266456604004,60.98719024658203,-26.342485427856445
1,195145,204.56588745117188,19.70110321044922,21.882761001586914,0.22150947153568268
1,195148,35.55369186401367,-42.24432373046875,-44.57989501953125,21.646955490112305
1,195149,-301.8560485839844,-101.45006561279297,-59.57316207885742,-10.500823020935059
1,195152,-175.55455017089844,10.570769309997559,25.230201721191406,-12.165781021118164
1,195153,100.8847885131836,-10.522444725036621,40.27022171020508,29.08392333984375
1,195156,54.61410140991211,-73.42567443847656,-33.89735794067383,4.035068511962891
1,195157,156.2941131591797,96.15711212158203,-43.13861846923828,-17.82790184020996
1,195160,32.64596939086914,113.72607421875,1.1562241315841675,-59.3011360168457
1,195161,-92.89053344726562,-38.600746154785156,61.40164566040039,11.9194974899292
1,195164,151.56378173828125,92.00506591796875,45.564048767089844,94.85669708251953
1,195165,-114.18358612060547,73.63917541503906,-19.25653839111328,-40.060672760009766
1,195168,-280.9234313964844,-275.1756896972656,-60.08808898925781,-82.74978637695312
1,195169,124.07064056396484,-151.31983947753906,-3.5032033920288086,41.445945739746094
1,195172,135.52459716796875,183.3188018798828,44.08262252807617,42.208457946777344
1,195173,-27.574806213378906,129.09376525878906,12.630390167236328,-17.67831039428711
1,195176,75.63644409179688,-20.0500545501709,4.503297805786133,25.209636688232422
1,195177,-77.25505828857422,0.25207892060279846,5.852300643920898,7.327773571014404
1,195180,-125.38206481933594,-65.96601104736328,-42.03331756591797,10.271425247192383
