Aktueller Finger,timestamp_ms,sensor_0,sensor_1,sensor_2,sensor_3
0,836457,-53.7369499206543,-17.47587013244629,-43.50246047973633,-29.267019271850586
0,836460,-23.21141815185547,-30.349708557128906,4.819951057434082,-13.886510848999023
0,836461,42.21979904174805,40.63969802856445,21.212358474731445,16.34895133972168
0,836464,-19.442028045654297,-3.975559949874878,-50.2015495300293,6.6758880615234375
0,836465,14.424840927124023,-12.963627815246582,49.71171569824219,-1.4097837209701538
0,836468,19.638154983520508,47.700008392333984,34.12724304199219,-0.24537266790866852
0,836472,-77.13796997070312,-36.90140151977539,-122.84523010253906,-28.106847763061523
0,836472,-10.717801094055176,-68.45663452148438,-5.481410980224609,-33.65742874145508
0,836474,66.6493911743164,25.875452041625977,120.0984878540039,56.890113830566406
0,836475,-5.620985507965088,54.89575958251953,27.561067581176758,52.22907257080078
0,836478,-16.79636573791504,-12.975638389587402,-46.24214172363281,-41.7494010925293
0,836479,33.572479248046875,-16.713808059692383,-23.718568801879883,-36.366729736328125
0,836482,-14.064910888671875,16.826221466064453,-7.21805477142334,46.29226303100586
0,836483,-61.66791534423828,-3.358696699142456,-22.469982147216797,39.606781005859375
0,836486,52.34451675415039,-15.043268203735352,38.24475860595703,-25.42281723022461
0,836487,86.74744415283203,3.5491926670074463,47.04015350341797,-30.0177001953125
0,836490,-67.26480102539062,14.5791654586792,-55.225311279296875,-28.513290405273438
0,836491,-57.40768814086914,-10.648820877075195,-34.21730041503906,8.839765548706055
0,836494,39.60981750488281,7.35773229598999,37.515968322753906,39.8827018737793
0,836495,16.60665512084961,-3.050499200820923,22.59034538269043,-9.263760566711426
0,836498,11.254390716552734,-25.179372787475586,-25.65462875366211,-14.698065757751465
0,836499,-25.494321823120117,13.684045791625977,-27.860170364379883,6.329844951629639
0,836502,-53.277503967285156,3.891026020050049,-2.6984469890594482,-15.300028800964355
0,836503,27.978092193603516,10.148181915283203,0.03986261039972305,-1.0936542749404907
0,836506,59.53922653198242,27.817371368408203,76.05977630615234,13.162681579589844
0,836507,28.58693504333496,-28.84327507019043,50.58633804321289,5.569847583770752
0,836510,-51.386817932128906,-26.525243759155273,-109.38375854492188,-1.9774435758590698
0,836511,-53.26399230957031,14.604079246520996,-55.86033248901367,-25.076173782348633
0,836514,32.04949951171875,2.861274242401123,74.61488342285156,19.27988624572754
0,836515,16.105426788330078,17.402921676635742,28.2084903717041,32.56118392944336
0,836518,-3.8006975650787354,-11.916584014892578,-30.853899002075195,-58.59046936035156
0,836519,0.8625684380531311,-25.59415054321289,-13.214369773864746,-11.60749626159668
0,836522,-17.262414932250977,22.16765785217285,-7.154795169830322,75.65186309814453
0,836523,-7.457072734832764,-2.330728769302368,-38.639915466308594,-33.923248291015625
0,836526,44.94329833984375,12.196084976196289,64.09599304199219,-57.63566207885742
0,836527,15.350812911987305,34.380043029785156,106.20355987548828,58.581790924072266
0,836530,-74.93053436279297,-27.642192840576172,-119.39252471923828,34.14161682128906
0,836531,-8.415431022644043,-34.44837188720703,-93.50474548339844,-33.614891052246094
0,836534,63.97053909301758,31.029264450073242,120.5404281616211,-14.76888370513916
0,836535,13.597949981689453,21.695466995239258,37.38307571411133,11.201241493225098
0,836538,-22.853641510009766,-24.22918128967285,-54.018863677978516,29.55542755126953
0,836539,-10.411022186279297,7.693789958953857,4.895312309265137,-35.487430572509766
0,836542,-3.8458030223846436,-8.648359298706055,-28.115259170532227,-58.96973419189453
0,836543,-31.532495498657227,-27.333332061767578,-39.23307418823242,52.04337692260742
0,836546,24.41131019592285,-4.171972274780273,57.073341369628906,22.875276565551758
0,836547,56.349308013916016,18.145843505859375,67.6354751586914,-4.458230018615723
0,836550,-49.620086669921875,32.05897903442383,-50.98931121826172,23.484848022460938
0,836551,-26.241191864013672,-9.23758316040039,-75.61805725097656,-29.598655700683594
0,836554,47.748268127441406,-26.03019905090332,49.970489501953125,3.5686826705932617
0,836555,-14.742158889770508,-1.109989881515503,43.696773529052734,0.7366145849227905
0,836558,-5.359841346740723,17.131725311279297,-24.23787498474121,-37.556129455566406
0,836559,21.51361083984375,-13.672740936279297,16.23515510559082,44.388153076171875
0,836562,-38.72867202758789,-23.758197784423828,-30.27672576904297,2.8200106620788574
0,836563,-23.586868286132812,25.735279083251953,-44.21755599975586,-30.527090072631836
0,836566,51.711090087890625,25.413021087646484,80.87591552734375,8.513975143432617
0,836567,45.47649002075195,-13.192208290100098,50.550331115722656,-9.43275260925293
0,836570,-60.32358932495117,-26.834461212158203,-124.58504486083984,14.459434509277344
0,836571,-36.486732482910156,0.6317290663719177,-64.23762512207031,-1.8161596059799194
0,836574,59.22502899169922,21.069284439086914,125.52685546875,23.747224807739258
0,836575,-4.812833786010742,4.893137454986572,38.419883728027344,20.86948585510254
0,836578,-16.18607521057129,2.8993546962738037,-62.858131408691406,-53.327354431152344
0,836579,7.790627479553223,10.799488067626953,-6.149015426635742,5.773482322692871
0,836834,45.26808166503906,-119.24322509765625,-3.0554680824279785,33.505435943603516
0,836837,117.54997253417969,-116.18788146972656,27.4464054107666,-74.9042739868164
0,836839,-28.9601993560791,156.5872344970703,40.863033294677734,-56.56884765625
0,836840,-119.73698425292969,165.86346435546875,-9.876327514648438,75.71354675292969
0,836843,-81.59427642822266,16.53700828552246,-40.86757278442383,97.53890991210938
0,836844,-8.395599365234375,-32.05631637573242,2.5561740398406982,15.16620922088623
0,914419,-89.79778289794922,20.9596004486084,-66.59854125976562,-100.30242919921875
0,914419,-171.40652465820312,68.70724487304688,-100.38177490234375,-30.586307525634766
0,914422,231.1345672607422,-186.63832092285156,105.19233703613281,87.32594299316406
0,914423,244.99082946777344,-199.9253692626953,104.79861450195312,8.812944412231445
0,914426,-31.911848068237305,101.15560913085938,18.75139808654785,-26.71678352355957
0,914427,15.1190824508667,53.692115783691406,-27.167236328125,-15.774259567260742
0,914430,-41.24698257446289,32.40448760986328,-45.344635009765625,9.17238998413086
0,914431,-63.451255798339844,120.68804931640625,19.870986938476562,38.50068664550781
0,914434,2.3374288082122803,-40.49604415893555,10.01778507232666,-72.13414764404297
0,914435,27.378219604492188,-72.49107360839844,119.65972137451172,-11.838920593261719
0,914438,-106.7589340209961,128.68565368652344,-50.73778533935547,51.13871383666992
0,914439,-180.92962646484375,43.684165954589844,-291.6458740234375,-64.02629089355469
0,914442,132.1461944580078,-235.36605834960938,79.93185424804688,44.31142044067383
0,914443,195.6295928955078,-109.30387115478516,191.85658264160156,15.342633247375488
0,914446,-12.611215591430664,102.98097229003906,-26.066587448120117,-46.952659606933594
0,914447,-20.862537384033203,33.12162780761719,-34.02770233154297,19.995391845703125
0,914450,5.379703998565674,66.097412109375,-18.406599044799805,5.9811835289001465
0,914451,-6.380284309387207,79.23947143554688,-11.630553245544434,24.137990951538086
0,914454,-57.72005081176758,-100.29143524169922,-17.187856674194336,-1.578690528869629
0,914455,18.913597106933594,-69.21090698242188,41.16160583496094,3.330157518386841
0,914458,-22.196672439575195,168.30081176757812,7.848891258239746,-72.91539764404297
0,914459,-164.62205505371094,82.51591491699219,-107.39794921875,-57.40233612060547
0,914462,103.94239807128906,-242.96939086914062,35.38819885253906,125.49209594726562
0,914463,169.75665283203125,-96.6605224609375,126.36016082763672,58.276485443115234
0,914466,-48.719486236572266,158.90707397460938,4.285097599029541,-58.01393508911133
0,914467,-48.93779373168945,-11.578912734985352,-51.22565460205078,-10.866039276123047
0,914470,-48.709129333496094,-8.23025131225586,-42.14180374145508,-15.074735641479492
0,914471,-8.378717422485352,80.77122497558594,-20.658117294311523,-12.093242645263672
0,914474,49.166290283203125,-76.61070251464844,16.747879028320312,58.284114837646484
0,914475,62.51719284057617,-52.62154006958008,68.08953094482422,-9.737521171569824
0,914478,-62.32146453857422,129.33978271484375,-51.79477310180664,-58.49332809448242
0,914479,-184.55606079101562,62.80049133300781,-119.83578491210938,11.047694206237793
0,914482,138.8558807373047,-147.86402893066406,111.73352813720703,22.722148895263672
0,914483,194.87063598632812,-102.9593276977539,104.05931091308594,40.89259338378906
0,914486,-85.2558822631836,88.0560531616211,-65.7357177734375,2.153709888458252
0,914487,-33.05974197387695,63.31077575683594,-33.83159255981445,-64.83737182617188
0,914490,-37.42184829711914,-17.547557830810547,-10.091464042663574,1.0780261754989624
0,914491,-50.257408142089844,35.02009963989258,21.60234832763672,-1.7890533208847046
0,914494,64.10697937011719,-46.74332809448242,29.167865753173828,-1.1981743574142456
0,914495,76.52812194824219,-71.33989715576172,-2.709977388381958,40.630741119384766
0,914498,-79.3771743774414,133.80467224121094,-39.77887725830078,-29.346529006958008
0,914499,-161.66287231445312,74.47704315185547,-50.848785400390625,3.3567380905151367
0,914502,121.50660705566406,-172.86734008789062,81.59840393066406,27.219449996948242
0,914503,159.5170135498047,-55.753395080566406,52.67579650878906,-42.011959075927734
0,914506,-65.2376480102539,111.7391128540039,-48.303836822509766,-9.769174575805664
0,914507,-65.50679016113281,-24.247465133666992,-21.952404022216797,10.085015296936035
0,914510,-15.379037857055664,10.205434799194336,-32.992515563964844,17.63384246826172
0,914511,1.112986445426941,76.23265075683594,15.28717041015625,19.2949275970459
0,914514,13.832375526428223,-95.2513427734375,18.528059005737305,-0.36358004808425903
0,914515,84.37872314453125,-58.01911163330078,31.946094512939453,20.182722091674805
0,914518,-32.409969329833984,117.17123413085938,24.612667083740234,-12.797525405883789
0,914519,-197.64369201660156,89.79988098144531,-100.91217803955078,-35.809364318847656
0,914522,98.0715103149414,-119.01641082763672,-4.2504682540893555,37.54943084716797
0,914523,178.535888671875,-131.20794677734375,88.33782196044922,53.052093505859375
0,914526,-104.20523071289062,101.46051788330078,-10.859328269958496,-100.80770111083984
0,914527,-45.179443359375,55.00421142578125,-50.97201156616211,-80.69002532958984
0,914530,38.364444732666016,-43.37673568725586,-28.53203773498535,98.01895904541016
0,914531,-28.027700424194336,55.621646881103516,35.322086334228516,62.737403869628906
0,914534,-10.662724494934082,-17.263633728027344,43.57578659057617,-38.94554901123047
0,914536,68.26055145263672,-98.55683898925781,13.546490669250488,-53.38739013671875
0,914538,-26.478069305419922,81.31851959228516,-51.67267990112305,-17.05282211303711
0,914540,-131.09376525878906,88.54222869873047,-93.2518310546875,41.111000061035156
0,914542,130.83612060546875,-175.3671875,93.3464584350586,49.092933654785156
0,914544,119.41897583007812,-57.516212463378906,98.3509521484375,24.366947174072266
0,914546,-92.91463470458984,150.4585723876953,-50.72603225708008,-12.043752670288086
0,914548,-47.30887985229492,-30.35604476928711,-49.35237121582031,-107.43318939208984
0,914549,-27.321714401245117,-39.837406158447266,-33.3936882019043,-57.59184646606445
0,914552,4.225541114807129,123.15335845947266,22.221466064453125,104.50435638427734
0,914553,25.995248794555664,-23.068340301513672,50.8306884765625,41.564212799072266
0,914556,47.64140701293945,-144.46522521972656,37.80695343017578,-33.340919494628906
0,914557,25.897218704223633,106.03750610351562,-15.590152740478516,0.7404391765594482
0,914560,-117.64006805419922,136.64456176757812,-107.48222351074219,-3.0442183017730713
0,914561,-86.75481414794922,-127.19148254394531,-76.91876220703125,36.77958297729492
0,914564,145.56365966796875,-114.49993133544922,109.35160064697266,20.476402282714844
0,914565,81.77108764648438,55.98615646362305,104.1994857788086,-43.12028121948242
0,914568,-121.09109497070312,107.17919158935547,-53.824554443359375,-42.551761627197266
0,914571,-49.8831672668457,23.370229721069336,-46.67664337158203,-17.41556167602539
0,914572,24.03299331665039,-172.959716796875,-76.89547729492188,-24.64190673828125
0,914573,59.454689025878906,-98.36467742919922,15.227530479431152,32.84943389892578
0,914576,96.01628112792969,213.74423217773438,183.81016540527344,129.68057250976562
0,914577,-28.856082916259766,154.24891662597656,9.908865928649902,-12.962248802185059
0,914580,-131.06398010253906,-113.90312194824219,-115.80194091796875,-106.80622100830078
0,914581,-9.746085166931152,-154.34140014648438,-14.528264999389648,36.85608673095703
0,914584,129.4727783203125,13.87934398651123,41.72462463378906,22.13446807861328
0,914585,18.15709686279297,91.87157440185547,3.9928383827209473,-17.43857192993164
0,914588,-93.9151840209961,6.413222789764404,-21.475727081298828,36.19929504394531
0,914589,-0.5009678602218628,-59.063865661621094,-6.242119789123535,-1.1849961280822754
0,914592,-19.46668243408203,-1.776910662651062,-38.51420211791992,-38.335777282714844
0,914593,-17.627349853515625,-0.5680718421936035,-5.337360858917236,-2.615922212600708
0,914596,112.30718231201172,-51.51908874511719,73.73368072509766,2.8467869758605957
0,914597,-22.261409759521484,129.38963317871094,31.660547256469727,-47.00729751586914
0,914600,-152.04095458984375,37.87528991699219,-97.32482147216797,-19.998807907104492
0,914601,52.492435455322266,-181.33761596679688,-55.122859954833984,32.51413345336914
0,914604,129.86837768554688,14.145624160766602,112.66685485839844,29.19179916381836
0,914605,-34.116615295410156,81.89492797851562,53.039546966552734,-17.486684799194336
0,914608,-31.83478355407715,53.22869873046875,-64.96788024902344,11.292343139648438
0,914609,17.719491958618164,28.40997886657715,-25.79136848449707,55.109378814697266
0,914612,-69.42041015625,-57.03626251220703,-7.934093952178955,-4.300779819488525
0,914613,31.106842041015625,-53.49123001098633,13.6324462890625,-33.97665023803711
0,914616,96.53934478759766,-71.99777221679688,44.91096115112305,-25.233896255493164
0,914617,-68.25682067871094,89.8545913696289,-15.604364395141602,-32.253746032714844
0,914620,-89.05103302001953,99.47754669189453,-75.20735168457031,19.24567222595215
0,914621,30.526826858520508,-127.22549438476562,-13.150625228881836,56.10807800292969
0,914624,117.24290466308594,-47.7262077331543,110.74913787841797,31.708280563354492
0,914625,-4.382641315460205,99.445556640625,18.626630783081055,-20.72209930419922
0,914628,-86.09568786621094,63.53097915649414,-66.3914566040039,-126.73458099365234
0,914629,11.377603530883789,-43.978607177734375,9.901104927062988,1.1619552373886108
0,914632,-35.103546142578125,-19.443708419799805,-11.380009651184082,129.78509521484375
0,914633,34.14115524291992,2.2015604972839355,24.074800491333008,9.758000373840332
0,914636,137.8452606201172,-155.7997589111328,22.524417877197266,-38.25834655761719
0,914637,-73.03363800048828,83.96307373046875,-40.11445236206055,-38.167320251464844
0,914640,-156.91287231445312,206.72340393066406,-36.15070343017578,-16.203857421875
0,914641,44.71961212158203,-147.0816650390625,-18.14337730407715,41.05643844604492
0,914644,131.2314910888672,-84.2066879272461,62.33811950683594,33.83382034301758
0,914645,-17.211627960205078,87.59335327148438,27.121564865112305,-19.486133575439453
0,914648,-89.48578643798828,60.87125778198242,-44.21931457519531,-28.44356918334961
0,914649,-1.0880365371704102,-41.2294807434082,-19.508024215698242,9.209867477416992
0,914652,3.5288164615631104,-34.62257385253906,1.9808194637298584,23.2349796295166
0,914653,15.604659080505371,-2.019387722015381,52.53044128417969,-5.666414737701416
0,914656,70.27159118652344,-73.7887954711914,39.17487335205078,-33.68755340576172
0,914657,-21.492231369018555,101.66790008544922,-37.861358642578125,-12.835766792297363
0,914660,-112.51063537597656,65.33014678955078,-68.93049621582031,20.078784942626953
0,914661,14.929113388061523,-135.8136444091797,-2.9846551418304443,-4.012188911437988
0,914664,114.0463638305664,-17.779685974121094,110.8536148071289,-0.8215799927711487
0,914665,-34.75796127319336,73.77384948730469,11.509787559509277,46.5614128112793
0,914668,-50.34320831298828,29.62838363647461,-112.50128173828125,6.584412574768066
0,914669,73.21561431884766,-12.533428192138672,-20.30386734008789,-35.742984771728516
0,914672,-58.224369049072266,21.66544532775879,7.0731587409973145,-12.352285385131836
0,914673,-26.344337463378906,-34.005069732666016,29.645084381103516,-24.098339080810547
0,914676,125.44689178466797,-96.0855941772461,79.60816955566406,6.567624568939209
0,914677,-45.12324523925781,138.04527282714844,-19.81818389892578,36.458641052246094
0,914680,-93.14501190185547,51.828758239746094,-85.13993835449219,-12.043164253234863
0,914681,45.73160171508789,-155.8644256591797,-8.17347240447998,-7.303293704986572
0,914684,68.20831298828125,-18.95461654663086,84.2166519165039,33.36853790283203
0,914685,-25.612289428710938,41.90391159057617,24.703908920288086,45.60548400878906
0,914688,-59.637508392333984,61.60568618774414,-51.21540451049805,-48.9610481262207
0,914689,31.735050201416016,5.100344657897949,-22.894363403320312,-38.25825500488281
0,914692,-32.778724670410156,-20.28079605102539,12.61756706237793,44.5940055847168
0,914693,-32.2452278137207,-55.75975799560547,14.61189079284668,5.996273040771484
0,914696,128.50341796875,-50.45563888549805,20.264020919799805,-21.196056365966797
0,914697,-31.563587188720703,164.23770141601562,26.4748592376709,-47.204349517822266
0,914700,-113.6321029663086,17.755931854248047,-70.13282775878906,-2.5658414363861084
0,914701,99.98988342285156,-153.10433959960938,-49.36248016357422,17.379291534423828
0,914704,71.37922668457031,-20.21659278869629,74.76641082763672,1.2625768184661865
0,914705,-62.46931838989258,51.3697624206543,2.079068899154663,22.353282928466797
0,914708,-44.101322174072266,69.33015441894531,-18.029207229614258,4.536733627319336
0,914709,25.380769729614258,-14.727505683898926,59.906982421875,25.212520599365234
0,914712,-25.61421012878418,-16.72467041015625,-87.34003448486328,15.816585540771484
0,914713,-9.825212478637695,-10.879907608032227,-43.736480712890625,-16.600513458251953
0,914716,74.60603332519531,-29.638408660888672,119.33683013916016,-35.49658203125
0,914717,-70.78784942626953,111.91188049316406,-17.448162078857422,-59.27692794799805
0,914720,-57.798160552978516,-17.403629302978516,-68.20240020751953,80.05496978759766
0,914721,89.28170776367188,-158.616943359375,8.183565139770508,58.32096481323242
0,914724,58.107383728027344,66.1671142578125,91.95759582519531,-121.63566589355469
0,914726,-43.70148468017578,85.12578582763672,2.26009464263916,-43.82125473022461
0,914728,-74.4534683227539,-35.66926193237305,-106.00054931640625,63.998226165771484
0,914730,5.461367130279541,-25.314666748046875,36.55085372924805,12.913000106811523
0,914732,-8.904437065124512,40.16311264038086,24.06861114501953,21.689786911010742
0,914734,58.369422912597656,-22.21554183959961,-33.838077545166016,58.66610336303711
0,914736,99.60029602050781,-59.71149444580078,49.9744987487793,-48.465877532958984
0,914738,-104.29289245605469,130.6784210205078,8.962417602539062,-29.59577178955078
0,914739,-108.42035675048828,25.096851348876953,-66.70552825927734,46.06583786010742
0,914742,74.22835540771484,-178.7935333251953,-13.317898750305176,-18.125133514404297
0,914743,97.38043212890625,-43.32634353637695,43.61882400512695,-28.47423553466797
0,914746,7.00097131729126,119.45610046386719,28.641408920288086,11.495321273803711
0,914747,-51.41815948486328,14.481409072875977,-27.511192321777344,-7.682134628295898
0,914750,-73.27061462402344,-65.14717864990234,-32.28040313720703,-20.92229652404785
0,914751,3.460512638092041,6.732421875,32.03228759765625,-23.859312057495117
0,914754,65.30874633789062,-43.78692626953125,7.084451675415039,13.536277770996094
0,914755,64.87177276611328,-47.350528717041016,6.445912837982178,89.6124267578125
0,914758,-39.71938705444336,145.41455078125,6.169936180114746,10.386675834655762
0,914759,-145.59140014648438,144.14430236816406,-70.72290802001953,-69.1646957397461
0,914762,76.39646911621094,-122.59906768798828,14.871607780456543,22.719165802001953
0,914763,124.77446746826172,-113.31559753417969,56.46799850463867,67.43893432617188
0,914766,-62.29884338378906,95.41393280029297,-37.239013671875,-68.26691436767578
0,914767,-30.366683959960938,55.081809997558594,-17.430089950561523,-77.80001068115234
0,914770,-36.81379318237305,-46.33123779296875,37.55806350708008,50.556793212890625
0,914771,-31.115951538085938,-17.703968048095703,25.839332580566406,26.50688362121582
0,914774,92.62035369873047,-43.87290573120117,-48.37483215332031,-5.032188415527344
0,914775,111.19647979736328,-35.9734001159668,18.98296356201172,-32.212257385253906
0,914778,-109.74503326416016,128.5919647216797,63.415523529052734,-37.33734130859375
0,914779,-191.7293243408203,87.85907745361328,-77.69381713867188,21.7723388671875
0,914782,99.29276275634766,-202.39938354492188,-21.81097984313965,53.35738754272461
0,914783,97.85334014892578,-121.90750885009766,64.25151062011719,20.150583267211914
0,914786,-17.944303512573242,143.31634521484375,-1.0139983892440796,-5.993875503540039
0,914787,29.415340423583984,64.75615692138672,-73.03292083740234,17.762062072753906
0,914790,-42.18855667114258,7.230472087860107,-2.1739606857299805,-12.851269721984863
0,914791,-12.587658882141113,12.754137992858887,83.35389709472656,-3.9450690746307373
0,914794,51.59181213378906,-94.95528411865234,6.2968926429748535,-10.232935905456543
0,914795,49.7418327331543,-78.85131072998047,10.222992897033691,-51.85708999633789
0,914798,-98.35954284667969,148.91864013671875,-39.15351104736328,-26.265899658203125
0,914799,-149.15505981445312,172.6653289794922,-111.44547271728516,35.75518035888672
0,914802,146.120361328125,-194.0694122314453,48.284751892089844,67.31187438964844
0,914803,116.50102996826172,-145.89671325683594,103.83702850341797,12.720524787902832
0,914806,-88.97187805175781,206.60391235351562,-0.7326602339744568,-45.95841598510742
0,914807,-53.95343017578125,50.81571578979492,-35.09735870361328,-19.71864128112793
0,914810,-31.181180953979492,-109.60614776611328,-63.08323669433594,19.883987426757812
0,914811,5.322108268737793,-12.032761573791504,-32.55585479736328,-8.569245338439941
0,914814,49.37602615356445,-47.604270935058594,27.863418579101562,1.1669247150421143
0,914815,120.22571563720703,-56.23822784423828,68.36402130126953,45.79697036743164
0,914818,-19.516054153442383,118.92793273925781,36.857147216796875,-91.7158432006836
0,914819,-191.9220733642578,106.51876068115234,-49.38250732421875,-79.8862075805664
0,914822,66.5287857055664,-143.66354370117188,1.526551604270935,155.94021606445312
0,914823,104.93148803710938,-92.27052307128906,29.03058624267578,50.63829803466797
0,914826,-103.60700225830078,118.07110595703125,-37.39247512817383,-61.8275146484375
0,914827,-12.686165809631348,39.64921951293945,-57.786346435546875,-40.76323318481445
0,914830,40.48902130126953,-29.337902069091797,27.019819259643555,-70.13764190673828
0,914831,5.595252990722656,8.096378326416016,69.50846862792969,65.59307861328125
0,914834,39.41331481933594,-52.212039947509766,-33.43766403198242,94.67127227783203
0,914835,52.02674865722656,-57.83005905151367,9.804265022277832,-56.81834411621094
0,914838,-49.486167907714844,108.84382629394531,32.104835510253906,-50.17185592651367
0,914839,-134.646484375,123.07926940917969,-96.8844985961914,56.674678802490234
0,914842,90.53842163085938,-162.34658813476562,10.989657402038574,22.194374084472656
0,914843,128.28460693359375,-94.82423400878906,83.50952911376953,-35.50065994262695
0,914846,-87.46477508544922,171.3684539794922,-36.50012969970703,-17.15393829345703
0,914847,-60.934757232666016,20.14603042602539,-38.80007553100586,-31.89551544189453
0,914850,18.10844612121582,-32.337528228759766,11.441924095153809,33.747615814208984
0,914851,-2.136521339416504,24.899282455444336,31.98145866394043,73.19579315185547
0,914854,-7.390166282653809,-134.0647735595703,-20.595529556274414,-55.64267349243164
0,914855,75.39134979248047,-65.60818481445312,0.1446870118379593,-101.98219299316406
0,914858,-50.49025344848633,163.06056213378906,31.091833114624023,39.713706970214844
0,914859,-172.51634216308594,92.27458953857422,-77.0587158203125,102.99726104736328
0,914862,124.79714965820312,-149.5612030029297,25.124767303466797,-8.246068000793457
0,914863,132.14865112304688,-79.3865737915039,59.67078399658203,15.085212707519531
0,914866,-77.86502838134766,123.75422668457031,-43.50286865234375,-27.096691131591797
0,914867,-20.040590286254883,38.39180374145508,35.45343780517578,-165.7457275390625
0,914870,-45.48235321044922,-29.563827514648438,-6.629638195037842,48.01340866088867
0,914871,-15.402629852294922,11.438446998596191,-34.731285095214844,155.1912841796875
0,914874,75.61519622802734,-58.071388244628906,42.3378791809082,-38.86435317993164
0,914875,81.90812683105469,-102.42201232910156,23.924230575561523,8.871569633483887
0,914878,-61.02996826171875,105.28245544433594,-36.13375473022461,75.61620330810547
0,914879,-174.41574096679688,156.98583984375,-88.1796646118164,-98.2867660522461
0,914882,135.72091674804688,-175.0592041015625,2.1974027156829834,-81.52933502197266
0,914883,168.38934326171875,-119.47483825683594,114.198974609375,96.83383178710938
0,914886,-117.01639556884766,172.6197967529297,58.164161682128906,-53.002235412597656
0,914887,-86.6756591796875,63.13550567626953,-43.418182373046875,-75.97370910644531
0,914890,-11.287564277648926,-16.66777229309082,-97.82152557373047,151.03082275390625
0,914891,8.627041816711426,7.771209716796875,-9.042677879333496,13.870084762573242
0,914894,68.86766052246094,-114.00967407226562,71.64021301269531,-66.22077178955078
0,914895,108.2519302368164,-59.46767807006836,39.12577819824219,33.9068489074707
0,914898,-122.17321014404297,135.6659698486328,-73.89460754394531,-19.70735740661621
0,914899,-163.58486938476562,98.82368469238281,-98.01258850097656,-30.06777000427246
0,914902,183.71644592285156,-137.2929229736328,129.57725524902344,-13.127713203430176
0,914903,70.83702850341797,-109.6640625,79.19136047363281,10.118935585021973
0,914906,-102.22091674804688,135.3396759033203,-64.60401916503906,33.01939010620117
0,914907,9.117210388183594,18.750837326049805,-10.074850082397461,14.763869285583496
0,914910,-4.954648494720459,-89.0779800415039,-122.30304718017578,16.39568328857422
0,914911,-15.535920143127441,49.46581268310547,-7.202602386474609,-31.031728744506836
0,914914,-53.12612533569336,-31.271434783935547,241.26040649414062,-81.02339172363281
0,914917,-107.16920471191406,37.72952651977539,-46.335906982421875,25.01749038696289
0,914917,80.65577697753906,163.1348419189453,-177.45797729492188,85.96771240234375
0,914920,157.4650115966797,-137.6730499267578,24.862443923950195,23.4378719329834
0,914921,-10.135751724243164,-166.59779357910156,5.127162933349609,-56.21930694580078
0,914924,17.169952392578125,61.55425262451172,86.35332489013672,-92.24465942382812
0,914925,-22.687286376953125,41.82090759277344,29.08526611328125,23.427520751953125
0,914928,-75.25338745117188,32.53803634643555,-78.466796875,44.553104400634766
0,914929,59.26561737060547,42.1358757019043,28.075681686401367,44.64542770385742
0,914932,-4.8078932762146,-4.840248107910156,-65.03899383544922,-1.6073616743087769
0,914933,-13.870244026184082,-65.31069946289062,-25.8460636138916,-92.81925964355469
0,914936,72.56890106201172,-9.660200119018555,196.49459838867188,57.40690612792969
0,914937,-54.94888687133789,139.7559814453125,21.46436309814453,63.10944747924805
0,914940,-69.61636352539062,-33.831600189208984,-223.13780212402344,-40.30535888671875
0,914941,47.7963981628418,-162.9768524169922,-33.40840530395508,-42.6689453125
0,914944,38.76848220825195,85.17781829833984,238.14276123046875,-41.143592834472656
0,914945,-58.313232421875,104.31755065917969,61.19588851928711,44.20927429199219
0,914948,-94.65554809570312,-47.67377471923828,-145.2577362060547,93.69015502929688
0,914949,3.665701389312744,-103.49452209472656,-118.75505065917969,56.531246185302734
0,914952,49.8623161315918,-17.77101707458496,-48.54990005493164,-86.25557708740234
0,914953,105.613525390625,51.00306701660156,148.24618530273438,-79.27843475341797
0,914956,124.88957214355469,-12.946045875549316,110.53958129882812,35.752296447753906
0,914957,-109.71168518066406,110.82245635986328,-49.14681625366211,-71.56523895263672
0,914960,-225.5740509033203,8.353652954101562,-110.91169738769531,7.325281620025635
0,914961,31.991165161132812,-162.0453643798828,-46.43797302246094,118.9582290649414
0,914964,199.31089782714844,-12.6087646484375,68.3994369506836,45.469669342041016
0,914965,29.19371795654297,83.04674530029297,34.9560661315918,-36.32477569580078
0,914968,-98.10539245605469,93.5703125,24.221479415893555,-123.70156860351562
0,914969,-58.043155670166016,-20.65353775024414,-35.00152587890625,17.48700714111328
0,914972,-52.35105895996094,-59.316383361816406,-115.49090576171875,60.68893814086914
0,914973,39.03495407104492,-30.601144790649414,27.075061798095703,21.041004180908203
0,914976,245.39878845214844,-16.443342208862305,178.50982666015625,17.184202194213867
0,914977,26.075183868408203,124.98529052734375,51.55727005004883,-141.30482482910156
0,914980,-306.48223876953125,-30.015722274780273,-110.0552978515625,3.6205403804779053
0,914981,-96.1837387084961,-166.1665802001953,-56.09169387817383,172.70352172851562
0,914984,171.39927673339844,13.040494918823242,18.799192428588867,-10.101190567016602
0,914985,84.1785888671875,76.16881561279297,-73.8769760131836,-127.53129577636719
0,914988,-35.76139831542969,77.80778503417969,-17.423673629760742,21.870075225830078
0,914989,6.989245891571045,-9.263254165649414,135.99095153808594,67.49201965332031
0,914992,-53.46950912475586,-39.576141357421875,-21.15724754333496,-145.9577178955078
0,914993,-29.246906280517578,-42.81141662597656,-38.47269821166992,-2.3213984966278076
0,914996,93.85295867919922,-7.974937438964844,68.02693939208984,198.74636840820312
0,914997,-24.905010223388672,147.48106384277344,-74.71527099609375,32.007450103759766
0,915000,-60.413509368896484,-47.99009704589844,-79.58534240722656,-32.20485305786133
0,915001,35.653282165527344,-145.9636688232422,76.41033172607422,54.32044219970703
0,915004,17.6157169342041,73.11962127685547,91.11280059814453,-232.20819091796875
0,915005,-46.223960876464844,70.7425537109375,-33.82484436035156,-374.5638732910156
0,915008,63.57211685180664,-26.313648223876953,-44.33985137939453,367.673095703125
0,915009,120.36772918701172,-47.05299758911133,4.726299285888672,426.2703857421875
0,915012,-211.27487182617188,-8.780712127685547,-14.379110336303711,-284.2943420410156
0,915013,-89.22950744628906,-25.606550216674805,33.038822174072266,-262.0609436035156
0,915016,250.43630981445312,12.672296524047852,11.065037727355957,99.78480529785156
0,915017,-48.00996017456055,156.00958251953125,-67.40660858154297,184.66049194335938
0,915020,-138.6802520751953,-46.574798583984375,-28.378158569335938,42.70929718017578
0,915021,84.15886688232422,-206.080078125,49.51539993286133,20.709285736083984
0,915024,89.2862548828125,40.912105560302734,87.23273468017578,-73.48722839355469
0,915025,-22.11749267578125,179.103759765625,18.522111892700195,-157.8726348876953
0,915028,-74.89028930664062,39.12810516357422,-83.54782104492188,110.83706665039062
0,915029,-5.669017791748047,-104.69235229492188,-51.35037612915039,121.62462615966797
0,915032,-42.086631774902344,-55.50066375732422,14.964746475219727,-140.53701782226562
0,915033,0.24890018999576569,-15.89366340637207,56.76458740234375,-82.1819839477539
0,915036,79.19960021972656,37.37260437011719,32.024139404296875,87.76233673095703
0,915037,-42.53819274902344,134.0699462890625,-87.0766372680664,-11.387102127075195
0,915040,13.103188514709473,-43.413330078125,33.56119918823242,-47.90857696533203
0,915041,76.49067687988281,-141.48916625976562,124.96261596679688,28.21905517578125
0,915044,-21.10403823852539,8.938076972961426,-94.16158294677734,44.361572265625
0,915045,-63.744686126708984,41.71383285522461,-79.61725616455078,76.42809295654297
0,915048,-42.415016174316406,35.14519500732422,1.8034621477127075,-79.00109100341797
0,915049,30.55231475830078,-15.612866401672363,-9.881338119506836,-114.53690338134766
0,915052,15.194852828979492,28.341894149780273,11.366085052490234,128.85694885253906
0,915053,31.101186752319336,-26.166015625,-22.649415969848633,111.04301452636719
0,915056,37.481510162353516,-105.0335464477539,126.43550109863281,-87.17987060546875
0,915057,-47.74869918823242,133.83761596679688,85.72364044189453,-42.01900863647461
0,915060,17.24526023864746,70.79231262207031,-100.80280303955078,-97.0163803100586
0,915061,-12.005568504333496,-127.99777221679688,-89.97528839111328,-172.81204223632812
0,915064,-30.774978637695312,-5.678150177001953,118.88818359375,239.2057342529297
0,915065,-11.797453880310059,106.13616180419922,158.3008575439453,226.95289611816406
0,915068,10.229100227355957,-7.135641574859619,-220.84530639648438,-194.20831298828125
0,915069,151.58392333984375,-77.02442169189453,-191.17388916015625,-77.93456268310547
0,915072,-70.90597534179688,-28.22722816467285,-61.74398422241211,108.61031341552734
0,915073,-157.24522399902344,-75.51017761230469,58.45554733276367,3.5777642726898193
0,915076,89.56103515625,54.86906814575195,307.94769287109375,-43.881935119628906
0,915077,-25.005142211914062,185.2565155029297,0.15219497680664062,-37.991397857666016
0,915080,-53.41471862792969,-99.83895874023438,-237.00685119628906,13.662773132324219
0,915081,81.28634643554688,-154.73985290527344,26.68110466003418,81.16665649414062
0,915084,26.522127151489258,102.61817932128906,191.0159454345703,-79.04632568359375
0,915085,-1.0717824697494507,92.81377410888672,77.42407989501953,-5.76290225982666
0,915088,-30.339305877685547,-10.055745124816895,-157.4715576171875,180.08230590820312
0,915089,60.80406188964844,-35.58022689819336,-111.75746154785156,-42.88912582397461
0,915092,-23.082637786865234,-7.892482280731201,103.61813354492188,-179.85736083984375
0,915093,-94.44474792480469,-53.78264617919922,16.521745681762695,4.102310657501221
0,915096,153.90602111816406,27.0351619720459,-25.866897583007812,92.71328735351562
0,915097,-8.096388816833496,124.40750122070312,3.2733492851257324,-93.48150634765625
0,915100,-90.23698425292969,-142.2554168701172,-27.578323364257812,-15.284194946289062
0,915101,15.191632270812988,-129.00567626953125,-16.080018997192383,138.62673950195312
0,915104,-51.96367263793945,94.64105987548828,-24.002395629882812,-37.003116607666016
0,915105,6.860842704772949,77.19818878173828,39.498268127441406,-37.3493766784668
0,915111,-56.87705612182617,125.89128875732422,-19.357643127441406,-7.905603408813477
0,915111,-20.316001892089844,43.891056060791016,-52.99794387817383,-15.623722076416016
0,915112,107.53470611572266,-187.95010375976562,80.31694030761719,87.08074951171875
0,915114,75.24729919433594,-146.44467163085938,84.20596313476562,-7.16107177734375
0,915116,39.47454071044922,104.51614379882812,84.80188751220703,-63.172847747802734
0,915118,-79.9301528930664,172.23123168945312,-42.22723388671875,78.27110290527344
0,915120,-110.05352783203125,-105.67338562011719,-227.43373107910156,-13.511448860168457
0,915122,22.99713134765625,-136.53643798828125,-22.794145584106445,-145.067138671875
0,915124,169.52232360839844,87.3572769165039,173.660400390625,79.36536407470703
0,915126,64.08331298828125,38.759971618652344,24.907848358154297,164.2051544189453
0,915128,-198.1177978515625,2.5516788959503174,-7.089370250701904,-117.37105560302734
0,915130,-85.13079833984375,31.446657180786133,44.5028190612793,-125.02204895019531
0,915132,53.45530319213867,-26.321691513061523,-115.84317016601562,61.317203521728516
0,915134,61.6913948059082,-67.47978973388672,-96.76939392089844,70.06263732910156
0,915136,37.63580322265625,21.745441436767578,91.83646392822266,101.6173324584961
0,915138,-64.99585723876953,131.8016357421875,71.82635498046875,20.195449829101562
0,915140,52.15153884887695,-77.95642852783203,-30.11887550354004,-247.29588317871094
0,915142,98.8481216430664,-115.8618392944336,-15.930399894714355,-77.83665466308594
0,915144,-6.449456691741943,87.38961029052734,-23.366260528564453,297.5758972167969
0,915146,-70.6720199584961,29.423583984375,-12.532530784606934,39.17608642578125
0,915148,-97.00237274169922,-22.394826889038086,40.15971755981445,-238.88650512695312
0,915150,37.86263656616211,-15.13309383392334,-10.73962116241455,-39.88691711425781
0,915152,-41.32975387573242,-20.74932098388672,16.01761245727539,54.85365676879883
0,915154,-88.16312408447266,-42.62831115722656,95.164306640625,5.371286392211914
0,915156,98.62776947021484,68.98493957519531,-47.34336471557617,118.31330871582031
0,915158,-12.977218627929688,143.7221221923828,-163.26954650878906,60.482112884521484
0,915160,-3.7980663776397705,-141.30776977539062,45.6038932800293,-109.57061767578125
0,915162,126.04454803466797,-123.3564682006836,139.9418487548828,-25.934709548950195
0,915164,105.63831329345703,145.70602416992188,-8.316461563110352,29.050601959228516
0,915166,-87.14067840576172,92.114990234375,-96.19251251220703,-104.13336944580078
0,915168,-238.26463317871094,-39.19526672363281,-59.19945526123047,-50.94282150268555
0,915170,73.94051361083984,-83.57459259033203,-22.484647750854492,197.04087829589844
0,915172,176.47735595703125,-57.67586898803711,23.289100646972656,81.91136932373047
0,915174,-17.367427825927734,-5.5433502197265625,128.8237762451172,-210.83932495117188
0,915176,-97.79766082763672,116.08663940429688,68.43473052978516,-70.87625122070312
0,915178,-92.42386627197266,98.3210678100586,-100.94843292236328,191.3657989501953
0,915180,71.45355987548828,-148.0990753173828,-94.53898620605469,26.78078842163086
0,915182,67.22323608398438,-110.10252380371094,44.32339859008789,-74.60314178466797
0,915184,-33.23390197753906,62.5329475402832,41.56047821044922,13.539021492004395
0,915186,-10.937527656555176,19.178848266601562,-7.915957927703857,41.00726318359375
0,915188,3.7436602115631104,72.94206237792969,36.78822708129883,35.10689163208008
0,915190,22.063310623168945,54.99778366088867,31.62635040283203,-133.5923614501953
0,915192,-30.248455047607422,-98.89449310302734,-38.475013732910156,-51.74418258666992
0,915194,63.95997619628906,-57.42276382446289,-37.33449935913086,114.58424377441406
0,915196,82.94978332519531,84.66516876220703,-68.12870788574219,90.07225036621094
0,915198,-137.40036010742188,111.80167388916016,-41.13246154785156,-9.610371589660645
0,915200,-32.1714973449707,-112.72090148925781,181.76504516601562,-120.67399597167969
0,915202,71.2022933959961,-157.01727294921875,92.42662811279297,-29.4156494140625
0,915204,-61.09064483642578,77.4659423828125,-175.91749572753906,2.403533458709717
0,915206,-13.56920051574707,141.05966186523438,-74.19815826416016,-17.377912521362305
0,915208,57.3751220703125,48.739749908447266,97.70287322998047,72.97123718261719
0,915210,-9.453516960144043,-80.92070007324219,41.02391052246094,82.32859802246094
0,915212,-25.401247024536133,-78.31383514404297,-33.5489616394043,-41.351749420166016
0,915214,57.82025146484375,-57.93990707397461,-16.750913619995117,-42.09085464477539
0,915216,8.79578685760498,21.662517547607422,-5.07587194442749,36.76651382446289
0,915218,-105.45855712890625,164.8167266845703,-35.32683181762695,-83.91986083984375
0,915220,29.186058044433594,-93.32450103759766,-2.7836103439331055,-15.662978172302246
0,915222,86.57491302490234,-151.58657836914062,29.14487648010254,106.05499267578125
0,915224,-18.521259307861328,118.5401611328125,-2.006258964538574,-22.85628890991211
0,915226,-21.906736373901367,86.2331771850586,16.130931854248047,-33.53547668457031
0,915228,-5.761929512023926,0.6760478019714355,37.828224182128906,-60.42836380004883
0,915230,-12.844915390014648,-20.186260223388672,13.433027267456055,-37.20295715332031
0,915232,-51.683143615722656,-52.714149475097656,-15.774906158447266,143.59461975097656
0,915234,53.25190353393555,-95.54673767089844,-17.8771915435791,45.899078369140625
0,915236,46.339656829833984,78.080078125,-25.321168899536133,-127.68385314941406
0,915238,-100.48091125488281,189.7255096435547,-32.86450958251953,10.078227996826172
0,915240,33.14387512207031,-124.35713195800781,-2.7981889247894287,53.20945358276367
0,915242,88.26428985595703,-118.37189483642578,24.825613021850586,31.20112419128418
0,915244,-63.23176956176758,70.9803695678711,42.95386505126953,-35.80754470825195
0,915246,-95.94279479980469,35.72966003417969,25.950794219970703,-114.80472564697266
0,915248,57.38670349121094,51.10970687866211,-30.884761810302734,137.68246459960938
0,915250,117.84716796875,-9.543161392211914,2.073171377182007,69.75054931640625
0,915252,-78.67208862304688,-90.12019348144531,-14.630855560302734,-148.3811798095703
0,915254,-26.496177673339844,-86.6765365600586,-14.965080261230469,-32.136741638183594
0,915256,69.85211181640625,81.86029815673828,26.30621337890625,26.863359451293945
0,915258,-107.96942138671875,165.63893127441406,-48.44202423095703,56.27776336669922
0,915260,35.56064224243164,-119.56498718261719,13.648444175720215,50.63399887084961
0,915262,113.26911163330078,-119.77945709228516,58.84023666381836,-51.23847198486328
0,915264,-26.830001831054688,104.64498138427734,-14.597681999206543,-60.82810592651367
0,915266,5.981289386749268,73.50276947021484,-41.872928619384766,38.49149703979492
0,915268,-88.73600769042969,-29.546016693115234,-17.409208297729492,69.36843872070312
0,915270,-66.60395050048828,-50.68904113769531,34.81494903564453,-6.250537395477295
0,915272,28.919361114501953,-34.03533172607422,-2.475471019744873,-45.977474212646484
0,915274,79.31649780273438,-83.30811309814453,-13.272523880004883,-7.691854000091553
0,915276,42.821632385253906,129.58267211914062,74.3893051147461,30.751453399658203
0,915278,-165.755126953125,192.63487243652344,-16.19516372680664,-51.204444885253906
0,915280,-6.890161037445068,-179.78744506835938,-81.47781372070312,-31.9165096282959
0,915282,249.0113525390625,-132.4813232421875,51.92426300048828,56.4173698425293
0,915283,102.65728759765625,114.0429916381836,10.199421882629395,8.55440902709961
0,915286,-212.3503875732422,45.53430938720703,-68.8185043334961,-9.948912620544434
0,915287,-172.1843719482422,-72.32514190673828,8.717390060424805,-16.294282913208008
0,915290,95.75092315673828,-11.202696800231934,40.96181106567383,6.357555389404297
0,915291,79.87937927246094,50.57461166381836,4.03286075592041,50.64733123779297
0,915294,19.621973037719727,-83.83504486083984,22.72551727294922,-29.163692474365234
0,915295,38.400447845458984,-72.3019790649414,24.387941360473633,-52.707279205322266
0,915298,-121.62339782714844,206.55355834960938,-68.25008392333984,30.06857681274414
0,915299,-153.86865234375,151.4268341064453,-59.393165588378906,-10.65413761138916
0,915302,131.80726623535156,-228.10215759277344,50.751991271972656,-7.6214423179626465
0,915303,96.32389068603516,-76.33306884765625,49.30449676513672,94.34246826171875
0,915306,-91.12823486328125,172.07611083984375,-11.149530410766602,-19.577211380004883
0,915307,17.924211502075195,-40.8072509765625,-17.724023818969727,-77.75468444824219
0,915310,33.9266471862793,-44.46645736694336,4.601626873016357,33.33015823364258
0,915311,-15.644551277160645,43.49637222290039,-0.10336050391197205,-33.159645080566406
0,915314,103.95694732666016,-97.55338287353516,2.413163661956787,-0.4573277533054352
0,915317,-38.696510314941406,8.39172077178955,-18.82976722717285,72.25608825683594
0,915317,-165.70184326171875,133.1704864501953,-25.793489456176758,14.388978958129883
0,915320,107.77106475830078,-67.19414520263672,20.372859954833984,-81.09831237792969
0,915321,85.05729675292969,-99.71492004394531,7.916759490966797,-69.00639343261719
0,915324,-23.283830642700195,58.605323791503906,31.822805404663086,114.39312744140625
0,915325,-16.97641944885254,74.43700408935547,27.972274780273438,99.39668273925781
0,915328,-79.24300384521484,-7.845552444458008,-34.332763671875,-65.05362701416016
0,915329,2.582648754119873,-68.78925323486328,-15.754321098327637,-106.08159637451172
0,915332,41.87710952758789,-13.700895309448242,-8.861985206604004,58.93413162231445
0,915333,53.595314025878906,10.140270233154297,26.023710250854492,128.03240966796875
0,915336,37.33139419555664,36.11183547973633,44.71290969848633,-108.74671173095703
0,915337,-120.72781372070312,87.57027435302734,-70.44469451904297,-122.30781555175781
0,915340,-52.77006912231445,-84.3039321899414,-53.75759506225586,59.59844970703125
0,915341,84.61711120605469,-105.482666015625,48.10467529296875,35.2976188659668
0,915344,10.462170600891113,84.51604461669922,41.78832244873047,-9.835959434509277
0,915345,-39.54458999633789,64.01261138916016,-7.133552074432373,26.07029914855957
0,915348,-22.43444061279297,-22.256540298461914,-18.217857360839844,22.875642776489258
0,915349,22.54433250427246,-7.488142967224121,3.362149477005005,-15.831273078918457
0,915352,-9.253125190734863,-17.4860782623291,-31.4886474609375,-26.712936401367188
0,915353,81.1797866821289,-54.25518035888672,7.393899440765381,-22.154781341552734
0,915356,72.5896224975586,42.071346282958984,62.54357147216797,-9.48279094696045
0,915357,-185.8154296875,100.14755249023438,-16.06112289428711,-13.907083511352539
0,915360,-62.66237258911133,-89.52183532714844,-43.2421875,37.8834342956543
0,915361,138.02664184570312,-96.36331939697266,-1.126089334487915,49.70690155029297
0,915364,73.68958282470703,45.08768081665039,21.936832427978516,-8.800153732299805
0,915365,-32.68671798706055,57.97599792480469,18.54395866394043,-1.8078395128250122
0,915368,-88.78838348388672,47.5933952331543,3.9561357498168945,-28.957998275756836
0,915369,23.46125030517578,-30.835634231567383,12.731014251708984,-48.80250930786133
0,915372,13.992691993713379,-30.191137313842773,-87.61469268798828,20.463232040405273
0,915373,9.578938484191895,-36.50473403930664,-24.02783203125,72.12183380126953
0,915376,61.20814514160156,31.013097763061523,118.63512420654297,35.020450592041016
0,915377,-120.03701782226562,120.34600067138672,-35.04087448120117,-16.181550979614258
0,915380,-22.63239860534668,-79.31111907958984,-59.10138702392578,-26.083072662353516
0,915381,125.57926940917969,-115.14807891845703,46.113983154296875,-33.8350944519043
0,915384,-19.43996238708496,42.099647521972656,45.72174072265625,-41.49517822265625
0,915385,-37.03831100463867,52.058082580566406,-49.2177619934082,14.918876647949219
0,915388,-6.409994602203369,21.405168533325195,-42.683013916015625,18.8138427734375
0,915389,-14.56470012664795,5.115235805511475,69.2127456665039,8.415413856506348
0,915392,-17.472681045532227,-46.56814193725586,-34.08180618286133,19.673574447631836
0,915393,55.536075592041016,-68.5953598022461,-3.1647284030914307,-39.54229736328125
0,915396,53.36726760864258,84.48963928222656,81.48403930664062,4.44021463394165
0,915397,-96.81546783447266,138.22723388671875,-44.40768051147461,2.9874563217163086
0,915400,-9.525639533996582,-127.72838592529297,-57.2959098815918,-35.20021057128906
0,915401,69.53836822509766,-130.39651489257812,24.149696350097656,84.9904556274414
0,915404,-5.732794761657715,101.18629455566406,60.417686462402344,17.16823387145996
0,915405,-28.18827247619629,52.43674087524414,-20.099742889404297,-76.57169342041016
0,915408,-31.67799949645996,3.3822386264801025,-71.89336395263672,41.063785552978516
0,915409,34.27315902709961,-9.389932632446289,9.922399520874023,20.763566970825195
0,915412,-9.691970825195312,-61.285728454589844,30.15144157409668,-70.07878112792969
0,915413,12.3662691116333,-30.15672492980957,18.2384033203125,21.915620803833008
0,915416,48.99663162231445,50.5316276550293,10.09152889251709,41.31245040893555
0,915417,-111.78609466552734,105.20586395263672,-35.17823028564453,-81.4445571899414
0,915420,7.225882053375244,-92.78299713134766,-22.754669189453125,32.16188049316406
0,915421,106.64144134521484,-107.4976806640625,40.95863723754883,43.75665283203125
0,915424,-33.765777587890625,91.16765594482422,24.031591415405273,-46.931114196777344
0,915425,-7.329360485076904,25.53367805480957,-32.963802337646484,58.07555389404297
0,915428,-15.402775764465332,19.138214111328125,8.720512390136719,-20.404674530029297
0,915429,-70.13170623779297,-19.56765365600586,19.38667106628418,-39.381248474121094
0,915432,-14.750418663024902,-76.93106079101562,-50.47942352294922,33.40354537963867
0,915433,122.57964324951172,2.99995493888855,20.263330459594727,2.268287420272827
0,915436,84.19734954833984,59.425621032714844,34.623294830322266,-20.704633712768555
0,915437,-153.61367797851562,125.16539764404297,-50.30499267578125,-18.8880615234375
0,915440,-40.0407600402832,-103.79065704345703,10.216575622558594,28.37130355834961
0,915441,101.63684844970703,-143.654541015625,25.72920036315918,1.590754747390747
0,915444,41.15170669555664,155.08192443847656,5.062325477600098,1.4176726341247559
0,915445,-28.464956283569336,55.20763397216797,-1.5171313285827637,49.54795837402344
0,915448,-84.30332946777344,-76.88925170898438,-60.33085250854492,-45.371700286865234
0,915449,21.51146697998047,-7.281033992767334,-18.556547164916992,-103.01405334472656
0,915452,37.42545700073242,-16.25788688659668,52.39546203613281,89.9683609008789
0,915453,49.05881881713867,-71.02352905273438,25.124286651611328,133.895263671875
0,915456,35.072669982910156,58.1358642578125,11.019987106323242,-129.04840087890625
0,915457,-152.36410522460938,164.7748260498047,-9.05951976776123,-108.34645080566406
0,915460,-40.97719192504883,-98.70775604248047,-53.483036041259766,117.42682647705078
0,915461,106.41390991210938,-155.12161254882812,-29.18172836303711,6.459470748901367
0,915464,3.9640703201293945,46.48099899291992,55.01722717285156,-51.37924575805664
0,915465,-32.985443115234375,70.9218978881836,51.8392219543457,56.29025650024414
0,915468,-7.62104606628418,60.454742431640625,0.853238582611084,-11.498492240905762
0,915469,31.482145309448242,-37.347747802734375,-3.2278127670288086,-69.24473571777344
0,915472,-21.508508682250977,-73.84989929199219,-67.92354583740234,26.38956069946289
0,915473,9.605399131774902,-20.13844108581543,11.111262321472168,109.8403549194336
0,915476,55.86716842651367,64.81460571289062,62.171295166015625,-17.532331466674805
0,915477,-89.04544067382812,136.06471252441406,-86.67916107177734,-76.14369201660156
0,915480,-41.908634185791016,-123.5938720703125,-11.817626953125,32.693538665771484
0,915481,94.99808502197266,-142.09254455566406,62.63594055175781,-45.208011627197266
0,915484,61.816497802734375,134.39202880859375,-41.60124206542969,12.095314025878906
0,915485,-39.72927474975586,55.2575798034668,-9.052876472473145,109.25624084472656
0,915488,-66.24542236328125,-27.916852951049805,76.42479705810547,-107.1832046508789
0,915489,13.975040435791016,13.805137634277344,31.174514770507812,-84.65203094482422
0,915492,11.517718315124512,-38.7615852355957,-71.22736358642578,100.8359603881836
0,915493,90.14705657958984,-68.83209991455078,-24.336660385131836,27.059730529785156
0,915496,110.51670837402344,77.27272033691406,22.429302215576172,-29.379802703857422
0,915497,-282.8297119140625,137.44134521484375,-8.89605712890625,25.95231819152832
0,915500,-278.4381408691406,-146.3907928466797,92.37474822998047,-23.80561065673828
0,915501,208.6676025390625,-127.31136322021484,68.2347183227539,-20.480308532714844
0,915504,273.8367614746094,111.42672729492188,-113.38358306884766,56.785552978515625
0,915505,-15.773430824279785,49.36684036254883,-111.4748306274414,6.944603443145752
0,915508,-143.3418426513672,-11.920339584350586,-2.0790786743164062,-48.592010498046875
0,915509,3.785557985305786,-44.15482711791992,11.093355178833008,-9.801652908325195
0,915512,44.8098030090332,-19.33016014099121,11.637086868286133,-10.813774108886719
0,915513,57.01287078857422,-4.465254783630371,82.2914047241211,8.788029670715332
0,915516,30.226829528808594,36.82275390625,38.53254699707031,28.677425384521484
0,915517,-101.63387298583984,116.70459747314453,-78.9366226196289,-55.25123596191406
0,915520,36.39420700073242,-123.35447692871094,-29.086139678955078,16.370847702026367
0,915521,97.1049575805664,-115.50757598876953,49.42197799682617,85.44759368896484
0,915524,-29.513513565063477,143.9009552001953,16.334171295166016,-30.838701248168945
0,915525,-81.5272216796875,40.958526611328125,-44.0140380859375,-42.69526672363281
0,915528,-73.4328384399414,-24.861793518066406,2.176865577697754,-3.5704879760742188
0,915530,-12.233604431152344,18.17470932006836,61.46394729614258,-39.53400421142578
0,915532,8.729618072509766,-43.72667694091797,-38.50971984863281,8.355875968933105
0,915534,68.04959106445312,-65.8314437866211,-2.3712472915649414,110.26072692871094
0,915538,-33.43244934082031,28.0937442779541,-5.642423152923584,61.42874526977539
0,915538,-103.70333099365234,91.55880737304688,-82.65737915039062,-55.346561431884766
0,915539,96.0672607421875,-9.690061569213867,78.72605895996094,-32.09807205200195
0,915542,111.2680435180664,-115.88501739501953,59.712135314941406,-52.771976470947266
0,915543,14.310455322265625,-12.40190315246582,-23.6601505279541,-38.41877365112305
0,915546,-60.715614318847656,118.01939392089844,7.615767478942871,25.592958450317383
0,915547,-52.96357345581055,-6.234426021575928,-17.019670486450195,-17.484045028686523
0,915550,-22.580270767211914,-26.825531005859375,-13.768341064453125,38.079002380371094
0,915551,-1.850798487663269,25.415164947509766,3.119093418121338,12.088106155395508
0,915554,84.68431091308594,-84.48600769042969,21.472692489624023,-77.39665222167969
0,915555,82.50668334960938,-13.878621101379395,28.913368225097656,5.009058475494385
0,915558,-105.82796478271484,137.6397705078125,-71.70074462890625,52.788021087646484
0,915559,-153.12030029296875,9.949888229370117,-67.15826416015625,30.025543212890625
0,915562,163.1007843017578,-149.24893188476562,75.81153869628906,90.6871109008789
0,915563,94.23592376708984,-32.07533645629883,22.74164581298828,70.84607696533203
0,915566,-154.13380432128906,91.97956848144531,-44.33221435546875,-180.79751586914062
0,915567,-37.05425262451172,7.418943881988525,20.952241897583008,-161.36891174316406
0,915570,11.149950981140137,20.882381439208984,26.00511360168457,156.22579956054688
0,915571,34.656028747558594,48.531375885009766,-29.684528350830078,83.90298461914062
0,915574,84.42909240722656,-127.43888092041016,6.967251777648926,-100.36579895019531
0,915575,-28.92705535888672,-100.2270736694336,35.783267974853516,-47.440162658691406
0,915578,-80.44721984863281,226.24658203125,-42.063411712646484,138.79248046875
0,915579,5.318475723266602,123.54609680175781,-37.27418518066406,9.843377113342285
0,915582,75.92321014404297,-224.2991180419922,53.54903793334961,-196.17391967773438
0,915583,15.237751960754395,-21.798377990722656,8.85798168182373,65.6595458984375
0,915586,-154.39300537109375,154.8532257080078,-9.103394508361816,117.58879089355469
0,915587,49.25136947631836,-7.628727912902832,22.820589065551758,11.615230560302734
0,915590,165.46664428710938,-90.18441009521484,-37.07686996459961,3.4401376247406006
0,915591,-84.18236541748047,-12.441909790039062,17.040752410888672,-5.340418338775635
0,915594,0.267013818025589,-25.15892791748047,93.91126251220703,34.11520004272461
0,915595,85.38595581054688,-52.057098388671875,-25.601062774658203,-111.8267593383789
0,915598,-119.949951171875,32.15482711791992,-216.59564208984375,-156.2361602783203
0,915599,-135.48838806152344,40.91733169555664,-23.142637252807617,114.84001922607422
0,915602,147.57749938964844,-12.676942825317383,213.02207946777344,140.8259735107422
0,915603,133.10079956054688,6.599575519561768,22.75774574279785,-19.21122932434082
0,915606,-92.841064453125,74.35127258300781,-77.69148254394531,-90.0589370727539
0,915607,-45.75822830200195,-10.511067390441895,-2.663351058959961,-109.9380874633789
0,915610,-13.156119346618652,-18.9278507232666,0.7254425883293152,88.74577331542969
0,915611,-18.912723541259766,10.056632041931152,-18.178382873535156,114.8162841796875
0,915614,46.75374221801758,-100.5299072265625,8.934683799743652,-105.97430419921875
0,915615,39.64778518676758,4.756923198699951,76.4649429321289,-31.965227127075195
0,915618,-62.98948669433594,143.3052520751953,-4.632449150085449,102.21184539794922
0,915619,-69.4942398071289,3.6381852626800537,-78.59739685058594,33.12950897216797
0,915622,124.9574966430664,-106.19022369384766,48.616310119628906,-83.13678741455078
0,915623,48.141143798828125,-24.275375366210938,8.473548889160156,-35.28886795043945
0,915626,-109.51331329345703,21.907081604003906,-73.34811401367188,64.64117431640625
0,915627,-16.06962776184082,-21.22803497314453,47.75437545776367,-28.095233917236328
0,915630,-38.1649284362793,66.99014282226562,2.3422088623046875,-22.949478149414062
0,915631,4.842931270599365,42.67170333862305,-67.23516082763672,16.837915420532227
0,915634,103.49205780029297,-127.42488861083984,24.624065399169922,36.64946746826172
0,915635,73.89932250976562,-1.6061854362487793,79.0593032836914,27.678211212158203
0,915638,-92.88054656982422,146.20294189453125,-28.404144287109375,-71.69015502929688
0,915639,-137.04176330566406,10.546675682067871,-95.33284759521484,-13.730541229248047
0,915642,134.2764129638672,-142.505615234375,61.37898635864258,82.64541625976562
0,915643,110.42750549316406,-22.637401580810547,53.4891242980957,62.70663833618164
0,915646,-80.82289123535156,111.6628189086914,-33.874752044677734,-128.1817169189453
0,915647,-64.95447540283203,-12.965332984924316,-29.46916961669922,-123.89909362792969
0,915650,-40.28826904296875,-33.88238525390625,4.627038478851318,259.93353271484375
0,915651,27.09071922302246,12.898731231689453,10.80739974975586,103.3834457397461
0,915654,86.00458526611328,-47.91972351074219,4.415119647979736,-274.25518798828125
0,915655,37.017093658447266,36.91783905029297,55.418434143066406,-96.9149398803711
0,915658,-109.29058837890625,99.0956039428711,-19.485342025756836,54.928524017333984
0,915659,-122.3289794921875,-52.01593780517578,-72.42967224121094,79.53364562988281
0,915662,127.10521697998047,-129.02061462402344,37.127471923828125,14.653168678283691
0,915663,115.0295181274414,-3.5246427059173584,36.26182174682617,-41.856422424316406
0,915666,-87.1700439453125,87.1835708618164,-50.93257522583008,24.559450149536133
0,915667,-22.29795265197754,49.524505615234375,-7.997369766235352,-5.086734771728516
0,915670,-23.743379592895508,33.10474395751953,6.286735534667969,28.05352783203125
0,915671,-3.546610116958618,-29.059785842895508,-12.077981948852539,22.838531494140625
0,915674,113.33662414550781,-108.99527740478516,36.55641174316406,0.05639582872390747
0,915675,16.968889236450195,-1.9471327066421509,66.24775695800781,30.95546531677246
0,915678,-146.13543701171875,121.0695571899414,-68.34078979492188,-55.071006774902344
0,915679,-56.08721923828125,5.676267623901367,-73.8672866821289,-51.65611267089844
0,915682,208.21278381347656,-80.70365905761719,125.39827728271484,87.6566390991211
0,915683,26.779312133789062,-2.512155055999756,9.79593563079834,45.69397735595703
0,915686,-179.50892639160156,14.545695304870605,-72.17691802978516,-66.04792785644531
0,915687,12.808380126953125,-1.925831913948059,4.838109970092773,12.101948738098145
0,915690,1.7079371213912964,26.809520721435547,-27.55354118347168,-29.332321166992188
0,915691,-50.30458450317383,-19.027114868164062,3.8289761543273926,-74.52529907226562
0,915694,95.64208984375,-88.03575897216797,51.44912338256836,-3.820488691329956
0,915695,82.48075103759766,38.28939437866211,25.045454025268555,-12.093934059143066
0,915698,-105.92485809326172,136.20750427246094,-57.61161804199219,109.57879638671875
0,915699,-84.08008575439453,-22.94834327697754,-23.717723846435547,155.767578125
0,915702,111.2804183959961,-143.07659912109375,47.182029724121094,-136.18341064453125
0,915703,71.72207641601562,20.34421730041504,88.15129852294922,-118.7980728149414
0,915706,-50.27904510498047,6.8131232261657715,-77.9178237915039,82.7786636352539
0,915707,52.95272445678711,-0.8446959257125854,-128.39633178710938,-61.9381217956543
0,915710,-72.4430923461914,163.9680633544922,119.69884490966797,35.52876281738281
0,915711,-122.01697540283203,-65.66095733642578,-12.378335952758789,127.2367935180664
0,915714,190.81544494628906,-128.04861450195312,-30.126909255981445,-81.03790283203125
0,915715,65.64083862304688,67.47727966308594,106.74602508544922,-57.09310531616211
0,915718,-187.33108520507812,75.29188537597656,-63.08110427856445,24.026586532592773
0,915719,-111.30091094970703,-22.031957626342773,-111.13935852050781,-1.3642115592956543
0,915722,157.23416137695312,-84.31306457519531,82.2671890258789,-5.988546848297119
0,915723,108.63967895507812,45.11249923706055,87.0593490600586,12.54079818725586
0,915726,-143.98866271972656,60.56867218017578,-84.3739013671875,-2.441678524017334
0,915727,0.6492144465446472,-11.235219955444336,-29.259849548339844,-2.0915353298187256
0,915730,-8.999966621398926,3.216334581375122,38.84136962890625,45.70285415649414
0,915731,-44.701873779296875,-63.746116638183594,-30.596826553344727,-37.925270080566406
0,915734,136.50038146972656,-64.52059173583984,46.66981887817383,-17.492605209350586
0,915737,-59.63096237182617,60.58099365234375,-20.839265823364258,22.030784606933594
0,915738,-126.64044189453125,79.13721466064453,-112.88350677490234,-44.42021942138672
0,915740,207.82687377929688,-80.50550079345703,109.03165435791016,77.60973358154297
0,915742,91.61760711669922,-100.28154754638672,66.51842498779297,94.40740966796875
0,915744,-144.3617401123047,90.24681854248047,-31.692222595214844,-84.28717041015625
0,915746,-48.02613830566406,88.5081787109375,3.9170727729797363,-106.90657806396484
0,915748,17.196826934814453,-15.442707061767578,-43.62392807006836,-17.769676208496094
0,915750,6.292412281036377,-15.924540519714355,-12.729207038879395,16.624114990234375
0,915752,-13.210225105285645,-27.295528411865234,14.635029792785645,101.2320556640625
0,915754,68.9603271484375,-50.38661575317383,53.98394012451172,93.37979125976562
0,915756,-24.9121150970459,70.7345962524414,6.095115661621094,-152.10812377929688
0,915758,-168.6638641357422,96.77344512939453,-113.93299865722656,-145.711669921875
0,915760,103.4112777709961,-155.20033264160156,30.841005325317383,136.5178985595703
0,915762,148.58538818359375,-77.74221801757812,107.61630249023438,117.3309097290039
0,915764,-69.61612701416016,141.8959197998047,-30.241147994995117,-94.8174819946289
0,915766,-54.978965759277344,0.6463318467140198,-39.79880905151367,-31.556760787963867
0,915768,-48.97193908691406,-63.80967330932617,-12.809638023376465,57.840614318847656
0,915770,18.787063598632812,37.13631057739258,15.45434856414795,4.999630451202393
0,915772,73.46016693115234,-30.695234298706055,-31.963855743408203,11.213004112243652
0,915774,37.854698181152344,-68.1244888305664,5.255796432495117,-2.6380460262298584
0,915776,-46.38554382324219,131.90512084960938,42.675819396972656,-36.570003509521484
0,915778,-125.83760070800781,120.53104400634766,-60.39112091064453,-73.74105072021484
0,915780,111.10758972167969,-162.15594482421875,16.445026397705078,-27.287439346313477
0,915782,107.56957244873047,-115.76297760009766,50.16416549682617,94.50785827636719
0,915784,-91.0094985961914,103.89495086669922,-2.2946832180023193,56.32878494262695
0,915786,-21.807327270507812,45.62556457519531,-32.330101013183594,-37.23509979248047
0,915788,-32.4985466003418,3.622823476791382,-16.331283569335938,-23.589311599731445
0,915790,-12.144000053405762,20.116714477539062,30.95659065246582,33.587154388427734
0,915792,45.8817138671875,-82.08826446533203,4.400916576385498,41.86808395385742
0,915794,67.5083999633789,-69.9107437133789,17.461708068847656,-54.416664123535156
0,915796,-22.88501739501953,134.06861877441406,12.820911407470703,-22.5849666595459
0,915798,-137.25411987304688,101.21826934814453,-42.14288330078125,77.20889282226562
0,915800,43.32267379760742,-191.49497985839844,-49.74028015136719,-1.5780658721923828
0,915802,109.32254791259766,-63.92464065551758,24.535972595214844,-76.49905395507812
0,915804,-14.877154350280762,162.4098358154297,67.52066040039062,-30.578195571899414
0,915806,-63.215946197509766,22.030067443847656,-8.664074897766113,34.20756912231445
0,915808,-46.45125961303711,-31.341083526611328,-45.09304428100586,25.03330421447754
0,915810,26.24936866760254,-1.8212802410125732,-21.67430877685547,-4.815009593963623
0,915812,30.35036277770996,-53.30352020263672,3.2538743019104004,20.066171646118164
0,915814,64.07014465332031,-53.2212028503418,70.05682373046875,-0.34060314297676086
0,915816,-13.664811134338379,101.91292572021484,19.78681182861328,-92.96047973632812
0,915818,-144.96205139160156,91.98530578613281,-92.83500671386719,-21.565460205078125
0,915820,71.58094787597656,-172.0836944580078,6.116222858428955,82.82075500488281
0,915822,132.05564880371094,-85.33708953857422,49.41514587402344,34.808326721191406
0,915824,-52.533607482910156,100.98235321044922,-18.66388511657715,9.326924324035645
0,915826,-64.95735168457031,39.67641067504883,-7.558529853820801,-20.26462745666504
0,915828,-12.916620254516602,46.03595733642578,-22.268640518188477,-21.26719093322754
0,915830,34.52812576293945,6.515600204467773,10.212620735168457,6.97889518737793
0,915832,3.644904136657715,-64.82610321044922,28.056211471557617,27.347375869750977
0,915834,52.55085372924805,-57.478668212890625,32.2189826965332,-13.095852851867676
0,915836,-25.343847274780273,55.22062301635742,-4.10255241394043,-88.28697204589844
0,915838,-159.08279418945312,142.1243133544922,-77.7938003540039,25.534587860107422
0,915840,117.5461654663086,-123.26468658447266,1.214388132095337,108.20529174804688
0,915842,114.53548431396484,-135.8742218017578,28.73527717590332,-47.3154296875
0,915844,-96.8403091430664,143.14175415039062,11.359410285949707,-87.97525024414062
0,915846,-44.71438980102539,53.795372009277344,11.671722412109375,63.89126968383789
0,915848,-16.465770721435547,-62.46471405029297,-50.589237213134766,25.719175338745117
0,915850,41.715126037597656,-21.304515838623047,6.11764669418335,-68.90729522705078
0,915852,17.469890594482422,-7.504169464111328,26.696460723876953,34.99128341674805
0,915854,17.21673583984375,-52.35633850097656,-4.444797515869141,74.03292083740234
0,915856,4.201058387756348,61.01959991455078,13.27247142791748,-25.605243682861328
0,915858,-132.44482421875,153.58523559570312,-31.845727920532227,-37.57175064086914
0,915860,51.65934371948242,-146.8121795654297,5.094613075256348,9.141275405883789
0,915862,146.30345153808594,-144.34713745117188,35.987648010253906,2.812831401824951
0,915864,-52.43421173095703,189.21234130859375,46.86271667480469,-12.604697227478027
0,915866,-63.041385650634766,101.0768814086914,6.504983425140381,24.033550262451172
0,915868,-41.186729431152344,-78.76187133789062,-82.01936340332031,-4.148437976837158
0,915870,5.481113910675049,-42.79133605957031,-20.98078727722168,-50.46953201293945
0,915872,55.69053649902344,-65.85179901123047,27.69356346130371,22.28754234313965
0,915874,60.46564865112305,-72.45572662353516,48.4437141418457,24.885051727294922
0,915876,-20.140146255493164,127.7856216430664,-5.845788955688477,-19.180343627929688
0,915878,-147.18902587890625,139.983642578125,-84.70249938964844,-2.506006956100464
0,915880,95.65132141113281,-146.0387420654297,18.24532699584961,8.263653755187988
0,915882,139.79420471191406,-118.66595458984375,56.24541091918945,16.35747528076172
0,915884,-92.78254699707031,107.21017456054688,-19.96150779724121,-20.638648986816406
0,915886,-63.16857147216797,65.15943908691406,-31.697933197021484,-41.26350021362305
0,915888,-53.499427795410156,-30.3343448638916,-0.0499405637383461,55.15565490722656
0,915890,12.776115417480469,-8.741313934326172,3.5112130641937256,54.6812858581543
0,915892,104.73445129394531,-33.4058837890625,21.516597747802734,-81.94676971435547
0,915894,74.28707122802734,-61.277435302734375,67.48289489746094,-35.4819450378418
0,915896,-69.75120544433594,81.99577331542969,-30.439226150512695,100.18119049072266
0,915898,-151.1760711669922,119.43904876708984,-112.45470428466797,13.74569320678711
0,915899,17.90555763244629,-80.33548736572266,-3.0370421409606934,-74.80560302734375
0,915902,101.78463745117188,-121.09292602539062,72.1166000366211,27.58173942565918
0,915903,25.591636657714844,15.88204574584961,42.908050537109375,55.84714126586914
0,915906,-31.7227783203125,65.8946533203125,-24.22635269165039,-75.35107421875
0,915907,14.702810287475586,-10.409788131713867,-29.12394142150879,-53.41081237792969
0,915910,-11.08577823638916,18.40925407409668,9.50906753540039,29.540813446044922
0,915911,-20.656991958618164,10.411433219909668,28.447185516357422,3.256972551345825
0,915914,116.20207214355469,-93.30335998535156,42.32551193237305,59.48853302001953
0,915915,43.2912712097168,33.4061279296875,12.521415710449219,-23.72488784790039
0,915918,-190.52796936035156,95.3705825805664,-67.1796646118164,-55.94099426269531
0,915919,-112.50556182861328,-2.9585113525390625,-81.6156234741211,74.97003173828125
0,915922,157.03158569335938,-63.6540412902832,68.15243530273438,-4.437575817108154
0,915923,61.973655700683594,-53.88990783691406,48.926734924316406,-63.39277648925781
0,915926,-113.03392791748047,73.34464263916016,-66.33428192138672,29.144086837768555
0,915927,-0.2045345902442932,32.78345489501953,9.420696258544922,63.67873001098633
0,915930,29.705612182617188,-28.072866439819336,15.951213836669922,-43.610740661621094
0,915931,4.93028450012207,-3.9727540016174316,-26.29704475402832,-36.918540954589844
0,915934,72.25543212890625,-75.36729431152344,16.100326538085938,18.963972091674805
0,915935,15.64184856414795,59.78716278076172,49.501399993896484,-13.68471908569336
0,915938,-124.03412628173828,141.54080200195312,-26.52381134033203,13.317663192749023
0,915939,-65.48883056640625,-77.99609375,-59.678218841552734,19.086095809936523
0,915942,165.04229736328125,-143.7991180419922,60.68242263793945,6.014216899871826
0,915943,65.64141082763672,48.25392532348633,27.53409767150879,-14.472602844238281
0,915946,-121.29922485351562,99.672607421875,-30.020090103149414,-9.32544231414795
0,915947,-43.06719207763672,-23.72236442565918,-4.097558975219727,15.31729507446289
0,915951,-33.718040466308594,-8.41477108001709,-92.55412292480469,2.981372356414795
0,915952,19.926433563232422,-48.27382278442383,-14.005409240722656,2.2395846843719482
0,915953,134.1034393310547,-107.9951171875,127.45655822753906,9.78903579711914
0,915956,-22.569480895996094,155.50628662109375,20.64093589782715,-8.325116157531738
0,915957,-141.65118408203125,146.06488037109375,-65.54440307617188,-33.25802230834961
0,915960,88.46343994140625,-211.30685424804688,-5.646022796630859,15.537065505981445
0,915961,102.46492767333984,-107.35352325439453,11.95934009552002,13.616403579711914
0,915964,-65.94149780273438,111.6082763671875,25.152538299560547,-41.46905517578125
0,915965,-24.33704376220703,47.093360900878906,25.28866958618164,27.935943603515625
0,915968,-13.149901390075684,31.274810791015625,-48.341949462890625,39.05390930175781
0,915969,-17.707992553710938,-6.3035173416137695,-14.90682601928711,-42.07173538208008
0,915972,22.03462028503418,-92.86026000976562,9.912129402160645,-19.104341506958008
0,915973,63.12091064453125,-22.303455352783203,29.392484664916992,44.07591247558594
0,915976,-29.642858505249023,118.4051742553711,40.161380767822266,-1.0597847700119019
0,915977,-131.0382843017578,96.50529479980469,-62.23991394042969,-33.40781784057617
0,915980,61.484535217285156,-138.14013671875,-22.1706600189209,26.053342819213867
0,915981,95.21395111083984,-106.52318572998047,35.48291015625,4.325750827789307
0,915984,-45.266292572021484,125.09228515625,24.638246536254883,-3.445916175842285
0,915985,-21.759008407592773,13.761780738830566,-30.862394332885742,25.40880584716797
0,915988,-16.927885055541992,-45.09812927246094,-68.42359161376953,-103.17467498779297
0,915989,2.2316126823425293,26.2469482421875,56.52863311767578,-53.13017272949219
0,915992,20.995290756225586,-42.17243957519531,30.97957992553711,152.9936981201172
0,915993,55.92283248901367,-57.18938446044922,-19.92176055908203,55.08517837524414
0,915996,-4.8412766456604,86.92340087890625,22.85597038269043,-65.27830505371094
0,915997,-138.30897521972656,102.27201080322266,-38.4817008972168,-15.344137191772461
0,916000,36.19504928588867,-124.6889419555664,-25.092702865600586,5.328841686248779
0,916001,100.90534973144531,-71.21086883544922,21.458385467529297,-22.04298210144043
0,916004,-1.809356689453125,109.36287689208984,21.042844772338867,-19.03228187561035
0,916005,-18.524927139282227,40.1832389831543,19.438501358032227,24.192371368408203
0,916008,-75.41349792480469,-3.001695394515991,0.9517558217048645,34.30792999267578
0,916009,10.090335845947266,-4.291304588317871,-1.8627657890319824,18.433868408203125
0,916012,55.72588348388672,-72.72398376464844,-23.481801986694336,-49.332054138183594
0,916013,48.79779052734375,-106.63675689697266,-29.16606903076172,-40.311588287353516
0,916016,-12.751607894897461,108.08741760253906,13.7111177444458,35.119205474853516
0,916017,-114.99482727050781,188.9228973388672,14.56265926361084,15.07758903503418
0,916020,60.92072677612305,-177.65908813476562,-15.11643123626709,-21.16896629333496
0,916021,87.34945678710938,-145.73194885253906,5.7491350173950195,6.715456008911133
0,916024,-59.85116195678711,158.43988037109375,60.31780242919922,36.27853775024414
0,916025,-43.150909423828125,53.67161178588867,-3.6347410678863525,-10.852456092834473
0,916028,-30.584699630737305,-19.114206314086914,-67.50421905517578,-17.72256088256836
0,916029,1.4133340120315552,-7.380527496337891,8.020051002502441,-23.594633102416992
0,916032,35.82079315185547,-64.71902465820312,5.271457672119141,11.131765365600586
0,916033,88.95826721191406,-42.78980255126953,32.11717987060547,26.30292510986328
0,916036,-42.108795166015625,105.44000244140625,36.3703727722168,-45.22013854980469
0,916037,-192.9010467529297,115.8172607421875,-86.38543701171875,1.2911550998687744
0,916040,103.6589126586914,-160.42625427246094,-8.863700866699219,36.33219909667969
0,916041,169.16989135742188,-110.28860473632812,48.28409194946289,-0.6071223020553589
0,916044,-62.427223205566406,124.69535827636719,-2.594525098800659,5.408048629760742
0,916045,-61.49634552001953,46.86518478393555,-3.47011137008667,-7.345800876617432
0,916048,-46.779136657714844,-13.164813041687012,-40.702144622802734,9.418811798095703
0,916049,-8.88143539428711,10.780062675476074,-4.30903959274292,27.80595588684082
0,916052,62.48530960083008,-57.69026565551758,21.933265686035156,-22.763391494750977
0,916053,80.35035705566406,-67.22406768798828,36.94373321533203,-12.93874740600586
0,916056,-47.78955841064453,92.34890747070312,15.166298866271973,-2.9953513145446777
0,916057,-136.7539520263672,120.82707214355469,-56.930458068847656,-46.775718688964844
0,916060,87.19230651855469,-122.31781005859375,-5.913434028625488,19.365163803100586
0,916061,94.80789184570312,-131.06224060058594,41.92826843261719,66.28497314453125
0,916064,-36.94410705566406,110.21926879882812,13.808420181274414,-50.61971664428711
0,916065,-35.178504943847656,79.05181121826172,-8.896886825561523,-42.58519744873047
0,916068,-67.41050720214844,-60.06419372558594,-31.406478881835938,34.37468719482422
0,916069,43.6411018371582,-11.669054985046387,-46.75838851928711,0.6758251190185547
0,916072,64.23885345458984,-34.54012680053711,19.57158660888672,49.16238021850586
0,916073,12.143171310424805,-75.18002319335938,86.34037780761719,46.918243408203125
0,916076,-47.63185501098633,115.82087707519531,-2.8606014251708984,-81.58499145507812
0,916077,-124.27442932128906,130.8905487060547,-69.28280639648438,-49.65056228637695
0,916080,100.8857650756836,-149.7657012939453,26.76173210144043,59.759525299072266
0,916081,104.01933288574219,-115.79229736328125,36.972015380859375,44.78830337524414
0,916084,-79.53977966308594,141.89324951171875,-25.107799530029297,-79.40750885009766
0,916085,-4.525192737579346,86.90137481689453,-10.348283767700195,-62.96707534790039
0,916088,-20.368499755859375,-23.766996383666992,2.2482473850250244,97.73616027832031
0,916089,-29.280166625976562,-48.76992416381836,5.461909294128418,48.310508728027344
0,916092,31.959854125976562,-94.67683410644531,-23.393125534057617,-60.296142578125
0,916093,74.5661849975586,-15.636549949645996,23.097013473510742,19.729780197143555
0,916096,-15.747791290283203,141.18051147460938,26.101152420043945,-56.48291015625
0,916097,-163.03189086914062,74.87091064453125,-85.40019226074219,-92.40760803222656
0,916100,58.02347946166992,-154.87115478515625,-7.445924758911133,148.70567321777344
0,916101,111.18331909179688,-64.78316497802734,72.50896453857422,84.73664093017578
0,916104,-44.18708038330078,116.99954986572266,5.892053127288818,-113.32548522949219
0,916105,-17.305870056152344,25.549509048461914,-30.668319702148438,-35.22361373901367
0,916108,-37.13893508911133,-51.5433464050293,29.98592758178711,48.40086364746094
0,916109,17.890243530273438,-12.163497924804688,6.387388706207275,-1.7475858926773071
0,916112,37.0501823425293,-28.070276260375977,-69.40390014648438,34.01461410522461
0,916113,48.42750930786133,-52.04936599731445,36.27556228637695,3.5472586154937744
0,916116,-32.0709114074707,124.39715576171875,41.45404815673828,-78.09550476074219
0,916117,-116.50733947753906,136.725830078125,-86.35482025146484,18.028823852539062
0,916120,114.86685180664062,-184.92742919921875,-17.987464904785156,64.8324966430664
0,916121,76.17546844482422,-131.8728485107422,72.28685760498047,20.629230499267578
0,916124,-79.88916778564453,149.59750366210938,31.864967346191406,-48.03769302368164
0,916125,-38.46779251098633,49.607757568359375,-10.741458892822266,-70.0400161743164
0,916128,-19.300251007080078,-46.68395233154297,-32.423126220703125,19.643341064453125
0,916129,24.638547897338867,39.27131652832031,4.398265838623047,13.02161693572998
0,916132,28.107051849365234,-40.0788688659668,-13.267091751098633,-16.6606502532959
0,916133,49.716712951660156,-86.20384216308594,17.982154846191406,73.75635528564453
0,916136,-62.750267028808594,77.15326690673828,40.67508316040039,19.935617446899414
0,916137,-124.81171417236328,110.15909576416016,-69.46061706542969,-59.542503356933594
0,916140,116.75041961669922,-121.92980194091797,6.089754104614258,-64.3166732788086
0,916141,86.44528198242188,-113.06079864501953,60.871646881103516,1.9839969873428345
0,916144,-80.43948364257812,133.5517120361328,-0.23674270510673523,122.37448120117188
0,916145,-22.351110458374023,60.59703826904297,-46.85789489746094,18.277788162231445
0,916148,3.104820728302002,-17.059432983398438,-44.21631622314453,-56.108116149902344
0,916149,9.706769943237305,11.925578117370605,51.60809326171875,-18.517248153686523
0,916152,3.111116409301758,-104.10221862792969,10.918879508972168,25.655773162841797
0,916153,55.86514663696289,-49.14390563964844,-4.03131628036499,67.3193588256836
0,916156,-17.761184692382812,125.95877075195312,28.487018585205078,29.23508644104004
0,916157,-126.97254180908203,76.75615692138672,-47.394832611083984,23.03640365600586
0,916160,101.9516830444336,-119.25273895263672,-8.384706497192383,-117.0942153930664
0,916161,95.93170166015625,-94.17961120605469,22.822763442993164,-109.54127502441406
0,916164,-50.524375915527344,109.53579711914062,-4.557995319366455,65.29287719726562
0,916166,-57.583927154541016,26.479265213012695,11.406902313232422,-21.758798599243164
0,916168,-80.37244415283203,-35.003990173339844,-28.042959213256836,-25.022708892822266
0,916170,16.842971801757812,61.142478942871094,-9.404263496398926,24.07916259765625
0,916172,65.80189514160156,-62.41251754760742,29.945287704467773,-14.91903305053711
0,916174,100.33319091796875,-75.60678100585938,23.985881805419922,6.438504695892334
0,916175,32.47684097290039,110.3183364868164,38.3729248046875,-19.09499740600586
1,916178,-174.76902770996094,42.16592788696289,-52.780086517333984,51.33584213256836
1,916179,-91.21166229248047,-123.3377456665039,-82.52869415283203,87.09937286376953
1,916182,135.1522216796875,-43.69319534301758,81.28658294677734,-64.30715942382812
1,916183,64.46460723876953,120.48345184326172,84.90706634521484,-61.78386306762695
1,916438,-209.4472198486328,154.20484924316406,-123.1280517578125,40.221717834472656
1,916439,-186.5323486328125,-19.066282272338867,-132.73037719726562,11.802788734436035
1,916442,37.20980453491211,-101.87775421142578,-5.679738521575928,12.619843482971191
1,916443,160.79359436035156,-129.3684539794922,20.550628662109375,28.43449592590332
1,916446,364.71478271484375,-191.8976593017578,174.4689483642578,2.372159242630005
1,916447,218.74424743652344,-15.622421264648438,190.5783233642578,3.642026424407959
1,916450,-125.72480010986328,117.64495086669922,-29.769147872924805,-54.736785888671875
1,916451,-68.44588470458984,135.14410400390625,-56.64192199707031,-19.138282775878906
1,917469,-172.85948181152344,218.076904296875,-56.80461883544922,14.928915023803711
1,917469,-264.2763366699219,87.43163299560547,-100.7731704711914,-0.5576192140579224
1,917472,13.40576171875,-132.51039123535156,-73.12122344970703,26.914608001708984
1,917473,27.824996948242188,-57.72418975830078,28.708251953125,-19.922161102294922
1,917476,-120.28901672363281,9.61059856414795,-20.434236526489258,-8.509743690490723
1,917477,65.85841369628906,-153.3057403564453,-60.24169921875,35.2401008605957
1,917480,338.0435485839844,-155.2655792236328,161.45944213867188,37.83005905151367
1,917481,149.81520080566406,-8.957413673400879,101.12286376953125,-47.63822555541992
1,917484,-98.59072875976562,94.70157623291016,-29.13322639465332,-72.85149383544922
1,917485,-50.869083404541016,140.00335693359375,-3.9888641834259033,40.21370315551758
1,917488,-151.367431640625,65.56492614746094,-74.27885437011719,38.847076416015625
1,917489,-132.5033416748047,17.97878074645996,-45.234134674072266,-24.179750442504883
1,917492,39.36406326293945,-26.970705032348633,31.562902450561523,32.514591217041016
1,917493,-8.845215797424316,-11.672310829162598,-18.710668563842773,33.99790573120117
1,917496,-54.1208381652832,35.70979309082031,-55.8590202331543,-52.4206657409668
1,917497,35.8497200012207,-77.14601135253906,13.208688735961914,3.276623487472534
1,917500,232.76376342773438,-165.20751953125,92.78428649902344,22.847240447998047
1,917501,132.95388793945312,7.021205902099609,65.70524597167969,-29.563016891479492
1,917504,-132.9669647216797,117.74449920654297,-19.669069290161133,-16.544958114624023
1,917506,-56.19010543823242,27.22365379333496,-40.862186431884766,6.584043025970459
1,917507,-14.650550842285156,9.792189598083496,-16.283653259277344,-41.0666618347168
1,917510,-93.67501831054688,35.280906677246094,-30.72610855102539,20.566322326660156
1,917511,-8.317802429199219,25.489458084106445,-16.831884384155273,105.78924560546875
1,917514,14.470948219299316,17.370594024658203,33.35974884033203,-79.07662200927734
1,917515,-91.56449890136719,28.925500869750977,-12.553201675415039,-63.93783187866211
1,917518,60.89990997314453,-143.2746124267578,-46.34082794189453,94.13272857666016
1,917519,179.06591796875,-171.7408905029297,6.506428241729736,3.2995219230651855
1,917522,40.33705139160156,64.06788635253906,81.07270050048828,-54.360130310058594
1,917523,-53.34697723388672,128.48326110839844,48.400123596191406,6.836531639099121
1,917526,-74.8489990234375,56.522220611572266,-27.95487403869629,24.539878845214844
1,917527,-47.04661560058594,-19.401233673095703,-25.76009750366211,-28.21935272216797
1,917530,-11.28447151184082,-11.654829025268555,-48.191646575927734,-5.733081340789795
1,917531,50.48100280761719,-23.825973510742188,-11.502324104309082,39.184627532958984
1,917534,-13.383553504943848,32.20466613769531,43.118865966796875,-6.0697832107543945
1,917535,-92.93647003173828,74.6171875,-33.38335037231445,-15.232200622558594
1,917538,40.206260681152344,-129.11380004882812,-25.470064163208008,64.9226303100586
1,917539,108.57860565185547,-100.51050567626953,84.12026977539062,22.307889938354492
1,917542,76.77933502197266,86.40991973876953,56.79875564575195,-110.31354522705078
1,917543,-26.182222366333008,58.818824768066406,-49.172115325927734,-5.193511009216309
1,917546,-105.46918487548828,8.799324035644531,-52.32527542114258,61.3990478515625
1,917547,-7.333742141723633,-27.82124137878418,14.36163330078125,-15.365428924560547
1,917550,-10.527850151062012,-15.363966941833496,-18.941017150878906,-7.712366580963135
1,917551,14.126404762268066,1.6979340314865112,-11.38628101348877,12.66467571258545
1,917554,14.358956336975098,21.80462646484375,23.922542572021484,-14.308428764343262
1,917555,-87.2627182006836,82.65170288085938,-27.598724365234375,-46.31016540527344
1,917558,73.97808074951172,-98.0733642578125,21.76349449157715,25.58236312866211
1,917561,127.96898651123047,-180.15359497070312,7.249044895172119,62.04677200317383
1,917562,-44.202335357666016,121.40155029296875,18.391733169555664,-34.31317138671875
1,917563,-80.15215301513672,153.9601593017578,56.71820068359375,-55.69634246826172
1,917566,-1.8464299440383911,-34.36171340942383,-45.5384635925293,32.98417663574219
1,917567,23.473482131958008,-42.033626556396484,-41.99666213989258,29.949060440063477
1,917570,-28.50802993774414,-41.49411392211914,-19.673320770263672,6.5465593338012695
1,917571,30.388227462768555,-41.349483489990234,19.31859016418457,25.82535743713379
1,917574,11.225889205932617,69.5985107421875,40.523529052734375,-26.135276794433594
1,917575,-131.60830688476562,98.498779296875,-48.585845947265625,-41.19244384765625
1,917578,11.406551361083984,-87.87486267089844,-10.434954643249512,-0.4238594174385071
1,917579,98.67068481445312,-111.69657897949219,61.739131927490234,20.81153678894043
1,917582,41.40005111694336,68.61380004882812,5.102718353271484,23.63208770751953
1,917583,27.15789222717285,78.4438705444336,-35.78961944580078,5.1930832862854
1,917586,-76.30453491210938,-24.840831756591797,-12.338235855102539,-23.05219268798828
1,917587,-9.450739860534668,-27.699813842773438,17.567949295043945,-24.89748191833496
1,917590,29.73257827758789,1.4052730798721313,9.932729721069336,-23.945636749267578
1,917591,27.364917755126953,-30.506057739257812,1.3638290166854858,25.17313575744629
1,917594,19.552446365356445,53.695213317871094,29.856996536254883,51.554595947265625
1,917595,-141.20703125,96.55706024169922,-37.55406188964844,-29.640789031982422
1,917598,1.0025155544281006,-123.47816467285156,-52.21281814575195,6.692342281341553
1,917599,142.88462829589844,-78.3246841430664,56.685157775878906,12.506178855895996
1,917602,-20.242408752441406,90.41461181640625,37.668460845947266,-46.92234420776367
1,917603,-76.61890411376953,2.184274196624756,-16.524688720703125,23.10546875
1,917606,-3.1904802322387695,-22.817127227783203,-35.325889587402344,-26.471263885498047
1,917607,49.324188232421875,15.732149124145508,-2.7827017307281494,-28.501981735229492
1,917610,-26.0330753326416,-22.7164363861084,20.08993148803711,85.69062042236328
1,917611,45.694252014160156,-29.50650978088379,2.1200852394104004,4.668373107910156
1,917614,50.56128692626953,80.26590728759766,19.54805564880371,-28.668495178222656
1,917615,-156.66278076171875,57.896759033203125,-49.02180099487305,-5.5589141845703125
1,917618,57.42289733886719,-109.66329956054688,-38.99250411987305,-3.37668514251709
1,917619,140.5638885498047,-57.563934326171875,60.950439453125,5.509690284729004
1,917622,-81.76393127441406,70.92805480957031,18.90018081665039,-22.7880859375
1,917623,-63.44719696044922,43.90058517456055,-32.05343246459961,57.528106689453125
1,917626,-38.567378997802734,10.345105171203613,-6.840493202209473,-6.110299110412598
1,917627,3.2076244354248047,-33.009098052978516,5.648908615112305,-92.22032928466797
1,917632,31.10239601135254,-44.60272979736328,-11.927996635437012,70.65010833740234
1,917632,54.40940475463867,-68.9423828125,-25.14748764038086,43.077571868896484
1,917633,57.4572868347168,-26.609712600708008,49.601280212402344,-99.3300552368164
1,917636,-162.4114532470703,204.56622314453125,37.197792053222656,18.38402557373047
1,917637,-80.39370727539062,97.7986831665039,-64.09941101074219,106.99164581298828
1,917640,214.63104248046875,-228.62374877929688,15.161344528198242,-34.88216018676758
1,917641,42.64366912841797,-72.31785583496094,69.04509735107422,-71.21366882324219
1,917644,-103.18569946289062,156.42965698242188,-35.33533477783203,24.716800689697266
1,917645,26.972890853881836,25.703815460205078,-38.12371063232422,20.376293182373047
1,917648,32.51175308227539,-19.832965850830078,10.423994064331055,0.8571170568466187
1,917649,12.934856414794922,-14.695822715759277,-11.255066871643066,-20.328847885131836
1,917652,-90.39710235595703,-87.73793029785156,16.995065689086914,1.5482800006866455
1,917653,-78.58441925048828,52.961761474609375,45.11476135253906,6.615175247192383
1,917656,45.357975006103516,105.91542053222656,-53.77505111694336,-41.021915435791016
1,917657,-22.799480438232422,-87.86283111572266,-91.65232849121094,-1.5239434242248535
1,917660,116.56455993652344,-104.37689971923828,61.13105010986328,29.095094680786133
1,917661,97.61003875732422,36.862586975097656,42.68247985839844,62.08437728881836
1,917664,-143.55108642578125,87.15617370605469,-17.1733455657959,-3.3173961639404297
1,917665,-43.10923767089844,11.265034675598145,41.541587829589844,-92.51306915283203
1,917668,13.077792167663574,-22.41264533996582,-12.84683895111084,-13.267786979675293
1,917669,8.762594223022461,19.823152542114258,-17.916378021240234,56.78971481323242
1,917672,103.38825225830078,-66.69034576416016,18.102880477905273,34.63092803955078
1,917673,55.262020111083984,-6.213612079620361,27.47181510925293,-28.99677276611328
1,917676,-171.1411895751953,139.79994201660156,-13.562207221984863,-28.301828384399414
1,917677,-147.0676727294922,-33.32481384277344,-60.2451171875,12.879323959350586
1,917680,231.239013671875,-147.36447143554688,48.2275390625,-5.914865016937256
1,917681,127.0844955444336,23.52079200744629,8.642455101013184,-15.11839485168457
1,917684,-243.18023681640625,112.15669250488281,-85.26748657226562,31.45076560974121
1,917685,-70.35226440429688,-20.81366539001465,37.07316207885742,22.469301223754883
1,917688,98.66158294677734,-30.390522003173828,36.51349639892578,9.097441673278809
1,917689,24.372068405151367,14.115394592285156,-28.629060745239258,-6.29197359085083
1,917692,64.77114868164062,-42.489891052246094,14.789450645446777,-52.741058349609375
1,917693,79.57417297363281,26.964757919311523,37.294593811035156,23.17916488647461
1,917696,18.924522399902344,39.313331604003906,-61.95423126220703,26.563390731811523
1,917697,-100.5820541381836,-48.04994583129883,-78.64449310302734,-46.21079635620117
1,917700,-236.44471740722656,-63.00260543823242,113.93997955322266,25.235776901245117
1,917701,-99.8655776977539,-2.489353656768799,98.00728607177734,52.072872161865234
1,917704,217.85894775390625,92.32861328125,-66.86490631103516,-84.24552917480469
1,917705,251.81251525878906,25.58540153503418,-48.66300582885742,-90.95170593261719
1,917708,-72.29103088378906,-26.03093719482422,-37.84501266479492,119.7309341430664
1,917709,-248.01426696777344,-10.040128707885742,-35.34531784057617,73.07022857666016
1,917712,48.06240463256836,-73.60330963134766,65.91535949707031,-65.42559814453125
1,917714,313.15118408203125,59.209381103515625,72.62339782714844,-5.560583591461182
1,917716,-91.84405517578125,88.22148132324219,-52.48024368286133,-25.390850067138672
1,917718,121.73435974121094,-111.64274597167969,-31.511533737182617,13.226827621459961
1,917720,369.6216735839844,-31.520170211791992,75.29178619384766,24.081811904907227
1,917721,-832.2496948242188,77.63601684570312,12.336254119873047,-8.487262725830078
1,917724,-475.83416748046875,-14.730011940002441,-107.16773223876953,32.490482330322266
1,917725,956.859130859375,-30.873659133911133,-70.35958099365234,-31.793922424316406
1,917728,171.36607360839844,64.32396697998047,66.72200775146484,-23.13559913635254
1,917729,-1011.934326171875,26.733074188232422,-2.0397403240203857,38.5012321472168
1,917732,-294.5450134277344,-117.88282775878906,30.882169723510742,-45.994205474853516
1,917733,683.7762451171875,-4.853881359100342,229.56813049316406,-16.336755752563477
1,917736,349.19488525390625,140.182861328125,-52.25493621826172,80.26476287841797
1,917737,-131.20718383789062,-9.879531860351562,-272.6518249511719,-34.22969436645508
1,917740,181.11537170410156,-96.8131103515625,-41.01272201538086,-55.208377838134766
1,917741,246.21849060058594,2.402688503265381,66.17162322998047,64.40711975097656
1,917744,-432.3196105957031,21.640213012695312,162.7047576904297,23.3117733001709
1,917745,-332.0353088378906,-26.7652645111084,123.88910675048828,-48.19868469238281
1,917748,431.505859375,34.47772979736328,-62.98075866699219,21.725658416748047
1,917749,251.10000610351562,31.69305992126465,-157.83746337890625,29.92530059814453
1,917752,-258.90240478515625,-130.5847625732422,-199.333740234375,-26.75859260559082
1,917753,-126.40824890136719,-13.89607048034668,62.40846252441406,-35.095603942871094
1,917756,-6.451132774353027,173.69686889648438,208.66839599609375,-11.814906120300293
1,917757,-115.64254760742188,22.17308807373047,-14.344440460205078,27.780193328857422
1,917760,40.831024169921875,-115.19200134277344,-46.87556838989258,12.089200973510742
1,917761,109.55818176269531,-0.25160300731658936,18.924711227416992,-21.242746353149414
1,917764,-42.77928924560547,83.22270965576172,14.237333297729492,-8.84973430633545
1,917765,32.02450942993164,10.580160140991211,17.41290283203125,19.373950958251953
1,917768,44.549072265625,-39.490814208984375,-50.482269287109375,9.328145027160645
1,917769,-35.87746810913086,-73.5247573852539,-21.179332733154297,14.828322410583496
1,917772,38.85512161254883,-38.18986511230469,69.02742767333984,-5.266739368438721
1,917773,3.6702680587768555,45.41818618774414,44.26367950439453,-21.051441192626953
1,917776,-170.53619384765625,91.82737731933594,-63.23002624511719,-15.231759071350098
1,917777,-126.8587646484375,44.22445297241211,-85.16571044921875,-28.548316955566406
1,917780,170.29055786132812,-126.36582946777344,48.148380279541016,54.22949981689453
1,917781,99.66596221923828,-51.800262451171875,30.241493225097656,72.45794677734375
1,917784,-94.48257446289062,110.59969329833984,-29.12798500061035,-73.23919677734375
1,917785,105.42642211914062,-34.54301834106445,1.5332680940628052,-76.02910614013672
1,917788,158.3109893798828,-11.334880828857422,-7.711648941040039,65.12112426757812
1,917789,49.168033599853516,74.68136596679688,27.079914093017578,48.63658142089844
1,917792,-336.95672607421875,-97.23784637451172,20.59454917907715,-57.46623992919922
1,917793,-403.3893737792969,-27.539443969726562,41.06172561645508,-15.46203899383545
1,917796,344.35968017578125,114.3122329711914,-52.45561218261719,65.60958099365234
1,917797,764.0299682617188,-22.640682220458984,-141.69024658203125,21.882768630981445
1,917800,-376.25054931640625,-104.60202026367188,119.49366760253906,-58.32682800292969
1,917801,-1210.3428955078125,17.319456100463867,114.04534912109375,-23.412574768066406
1,917804,551.3980712890625,95.92666625976562,-106.58831024169922,50.05952453613281
1,917805,971.5123291015625,29.443180084228516,-14.154641151428223,20.6000919342041
1,917808,-349.2106018066406,-1.8772282600402832,73.33940887451172,-40.32713317871094
1,917809,-224.5950927734375,-40.12326431274414,18.796905517578125,-46.556373596191406
1,917812,87.11984252929688,-88.20083618164062,-77.77745056152344,39.5565185546875
1,917813,-33.092323303222656,29.209501266479492,-141.8937225341797,32.48090362548828
1,917816,-48.81643295288086,98.83282470703125,28.355634689331055,-50.41314697265625
1,917817,39.36639404296875,-33.46891403198242,165.29347229003906,-9.30900764465332
1,917820,425.6539611816406,-109.96997833251953,9.255172729492188,16.28377342224121
1,917822,-142.92984008789062,36.07267761230469,-58.69466781616211,-26.74298667907715
1,917823,-859.5361328125,122.7219009399414,2.0299127101898193,-2.120798110961914
1,917826,651.5834350585938,-21.706966400146484,-3.0637004375457764,55.10728454589844
1,917827,577.1021118164062,-69.65116882324219,2.9297451972961426,25.212528228759766
1,917830,-951.97705078125,2.077289342880249,12.893091201782227,-35.0384407043457
1,917831,367.6280212402344,-0.3519006669521332,-19.132701873779297,15.093725204467773
1,917834,-138.62278747558594,62.252498626708984,42.00901794433594,32.99318313598633
1,917835,-1871.379638671875,62.22347640991211,64.77815246582031,-63.95694351196289
1,917838,849.4877319335938,-182.11480712890625,-30.779359817504883,-18.871240615844727
1,917839,1921.1700439453125,-106.61416625976562,-61.231136322021484,82.76275634765625
1,917842,-381.6478576660156,160.67782592773438,-282.79296875,-6.9697418212890625
1,917843,-499.6288146972656,68.56871032714844,-126.9325942993164,-52.689064025878906
1,917846,159.43206787109375,-5.688024520874023,452.7969970703125,-6.103326797485352
1,917847,33.95735549926758,-1.3652256727218628,191.35841369628906,-28.599899291992188
1,917850,66.90985107421875,-33.04931640625,-224.45960998535156,43.84675216674805
1,917851,205.5924530029297,-73.91761016845703,-25.830673217773438,54.05842208862305
1,917854,-26.153488159179688,34.97389602661133,80.4545669555664,-90.76487731933594
1,917855,-311.36053466796875,149.4512481689453,-14.596857070922852,-64.80067443847656
1,917858,-53.87717819213867,-115.47000885009766,-10.767083168029785,103.16656494140625
1,917859,32.42783737182617,-126.93608093261719,66.6698226928711,65.51505279541016
1,917862,106.74906158447266,131.3469696044922,3.970177412033081,-72.6468505859375
1,917863,15.563055038452148,20.787038803100586,-156.40672302246094,-65.94903564453125
1,917866,-729.71435546875,-51.21736145019531,-58.30144500732422,8.03467845916748
1,917867,-424.0856628417969,27.943222045898438,121.23949432373047,68.42671203613281
1,917870,677.8587036132812,-63.37813186645508,-47.65268325805664,63.57119369506836
1,917871,573.9500122070312,-55.09003448486328,-90.95362091064453,-20.896520614624023
1,917874,-219.49205017089844,144.54649353027344,69.82231140136719,-74.07543182373047
1,917875,-310.12652587890625,131.6851348876953,51.24867630004883,13.856689453125
1,917878,207.7145538330078,-162.57041931152344,32.682212829589844,56.986572265625
1,917879,497.1860656738281,-120.85484313964844,-24.251832962036133,-16.013256072998047
1,917882,-213.16590881347656,137.9739227294922,-43.96708297729492,-48.09538269042969
1,917883,-922.6038818359375,38.09675979614258,-3.162108898162842,-11.361711502075195
1,917886,-61.755794525146484,-38.55490493774414,88.64974212646484,25.12737464904785
1,917887,797.18359375,0.46028682589530945,27.702693939208984,45.138404846191406
1,917890,295.10986328125,-87.53801727294922,-194.3424072265625,-15.570844650268555
1,917891,-114.2442398071289,-25.981203079223633,6.131633281707764,-36.15642166137695
1,917894,-66.41513061523438,135.20742797851562,92.52298736572266,-25.646873474121094
1,917895,-146.89662170410156,72.51760864257812,-25.50847053527832,-14.854717254638672
1,917898,140.92071533203125,-126.90889739990234,53.18836212158203,117.735595703125
1,917899,535.287353515625,-62.57599639892578,23.548053741455078,19.947534561157227
1,917902,-494.8282470703125,91.03562927246094,39.33729934692383,-145.5054168701172
1,917903,-1102.144775390625,-0.4320232570171356,106.96879577636719,-9.078923225402832
1,917906,675.3494262695312,-20.111953735351562,-35.70143508911133,108.67217254638672
1,917907,715.1165771484375,30.666452407836914,-199.34446716308594,27.029369354248047
1,917910,-766.1844482421875,-30.928197860717773,-220.9824981689453,-24.675716400146484
1,917911,-92.57190704345703,-80.59954071044922,18.842632293701172,-13.633537292480469
1,917914,431.5033874511719,91.98707580566406,287.4852294921875,-39.58977127075195
1,917915,-208.6790008544922,122.74518585205078,56.60610580444336,-18.531187057495117
1,917918,-42.06133270263672,-151.59744262695312,-144.8212432861328,-11.093299865722656
1,917919,240.1756134033203,-95.54188537597656,38.554893493652344,-8.732458114624023
1,917922,49.42726135253906,107.46204376220703,82.13172149658203,49.82389450073242
1,917923,291.1733703613281,63.27255630493164,-31.194990158081055,10.13863468170166
1,917926,-152.48211669921875,-29.082801818847656,-0.6345977783203125,2.3071088790893555
1,917928,-434.245849609375,-24.68844985961914,1.6172550916671753,16.974645614624023
1,917930,42.66594314575195,-11.492514610290527,-82.96760559082031,-57.936973571777344
1,917932,-503.1019592285156,-52.17151641845703,113.88250732421875,-9.993085861206055
1,917934,21.851089477539062,59.81488800048828,112.88202667236328,42.42186737060547
1,917936,844.2101440429688,115.64644622802734,-236.57122802734375,40.999847412109375
1,917938,-11.188470840454102,-144.8685760498047,-51.99070358276367,15.793766021728516
1,917941,-241.6182861328125,-120.22114562988281,110.63937377929688,-23.666643142700195
1,917941,-7.426050186157227,166.7752227783203,-140.64389038085938,1.074212670326233
1,917944,14.525822639465332,41.04117965698242,-82.23989868164062,-70.37850952148438
1,917945,178.4805908203125,-81.93429565429688,133.14073181152344,-46.42945098876953
1,917948,39.85620880126953,63.12141036987305,177.42649841308594,56.55155944824219
1,917949,25.397249221801758,-18.173173904418945,41.82319641113281,2.500887393951416
1,917952,957.26171875,-103.7812271118164,-66.40918731689453,-1.3265858888626099
1,917953,-23.529598236083984,105.49149322509766,-82.89009857177734,-15.424393653869629
1,917956,-2192.01220703125,71.75426483154297,64.96717071533203,-20.530134201049805
1,917957,-317.0766906738281,-116.93912506103516,150.8863067626953,71.90311431884766
1,917960,1211.078857421875,-29.031169891357422,-34.63810348510742,11.113425254821777
1,917961,-48.561866760253906,71.82374572753906,-149.88351440429688,-16.77671241760254
1,917964,-61.40709686279297,35.75032424926758,-292.71661376953125,56.486331939697266
1,917965,205.64553833007812,-37.83194351196289,-51.41969680786133,-3.032175302505493
1,917968,-15.201166152954102,19.300846099853516,390.8740234375,-102.59014892578125
1,917969,137.2716827392578,-20.01947784423828,113.40330505371094,-24.10839080810547
1,917972,132.4062957763672,-106.69126892089844,-156.15045166015625,75.7141342163086
1,917973,-36.05168151855469,105.47621154785156,-14.361760139465332,12.50108528137207
1,917976,-41.15247344970703,75.3631591796875,-58.61103439331055,27.846330642700195
1,917977,-11.568303108215332,-132.406005859375,-50.70735549926758,-3.323636293411255
1,917980,138.49330139160156,-10.075955390930176,121.14006805419922,-110.70001983642578
1,917981,33.340763092041016,57.55266571044922,50.976070404052734,-11.3316068649292
1,917984,-72.49668884277344,17.151241302490234,4.524126052856445,38.939884185791016
1,917985,-347.3626708984375,26.48989486694336,30.655189514160156,-9.616151809692383
1,917988,-446.24444580078125,9.937618255615234,-68.17552185058594,78.19280242919922
1,917989,884.487548828125,-53.52330017089844,-103.55990600585938,37.20944595336914
1,917992,-187.757080078125,-98.15223693847656,112.61852264404297,-58.365760803222656
1,917993,-1565.830078125,84.99980163574219,106.3070068359375,-27.887475967407227
1,917996,1221.47802734375,94.17453002929688,-273.87542724609375,6.790898323059082
1,917997,1287.6290283203125,-115.66102600097656,-241.27159118652344,36.50522994995117
1,918000,-1346.0062255859375,-18.83942985534668,260.573486328125,-2.842822313308716
1,918001,-661.9732055664062,50.357234954833984,352.89617919921875,4.909895896911621
1,918004,1005.6400146484375,-16.87333106994629,-252.64707946777344,3.5064175128936768
1,918005,408.2244873046875,-2.598339557647705,-230.2391815185547,-60.31980514526367
1,918008,-505.7851257324219,34.555145263671875,256.3277587890625,24.139923095703125
1,918009,60.628440856933594,2.949867010116577,132.3018341064453,-7.467352390289307
1,918012,301.2777099609375,-83.06112670898438,-132.73089599609375,-30.41344451904297
1,918013,-98.39820861816406,17.27691078186035,-72.4110107421875,21.192787170410156
1,918016,-70.16131591796875,117.13150024414062,52.33777618408203,-33.01459884643555
1,918017,764.0231323242188,1.6038562059402466,17.563274383544922,23.824535369873047
1,918020,-267.2265930175781,-115.91756439208984,104.01756286621094,17.21757698059082
1,918021,-1506.2830810546875,-0.2177501767873764,149.93853759765625,53.04821014404297
1,918024,188.3654022216797,89.0195541381836,-162.06326293945312,16.901784896850586
1,918025,325.27728271484375,-42.14079284667969,-336.56475830078125,-65.23625946044922
1,918028,-189.3863067626953,5.375135898590088,-54.463314056396484,73.84172058105469
1,918029,310.80267333984375,0.5899462103843689,178.06439208984375,37.947265625
1,918032,233.24700927734375,-113.61034393310547,145.00193786621094,-115.98212432861328
1,918033,103.77105712890625,85.53103637695312,39.229286193847656,-82.05050659179688
1,918036,-109.5536117553711,98.3439712524414,-93.4887466430664,20.9047908782959
1,918037,-14.960330963134766,-86.6122055053711,-49.50688171386719,88.41942596435547
1,918040,172.9894561767578,-52.94634246826172,87.605224609375,15.067657470703125
1,918041,41.8323974609375,42.64603042602539,25.58534812927246,-97.4931869506836
1,918044,-63.52591323852539,69.47460174560547,-24.05193328857422,14.937256813049316
1,918045,-6.6798601150512695,-10.593975067138672,6.584405899047852,78.76624298095703
1,918048,-3.177259683609009,24.016265869140625,-8.836252212524414,-10.83350944519043
1,918049,-76.79730987548828,-10.517525672912598,-28.05577850341797,-64.49697875976562
1,918052,104.810546875,-107.25021362304688,22.273927688598633,-17.850801467895508
1,918053,100.13111877441406,48.228214263916016,38.34160232543945,56.864681243896484
1,918056,-767.4987182617188,27.038829803466797,-175.1824188232422,66.26041412353516
1,918057,-527.513916015625,-65.05789947509766,-82.84760284423828,18.582902908325195
1,918060,859.6187744140625,-10.010835647583008,224.26498413085938,-44.70695495605469
1,918062,484.9754943847656,15.616850852966309,44.502464294433594,-14.101021766662598
1,918064,-97.6526107788086,73.47520446777344,-81.81232452392578,-0.8853991627693176
1,918066,-107.80126190185547,12.834805488586426,52.98095703125,-67.40087890625
1,918068,-471.0060119628906,-30.61039924621582,90.29540252685547,-5.905706882476807
1,918070,207.74526977539062,-43.22474670410156,-5.301871299743652,80.98458099365234
1,918073,422.335693359375,-49.04976272583008,-184.8070068359375,24.538055419921875
1,918075,54.39945602416992,92.86595153808594,-106.6797866821289,-26.04342269897461
1,918076,289.13641357421875,84.69717407226562,126.66252899169922,-36.73455047607422
1,918077,-280.1959533691406,-44.106483459472656,25.036165237426758,-22.69391632080078
1,918080,-435.1365966796875,-74.1994400024414,41.716033935546875,-0.13906645774841309
1,918081,250.52162170410156,5.050950527191162,47.54318618774414,34.66163635253906
1,918084,-123.2160873413086,28.623552322387695,-115.12769317626953,20.596311569213867
1,918085,-549.5927734375,-71.23961639404297,105.69151306152344,-36.968502044677734
1,918088,-256.14453125,-10.602258682250977,-58.110069274902344,65.16889953613281
1,918089,248.04510498046875,28.25506591796875,-237.28506469726562,46.780235290527344
1,918092,435.4931640625,-30.378026962280273,109.68484497070312,-66.3462905883789
1,918093,84.87407684326172,107.29553985595703,167.975830078125,-13.1773681640625
1,918096,-70.79256439208984,69.21993255615234,75.17095947265625,-35.9818000793457
1,918097,-173.57386779785156,-112.54573059082031,-37.85353088378906,-56.102210998535156
1,918100,262.24102783203125,-39.61940002441406,-111.16188049316406,20.76520347595215
1,918101,491.51837158203125,32.69308090209961,-63.39320373535156,34.39529800415039
1,918104,-194.2205810546875,24.05856704711914,150.577880859375,1.0621798038482666
1,918105,-190.455322265625,4.202010631561279,133.32730102539062,8.750187873840332
1,918108,56.924957275390625,-6.865149021148682,-247.31492614746094,22.04631996154785
1,918109,-30.852375030517578,-6.924635887145996,-48.9780387878418,50.035621643066406
1,918112,-21.059419631958008,-55.14799499511719,145.6982879638672,-32.9738655090332
1,918113,-124.46517181396484,32.90314865112305,-29.990034103393555,-89.79792785644531
1,918116,-162.96096801757812,72.75090026855469,-9.844895362854004,73.59712982177734
1,918117,-84.13380432128906,-51.564674377441406,-42.022239685058594,36.17535400390625
1,918120,110.98905944824219,-53.250160217285156,13.883031845092773,-61.30817413330078
1,918121,197.8412628173828,27.242799758911133,65.59559631347656,7.777482509613037
1,918124,489.4212646484375,55.08110427856445,-11.396829605102539,3.3799054622650146
1,918125,-164.37413024902344,-21.819501876831055,-33.44130325317383,-20.669212341308594
1,918128,-925.5531616210938,-44.06048583984375,96.98959350585938,-18.406749725341797
1,918129,235.99148559570312,8.270919799804688,19.975866317749023,34.41162109375
1,918132,378.124267578125,-44.92081069946289,-307.9707946777344,39.62388610839844
1,918133,-214.34613037109375,15.601266860961914,36.22823715209961,-18.70547103881836
1,918136,-184.04684448242188,126.94432067871094,166.51036071777344,27.97157859802246
1,918137,-12.072389602661133,-1.0831899642944336,-118.6970443725586,56.97101974487305
1,918140,332.8810729980469,-101.5842514038086,132.92874145507812,-38.05830764770508
1,918141,56.9821662902832,8.890427589416504,69.16344451904297,-129.51959228515625
1,918144,34.33506393432617,52.1573486328125,-130.7374725341797,-1.9589641094207764
1,918145,110.03617095947266,-27.979572296142578,56.939056396484375,70.27374267578125
1,918148,-68.31311798095703,-6.337213039398193,10.259204864501953,10.548239707946777
1,918149,-21.192176818847656,-24.4400691986084,-86.63290405273438,36.52777099609375
1,918152,-174.6774444580078,-31.51643180847168,158.28103637695312,-72.51082611083984
1,918153,505.85540771484375,113.42906951904297,158.50367736816406,-77.24607849121094
1,918156,-168.53512573242188,62.724761962890625,-87.56686401367188,36.329246520996094
1,918157,-968.0885620117188,-91.96084594726562,-121.16300201416016,83.41360473632812
1,918160,446.982666015625,-104.21871185302734,-350.21002197265625,60.22065353393555
1,918161,38.18392562866211,8.160406112670898,-221.89877319335938,-28.12203025817871
1,918164,-178.7037811279297,87.44866180419922,465.2470703125,19.601165771484375
1,918165,543.7587890625,-10.761042594909668,278.4355773925781,-1.404731035232544
1,918168,-5.696920871734619,6.7161970138549805,-148.29632568359375,-70.92074584960938
1,918169,-216.5751495361328,21.938140869140625,66.466796875,-0.23540958762168884
1,918172,156.59507751464844,-83.03235626220703,-119.47240447998047,-15.285385131835938
1,918173,155.1996307373047,22.96076202392578,-239.43515014648438,-79.123046875
1,918176,-175.42198181152344,60.27849197387695,162.29281616210938,35.19802474975586
1,918177,-94.56056213378906,-46.61394500732422,181.4593048095703,54.031227111816406
1,918180,250.2509307861328,-10.270469665527344,4.485753536224365,25.852386474609375
1,918181,75.78556060791016,38.5777702331543,-64.03233337402344,53.58641052246094
1,918184,-225.09884643554688,31.48460578918457,-100.29671478271484,-43.18938446044922
1,918185,-126.57060241699219,-28.354896545410156,-2.579085350036621,-56.69460678100586
1,918188,86.81993865966797,-11.140297889709473,-5.867481231689453,-19.15199089050293
1,918189,219.8014373779297,8.640227317810059,4.686803340911865,42.24309158325195
1,918192,-313.45086669921875,-90.27326202392578,49.860313415527344,34.106990814208984
1,918193,-527.7437744140625,30.770736694335938,38.57164001464844,-44.18766784667969
1,918196,498.46063232421875,111.18978118896484,25.394489288330078,9.504138946533203
1,918197,342.0196838378906,-50.21089553833008,-75.55364227294922,31.03551483154297
1,918200,-318.5005798339844,-81.90226745605469,151.07275390625,19.484481811523438
1,918201,375.054443359375,9.40893840789795,12.777738571166992,11.980155944824219
1,918204,258.0529479980469,55.691932678222656,-522.7492065429688,-65.83380126953125
1,918205,-321.66326904296875,14.355148315429688,16.965505599975586,-66.31375885009766
1,918208,-507.29071044921875,39.439849853515625,474.2256774902344,57.73686599731445
1,918209,-596.78564453125,-7.358611583709717,66.81591796875,16.41633415222168
1,918212,146.0831298828125,-139.0406494140625,86.51702880859375,43.801063537597656
1,918213,826.0577392578125,60.24272537231445,-35.14092254638672,140.71522521972656
1,918216,90.73102569580078,95.99095916748047,-637.9026489257812,-112.84899139404297
1,918217,-483.6131896972656,-110.73079681396484,-282.4785461425781,-137.12705993652344
1,918220,223.9404296875,34.71553039550781,738.9093627929688,62.20541000366211
1,918221,275.1252746582031,90.30227661132812,438.23541259765625,-16.386123657226562
1,918224,-163.24392700195312,-49.52558135986328,-384.21240234375,-89.89389038085938
1,918225,225.42306518554688,-20.028491973876953,-138.55340576171875,12.430190086364746
1,918228,39.60600662231445,15.75322437286377,-107.45970153808594,113.953125
1,918229,-475.4522399902344,-62.08008575439453,-157.80703735351562,57.8303108215332
1,918232,78.25531005859375,-70.07412719726562,164.19473266601562,-15.974252700805664
1,918233,244.12881469726562,107.99036407470703,155.38905334472656,-13.975637435913086
1,918236,840.6384887695312,125.10657501220703,65.66704559326172,-63.913665771484375
1,918237,-154.805419921875,-90.6466064453125,-14.07813835144043,-36.32783508300781
1,918240,-2487.713134765625,-130.8192901611328,133.8155517578125,-13.324528694152832
1,918241,86.66458892822266,51.363834381103516,130.36558532714844,45.52408981323242
1,918244,1654.1524658203125,90.41777038574219,-524.0332641601562,105.39102935791016
1,918245,-295.38897705078125,-35.393375396728516,-326.73321533203125,-54.885833740234375
1,918248,89.69744873046875,10.5880708694458,508.16876220703125,-16.737628936767578
1,918249,438.0992431640625,-52.90599060058594,161.52188110351562,50.64080047607422
1,918252,-121.7986068725586,-128.3909912109375,-104.45642852783203,2.216207504272461
1,918253,1.5829625129699707,130.6912841796875,20.13787841796875,-35.050025939941406
1,918256,771.4501953125,130.66424560546875,-103.28345489501953,-129.38165283203125
1,918257,409.0576171875,-126.73955535888672,-52.11713790893555,11.64102840423584
1,918260,-1833.2803955078125,-48.60360336303711,7.337325572967529,166.65933227539062
1,918261,-918.9423217773438,103.4776840209961,212.39366149902344,-16.278791427612305
1,918264,1401.866943359375,-5.55492639541626,109.6673812866211,-147.0996551513672
1,918265,473.50042724609375,-38.01987075805664,-363.6300964355469,24.980344772338867
1,918268,-915.0546264648438,62.36697006225586,-251.17257690429688,160.88784790039062
1,918269,-601.5993041992188,-53.40864562988281,248.0736541748047,-1.6036558151245117
1,918272,787.530029296875,-104.08820343017578,245.85922241210938,-155.7393798828125
1,918273,526.453857421875,104.4774169921875,-93.20790100097656,-16.788917541503906
1,918276,23.86842918395996,71.28544616699219,-128.42039489746094,71.46190643310547
1,918277,-295.1480407714844,-89.1087875366211,108.0775375366211,26.464956283569336
1,918280,-637.6007690429688,-0.17770178616046906,158.66944885253906,1.3450626134872437
1,918281,1282.9276123046875,80.23115539550781,-315.5157165527344,-35.886390686035156
1,918284,796.5349731445312,-1.5193252563476562,-234.27566528320312,-43.260074615478516
1,918285,-2249.8525390625,-51.565208435058594,510.81201171875,2.795576572418213
1,918288,-867.90185546875,10.825427055358887,400.03363037109375,103.9234848022461
1,918289,1943.291015625,-16.30096435546875,-428.3063049316406,83.26870727539062
1,918292,454.6177978515625,-64.4515609741211,-733.4393920898438,-76.56135559082031
1,918293,-1212.064208984375,84.41497039794922,55.62641525268555,-82.3764419555664
1,918296,-489.2281188964844,80.33702087402344,649.5748291015625,33.713623046875
1,918297,707.240234375,-126.37313079833984,324.5743408203125,62.1013069152832
1,918300,700.6444702148438,-99.4595947265625,-178.08291625976562,-43.05544662475586
1,918301,-21.911197662353516,102.24272155761719,-192.2709503173828,-119.00877380371094
1,918304,-64.94598388671875,76.57170867919922,-99.07461547851562,29.717021942138672
1,918305,41.10895919799805,-29.092220306396484,4.853017807006836,63.464599609375
1,918308,-454.87506103515625,47.235862731933594,221.01759338378906,-45.08103561401367
1,918309,-166.3721923828125,-23.305736541748047,-119.42266845703125,30.96422576904297
1,918312,384.9771728515625,-119.8740463256836,-268.7393798828125,20.079572677612305
1,918313,-282.277587890625,59.52696990966797,24.15794563293457,-28.351795196533203
1,918316,-254.9340057373047,56.53913879394531,238.06947326660156,50.246463775634766
1,918317,41.19185256958008,-110.49154663085938,124.64971923828125,89.9306869506836
1,918320,137.97999572753906,-14.18173599243164,-108.54876708984375,-25.201496124267578
1,918321,356.2388610839844,65.40367889404297,-183.6997528076172,-111.56607055664062
1,918324,-246.74765014648438,6.290016174316406,-154.82586669921875,-104.16661834716797
1,918325,-281.4532470703125,-36.212791442871094,217.94728088378906,-54.524723052978516
1,918328,510.0441589355469,52.373085021972656,214.02813720703125,143.11703491210938
1,918329,285.45843505859375,53.900665283203125,-21.691621780395508,91.61890411376953
1,918332,-80.424560546875,-105.96157836914062,34.52626037597656,-98.72142791748047
1,918333,-444.27337646484375,85.289794921875,38.05583953857422,13.955307006835938
1,918336,-685.7611083984375,82.24958801269531,-138.00079345703125,156.4490509033203
1,918337,284.59881591796875,-195.43565368652344,-434.20849609375,61.417030334472656
1,918340,423.65960693359375,3.345383405685425,23.77073860168457,-87.76242065429688
1,918341,186.38449096679688,121.74945831298828,448.3251037597656,-74.93034362792969
1,918344,164.8930206298828,-2.3254048824310303,19.103893280029297,-9.787781715393066
1,918345,-518.25927734375,-18.595277786254883,-144.5277557373047,-27.27812385559082
1,918348,-29.839340209960938,-29.84990119934082,-16.17782211303711,21.040836334228516
1,918349,248.83566284179688,-41.21017837524414,206.65243530273438,31.59153175354004
1,918352,67.24248504638672,-33.66457748413086,-117.69559478759766,-83.13533782958984
1,918353,185.94996643066406,87.84516143798828,-373.0942687988281,-158.54559326171875
1,918356,-434.9022521972656,24.5128173828125,287.7689208984375,41.796852111816406
1,918358,-218.74961853027344,-133.91709899902344,225.46871948242188,214.10621643066406
1,918360,621.6637573242188,75.23872375488281,-136.0270538330078,-21.16670036315918
