Aktueller Finger,timestamp_ms,sensor_0,sensor_1,sensor_2,sensor_3
0,346567,-60.67559051513672,68.6932144165039,70.78438568115234,-20.645198822021484
0,346570,-43.62403869628906,89.7449951171875,86.92963409423828,1.9321653842926025
0,346571,70.67060089111328,-87.01958465576172,-77.71257019042969,16.114717483520508
0,346574,68.28636932373047,-118.06439208984375,-134.72434997558594,7.004526138305664
0,346575,19.3586368560791,-12.799555778503418,-18.66980743408203,9.24858570098877
0,346578,-12.442493438720703,45.37302017211914,45.88349533081055,-7.825606822967529
0,346579,-42.20811080932617,34.392494201660156,10.342216491699219,-23.527936935424805
0,346582,-57.71167755126953,12.821240425109863,37.76081466674805,-3.631044626235962
0,346592,-67.9310531616211,70.94644165039062,141.2723388671875,10.12368392944336
0,346592,-13.746044158935547,41.5616569519043,63.9619026184082,22.929622650146484
0,346593,74.33316040039062,-71.34549713134766,-140.60476684570312,12.46959114074707
0,346593,66.35409545898438,-64.40934753417969,-117.38510131835938,-17.672258377075195
0,346593,17.25247573852539,-32.25938415527344,-2.525482177734375,-5.291685104370117
0,346594,8.49598217010498,-2.448686361312866,8.120716094970703,7.712652683258057
0,346596,-0.4528987407684326,34.27042770385742,15.709332466125488,-14.04444694519043
0,346597,-33.81472396850586,6.185420513153076,4.078137397766113,-20.053142547607422
0,346600,-4.3366265296936035,-1.4216159582138062,9.633028030395508,12.420053482055664
0,346601,13.361547470092773,6.224309921264648,17.443246841430664,23.042760848999023
0,346604,-41.865718841552734,33.4729118347168,21.044857025146484,-8.816075325012207
0,346605,-12.391584396362305,5.8478617668151855,30.262720108032227,-6.436301231384277
0,346608,-0.9637413620948792,-17.726964950561523,14.401934623718262,9.878899574279785
0,346609,-18.239608764648438,37.677188873291016,0.4711107313632965,0.14088836312294006
0,346612,32.97856140136719,-31.617700576782227,-46.18804168701172,-12.233336448669434
0,346613,15.005938529968262,-41.853214263916016,-34.75995635986328,-3.4757442474365234
0,346616,15.18301010131836,22.396799087524414,-4.909165859222412,11.376218795776367
0,346639,22.54267120361328,6.429869651794434,-2.271589517593384,4.390926361083984
0,346639,-34.726287841796875,-3.262096881866455,27.371078491210938,5.0092315673828125
0,346639,0.23037564754486084,-14.67526626586914,5.423609733581543,-8.059741973876953
0,346640,35.09214401245117,-20.601295471191406,-58.92462158203125,-14.175834655761719
0,346640,6.320340633392334,-19.379789352416992,-58.80964660644531,17.61923599243164
0,346640,17.40810203552246,-16.63506317138672,5.429344177246094,1.7032195329666138
0,346640,22.224824905395508,-14.123024940490723,5.148667335510254,-17.212779998779297
0,346640,-19.759029388427734,-1.8469371795654297,2.1582071781158447,13.3279390335083
0,346641,-45.71628189086914,39.95172882080078,57.88459777832031,14.65188217163086
0,346641,-42.53750991821289,64.961181640625,77.34628295898438,-7.325037479400635
0,346641,-13.908842086791992,43.8949089050293,55.81892776489258,-29.60728645324707
0,346641,2.3796534538269043,2.952509880065918,5.864866256713867,-5.984508037567139
0,346642,-18.09300422668457,-25.141468048095703,-7.777804374694824,26.027671813964844
0,346644,-22.152931213378906,20.556840896606445,10.160767555236816,-1.4232784509658813
0,346645,-0.0042375363409519196,25.429489135742188,-3.0707478523254395,-23.40131378173828
0,346648,0.15545552968978882,-5.230661869049072,20.44870376586914,-9.750825881958008
0,346649,7.326845169067383,11.225915908813477,4.624579906463623,19.824636459350586
0,346652,32.96003723144531,-54.969757080078125,-74.1047592163086,15.99993896484375
0,346653,18.484920501708984,-49.65411376953125,-44.378719329833984,11.968708992004395
0,346656,34.61026382446289,-2.7911856174468994,-23.57060432434082,5.11396598815918
0,346657,25.949970245361328,-14.969696998596191,-23.15179443359375,-31.585681915283203
0,346660,-21.069561004638672,20.986398696899414,5.756011962890625,11.114145278930664
0,346661,13.096360206604004,-27.714187622070312,-10.777109146118164,34.88620376586914
0,346664,-9.32031536102295,-4.635582447052002,39.85791778564453,-49.90176010131836
0,346665,-43.505210876464844,70.34748077392578,22.0792236328125,-35.19550323486328
0,346703,67.42632293701172,-84.1258316040039,-93.4538803100586,58.09269332885742
0,346703,72.31981658935547,-76.80780029296875,-62.754173278808594,36.36460876464844
0,346703,-61.08437728881836,89.69844818115234,73.72147369384766,-30.411325454711914
0,346703,-52.359107971191406,52.3600959777832,67.16588592529297,-18.28925132751465
0,346703,-25.120777130126953,9.766526222229004,23.640913009643555,2.8133301734924316
0,346703,-47.92469024658203,26.626853942871094,57.46650695800781,1.8625903129577637
0,346704,-11.876145362854004,16.40550994873047,12.030316352844238,6.375191688537598
0,346704,26.074594497680664,-7.172553062438965,-24.8867130279541,-2.6650259494781494
0,346704,36.03585433959961,-22.05974006652832,-29.325458526611328,-7.307251930236816
0,346704,10.680688858032227,-38.1147575378418,-30.766155242919922,9.95112419128418
0,346704,-3.7691612243652344,-16.9884090423584,-0.5302185416221619,14.054386138916016
0,346704,9.981061935424805,20.647294998168945,-6.844339370727539,-26.436243057250977
0,346705,7.710747241973877,15.723670959472656,7.412557125091553,-13.418644905090332
0,346705,-26.1103572845459,2.8724780082702637,32.84812545776367,22.932140350341797
0,346705,-31.382118225097656,-0.9430916905403137,9.299308776855469,-8.808209419250488
0,346705,1.5149307250976562,2.809957981109619,11.024431228637695,-5.534405708312988
0,346705,4.282650947570801,4.449417591094971,8.120660781860352,9.014870643615723
0,346705,14.855360984802246,8.180328369140625,-34.21868896484375,-8.349919319152832
0,346707,-0.3057507276535034,14.620414733886719,1.3811736106872559,1.1207778453826904
0,346707,-31.66238784790039,-0.2026272714138031,31.187082290649414,2.873406171798706
0,346708,18.745389938354492,-32.16688537597656,-42.33753967285156,5.437388896942139
0,346710,18.365514755249023,-15.071640968322754,-19.204416275024414,-0.02752811089158058
0,346711,-9.973634719848633,6.356269359588623,25.265216827392578,-11.627806663513184
0,346714,55.764644622802734,-23.419681549072266,-68.35823059082031,-1.7568567991256714
0,346715,30.631385803222656,-33.262054443359375,-36.48713302612305,6.036055564880371
0,346718,-5.703420162200928,-14.733543395996094,13.313511848449707,4.771420955657959
0,346719,23.125810623168945,-9.646822929382324,-42.376197814941406,14.597749710083008
0,346722,-10.603169441223145,21.068614959716797,26.86754035949707,22.61270523071289
0,346723,-13.76097297668457,34.44412612915039,28.273944854736328,-17.163105010986328
0,346726,-44.91212463378906,34.13760757446289,49.98093795776367,-13.531822204589844
0,346727,-57.86005783081055,27.057559967041016,94.51599884033203,1.8516550064086914
0,346730,-2.3727118968963623,12.274383544921875,-11.42016887664795,-21.22631072998047
0,346731,7.639923095703125,0.2721703052520752,-19.48752212524414,20.42540740966797
0,346734,49.01183319091797,-62.188133239746094,-57.23988342285156,20.175460815429688
0,346783,56.051422119140625,-18.158735275268555,-64.89520263671875,-31.942861557006836
0,346783,-28.091285705566406,56.24076461791992,64.68425750732422,-0.35369786620140076
0,346783,-38.37711715698242,14.073070526123047,50.64814758300781,19.415302276611328
0,346783,7.618035793304443,-20.750062942504883,-39.642635345458984,-22.612049102783203
0,346784,22.623287200927734,-42.05248260498047,-55.96642303466797,-12.609979629516602
0,346784,30.944063186645508,-43.59553909301758,-34.23177719116211,27.525854110717773
0,346784,-5.534237861633301,8.975110054016113,-1.1120762825012207,9.751429557800293
0,346784,-34.115325927734375,17.386728286743164,30.29320526123047,-5.681203365325928
0,346784,-7.5530219078063965,9.341367721557617,35.65230178833008,4.709496021270752
0,346785,-22.789567947387695,31.087160110473633,22.41707992553711,-22.570711135864258
0,346785,-41.405643463134766,22.14861488342285,25.16975212097168,-20.496063232421875
0,346785,-8.243244171142578,10.771533012390137,25.062850952148438,31.960094451904297
0,346785,-2.03310489654541,13.540858268737793,12.570667266845703,9.494601249694824
0,346785,13.781217575073242,-11.762580871582031,-8.333807945251465,-14.959733963012695
0,346785,42.02242660522461,-20.879243850708008,-37.780189514160156,-5.111257553100586
0,346786,11.038861274719238,-15.807597160339355,-27.573482513427734,-1.668963074684143
0,346786,0.20288234949111938,-15.002395629882812,-0.9562051892280579,26.066740036010742
0,346786,16.163972854614258,5.811297416687012,-5.973092079162598,0.030609365552663803
0,346786,-9.668296813964844,-1.0074329376220703,4.622745513916016,-18.72840118408203
0,346786,-26.11109733581543,16.932275772094727,34.007789611816406,8.023303985595703
0,346786,-8.304269790649414,29.43111801147461,40.04595947265625,13.176414489746094
0,346787,2.022430896759033,0.8045194149017334,15.519868850708008,0.8228216171264648
0,346787,6.877195835113525,-5.004563808441162,-15.84979248046875,-18.480756759643555
0,346787,3.2760512828826904,-6.408956527709961,-20.648805618286133,-3.614450693130493
0,346787,3.426393508911133,-25.793848037719727,-29.02271842956543,16.78458595275879
0,346788,14.12468147277832,-27.936872482299805,-35.29341506958008,13.69681167602539
0,346789,2.5623486042022705,13.013697624206543,-19.376346588134766,-3.462080240249634
0,346790,-6.179426670074463,30.379932403564453,30.135334014892578,-30.442642211914062
0,346791,17.47671890258789,-24.400970458984375,4.981051921844482,-20.149063110351562
0,346794,27.389236450195312,-42.21620559692383,-91.21063995361328,-32.75630569458008
0,346795,4.996282577514648,14.9922513961792,-45.05813980102539,-23.690704345703125
0,346798,21.113290786743164,-2.0219337940216064,21.998388290405273,66.95227813720703
0,346799,13.431816101074219,-51.696983337402344,-10.659064292907715,50.36561965942383
0,346802,-29.39830780029297,0.9419780969619751,25.119384765625,-19.025251388549805
0,346803,-25.121604919433594,59.7425537109375,73.81796264648438,-26.9993896484375
0,346806,-55.069149017333984,64.41034698486328,71.16522216796875,-2.3983240127563477
0,346807,-29.00489616394043,30.836584091186523,46.31159973144531,20.88268280029297
0,346810,31.9007568359375,5.324156761169434,-7.208132266998291,-5.324641704559326
0,346811,-0.034395672380924225,-22.8974666595459,-17.354434967041016,4.157054424285889
0,346814,12.909350395202637,-70.10877227783203,-62.83232879638672,15.859421730041504
0,346815,35.00251388549805,-10.722725868225098,-41.3668212890625,-2.1729235649108887
0,346877,-3.741896629333496,1.0560564994812012,8.908075332641602,-1.2535332441329956
0,346877,-15.410027503967285,-24.100263595581055,-11.175361633300781,-17.083995819091797
0,346878,-1.0949985980987549,34.2094612121582,12.893585205078125,-8.850272178649902
0,346878,23.152320861816406,4.62675666809082,-17.82652473449707,12.77158260345459
0,346878,43.84718322753906,-37.178619384765625,-40.65446853637695,-5.927151203155518
0,346878,23.121328353881836,-13.898369789123535,0.3468828797340393,-13.780326843261719
0,346878,-28.665369033813477,12.187765121459961,17.97063636779785,1.854802131652832
0,346879,-42.660526275634766,37.56409454345703,24.08732795715332,6.183454513549805
0,346879,-17.94563865661621,44.03923416137695,30.07426643371582,-14.393771171569824
0,346879,-22.902687072753906,21.817384719848633,9.42365837097168,-12.958474159240723
0,346879,-27.17729949951172,-7.6546735763549805,45.08659744262695,30.52078628540039
0,346879,13.874231338500977,14.12934398651123,48.91645812988281,-2.479163408279419
0,346879,31.151124954223633,12.638060569763184,-41.794952392578125,-23.13800621032715
0,346879,2.590384006500244,-54.077701568603516,-54.096797943115234,21.95697021484375
0,346880,6.749731540679932,-29.51000213623047,-33.503700256347656,-6.795003414154053
0,346880,21.60904884338379,6.748144149780273,-6.218153476715088,-7.516209602355957
0,346880,5.576543807983398,-7.553221225738525,31.650527954101562,41.47565841674805
0,346880,-8.04769515991211,9.004905700683594,18.263526916503906,8.78575325012207
0,346880,-19.79707145690918,1.1057374477386475,-0.0562485009431839,-13.790925025939941
0,346881,-21.975563049316406,22.9080867767334,16.084732055664062,9.16395378112793
0,346881,-2.338674306869507,31.406850814819336,22.297077178955078,3.4373111724853516
0,346881,1.233019232749939,-18.810287475585938,-0.7124722003936768,-12.622445106506348
0,346881,-7.7754693031311035,-16.689298629760742,-20.135042190551758,-11.673565864562988
0,346881,9.188878059387207,-11.857348442077637,-13.200303077697754,9.393808364868164
0,346881,18.642000198364258,-31.366901397705078,-20.270225524902344,-11.71243953704834
0,346882,-1.7662023305892944,-13.566337585449219,-14.76445484161377,6.351507186889648
0,346882,-8.01093578338623,11.337907791137695,11.595251083374023,33.20341110229492
0,346882,-4.914005756378174,10.429673194885254,6.389501571655273,-14.406179428100586
0,346882,2.0036470890045166,-10.796651840209961,-5.003489971160889,-18.88426971435547
0,346882,-1.3441379070281982,2.6092679500579834,6.359315872192383,-6.665623188018799
0,346882,-13.265585899353027,28.4370174407959,26.420473098754883,6.699656963348389
0,346884,-24.30636215209961,22.905277252197266,41.32990646362305,13.336860656738281
0,346884,-20.79973602294922,27.852928161621094,34.79117202758789,-17.34930419921875
0,346884,30.910667419433594,-5.448051452636719,-40.3068733215332,-16.8113956451416
0,346886,8.984025001525879,-6.777967929840088,-37.504390716552734,-6.884594440460205
0,346887,-55.576148986816406,36.51655197143555,44.09377670288086,2.184821605682373
0,346890,-5.144402027130127,10.816092491149902,47.22663879394531,11.097932815551758
0,346891,71.3173828125,-24.755346298217773,-19.696651458740234,16.499061584472656
0,346894,33.47850799560547,-60.51376724243164,-101.0242919921875,-5.822005271911621
0,346895,-18.148836135864258,-26.458093643188477,-57.310848236083984,-77.68276977539062
0,346898,50.83279800415039,3.4864516258239746,9.50417423248291,27.273862838745117
0,346899,49.972190856933594,-46.21553421020508,-20.475305557250977,110.59871673583984
0,346902,-40.40170669555664,-13.632430076599121,-14.72419548034668,-39.38974380493164
0,346903,-21.865520477294922,29.420480728149414,24.800662994384766,-49.39405059814453
0,346906,-31.915586471557617,64.82532501220703,74.84211730957031,24.459552764892578
0,346907,-47.47908020019531,51.203731536865234,71.6395263671875,-4.435301780700684
0,346910,5.15967321395874,-12.61507511138916,11.752388954162598,5.599563121795654
0,346911,2.8404860496520996,-25.918128967285156,-47.888084411621094,8.03650951385498
0,346914,35.094322204589844,-27.56616973876953,-76.806884765625,-9.773322105407715
0,346915,45.160423278808594,-3.860265016555786,-2.289482355117798,4.329631805419922
0,346989,-93.45036315917969,62.76720428466797,135.26821899414062,-8.92844295501709
0,346989,-109.12584686279297,56.28537368774414,93.4022216796875,7.990514755249023
0,346989,66.5989761352539,-50.82643127441406,-100.9775161743164,0.582513153553009
0,346989,88.745361328125,-47.920780181884766,-77.2735595703125,-17.990549087524414
0,346989,13.946305274963379,-22.835599899291992,-9.194863319396973,12.135464668273926
0,346990,13.346055030822754,-22.27396011352539,-35.1831169128418,6.53290319442749
0,346990,10.656046867370605,12.775282859802246,4.7499799728393555,7.136969566345215
0,346990,-8.536406517028809,-0.1500149369239807,12.425314903259277,-7.499914646148682
0,346990,-13.567301750183105,17.10150146484375,-13.142294883728027,-15.484569549560547
0,346990,-11.88042163848877,18.451171875,22.920061111450195,27.59859275817871
0,346991,-12.780637741088867,-9.086044311523438,32.58197021484375,11.685320854187012
0,346991,-0.8593087196350098,9.73291015625,-20.22916030883789,-29.257898330688477
0,346991,18.066686630249023,-2.744688034057617,-41.82792663574219,-20.010351181030273
0,346991,18.075075149536133,-49.16446304321289,-10.4099702835083,16.129140853881836
0,346991,5.395717620849609,-21.386276245117188,2.937772750854492,20.212608337402344
0,346991,0.7713223695755005,27.884904861450195,-15.02744197845459,-6.933592796325684
0,346992,0.3341315686702728,14.017731666564941,14.533258438110352,-15.457592010498047
0,346992,-5.053854942321777,-1.385559320449829,16.30840301513672,-8.227800369262695
0,346992,-10.873116493225098,16.700687408447266,13.801285743713379,17.227685928344727
0,346992,0.6396992802619934,24.698862075805664,35.010948181152344,12.756989479064941
0,346992,-11.354581832885742,-15.846115112304688,-16.597822189331055,-6.0984272956848145
0,346992,-16.744909286499023,-20.97117042541504,-11.150618553161621,2.68184494972229
0,346993,21.076366424560547,13.332826614379883,2.94439697265625,-8.997456550598145
0,346993,24.71584701538086,-4.034334659576416,-44.77801513671875,-12.061986923217773
0,346993,-8.688506126403809,-6.586922645568848,-19.235387802124023,21.34000015258789
0,346993,-7.2433648109436035,13.671470642089844,8.822710990905762,-11.676223754882812
0,346993,0.1825384795665741,-34.24362564086914,-0.9422362446784973,-22.860090255737305
0,346993,-17.623533248901367,-32.74235916137695,12.928542137145996,19.431493759155273
0,346994,5.310966968536377,28.59166145324707,0.46207526326179504,-17.104719161987305
0,346994,15.208320617675781,10.722719192504883,-1.7321876287460327,3.9749915599823
0,346994,-22.875965118408203,9.0472412109375,25.578393936157227,29.62470245361328
0,346994,-7.4364142417907715,24.910764694213867,-5.145021915435791,-37.86443328857422
0,346994,14.905082702636719,-19.470783233642578,-8.718843460083008,-7.0610880851745605
0,346994,-9.92652702331543,-28.52178192138672,12.976016998291016,32.980079650878906
0,346995,-7.669262409210205,2.8899271488189697,-1.5228203535079956,0.8102741241455078
0,346995,14.752974510192871,5.616358757019043,18.386669158935547,-3.712104320526123
0,346995,1.920648455619812,20.073925018310547,18.867918014526367,2.210247039794922
0,346996,7.463463306427002,13.325180053710938,-13.04254150390625,30.027023315429688
0,346996,23.376575469970703,-17.7913761138916,2.7866787910461426,21.792390823364258
0,346997,-8.17265510559082,17.7860050201416,14.58553409576416,-41.73551940917969
0,346998,-5.2679057121276855,34.82991409301758,23.8712158203125,-14.695646286010742
0,346999,10.97913932800293,-19.872615814208984,-16.378707885742188,35.956077575683594
0,347002,-7.3357648849487305,-47.92457962036133,-47.403709411621094,3.931483507156372
0,347003,-41.170928955078125,6.483057975769043,49.97333908081055,-22.449546813964844
0,347006,-36.5072021484375,124.76752471923828,111.90418243408203,-33.45318603515625
0,347007,-22.577880859375,38.96579360961914,30.895334243774414,3.6902084350585938
0,347010,-13.747241973876953,-97.96475982666016,-65.86958312988281,33.42265701293945
0,347011,30.0267276763916,18.460071563720703,-56.7503547668457,-12.838541030883789
0,347014,43.571685791015625,-34.47824478149414,-64.84027862548828,-6.429818630218506
0,347015,36.4161376953125,-111.86471557617188,-55.25685501098633,8.028067588806152
0,347018,11.995384216308594,9.958122253417969,6.095848083496094,-1.496264934539795
0,347019,14.737189292907715,15.530887603759766,-0.46334049105644226,15.502018928527832
0,347022,-1.1376019716262817,-22.41059112548828,-42.494117736816406,-45.66837692260742
0,347023,-42.695594787597656,31.87539291381836,20.2869815826416,-55.30189514160156
0,347026,-30.616287231445312,134.75863647460938,172.5269317626953,97.89588165283203
0,347027,-10.895438194274902,24.34769058227539,38.97113800048828,61.710044860839844
0,347030,15.703272819519043,-115.23599243164062,-121.05769348144531,-76.72164916992188
0,347031,28.453636169433594,3.85599684715271,19.064905166625977,-8.689471244812012
0,347118,41.06795883178711,-35.1829833984375,-62.9351806640625,8.918220520019531
0,347118,23.84612464904785,-59.59553527832031,-103.10517883300781,-25.188318252563477
0,347118,-39.73551559448242,79.20537567138672,94.95465087890625,5.0312395095825195
0,347118,-26.729223251342773,20.5262393951416,58.92619705200195,12.012784004211426
0,347119,10.82808780670166,-15.88809871673584,-23.619335174560547,-4.007122993469238
0,347119,16.676746368408203,-1.9484889507293701,-50.51966857910156,-7.325836658477783
0,347119,25.96117401123047,-64.1213607788086,-54.19083023071289,15.815115928649902
0,347119,13.134117126464844,-26.054763793945312,8.191610336303711,6.140392303466797
0,347119,-15.256625175476074,54.22871017456055,27.618621826171875,-4.630646228790283
0,347119,-35.52153778076172,32.68956756591797,22.18128204345703,-2.2645184993743896
0,347120,-37.2940673828125,11.121522903442383,53.481502532958984,0.144410640001297
0,347120,-29.989124298095703,48.277748107910156,49.08449172973633,4.889504432678223
0,347120,-7.55853796005249,37.666988372802734,13.473220825195312,-2.619144916534424
0,347120,5.043909072875977,-17.843860626220703,0.601860761642456,4.422689437866211
0,347120,16.56937599182129,-30.815065383911133,-13.484102249145508,-2.4800384044647217
0,347121,46.48342514038086,-28.779945373535156,-28.73972511291504,6.0477752685546875
0,347121,18.62616539001465,-24.902822494506836,-19.73586654663086,23.45749855041504
0,347121,-2.4270458221435547,-4.669495105743408,-6.668300628662109,-12.307555198669434
0,347121,5.106813907623291,12.359846115112305,3.816972255706787,-8.485122680664062
0,347121,-19.031383514404297,20.59737205505371,44.48936462402344,11.11526107788086
0,347121,-24.810827255249023,5.289793968200684,23.37115478515625,-18.348905563354492
0,347122,-1.2354758977890015,6.21115255355835,11.699874877929688,-17.311227798461914
0,347122,5.155319690704346,20.680919647216797,19.030244827270508,17.300132751464844
0,347122,-26.88718032836914,-4.34053897857666,-22.684720993041992,36.353614807128906
0,347122,-10.564847946166992,-17.247102737426758,-28.456472396850586,-9.909591674804688
0,347122,28.041292190551758,-3.495920419692993,-31.075576782226562,-49.02370071411133
0,347122,29.419227600097656,-17.138721466064453,-30.481412887573242,12.964410781860352
0,347123,13.599120140075684,-3.579123020172119,-7.459047794342041,17.353679656982422
0,347123,-33.34610366821289,10.879786491394043,3.1815319061279297,-19.671375274658203
0,347123,-29.80500030517578,0.18899884819984436,12.409317970275879,20.646961212158203
0,347123,7.048458576202393,15.298661231994629,24.155811309814453,5.609035968780518
0,347123,4.813215732574463,17.39585304260254,15.89060115814209,-28.646202087402344
0,347123,-2.2195723056793213,-12.718687057495117,14.305535316467285,9.979756355285645
0,347124,-16.74454116821289,-4.774451732635498,-0.8357916474342346,22.5290584564209
0,347124,9.034310340881348,24.177528381347656,-30.694488525390625,-28.775981903076172
0,347124,23.376325607299805,-12.43264102935791,-11.931619644165039,-2.4298489093780518
0,347124,-2.5064713954925537,-24.334213256835938,8.409929275512695,29.431987762451172
0,347124,29.03053092956543,-14.013708114624023,-17.628868103027344,-19.945140838623047
0,347124,2.1345410346984863,5.9362664222717285,-1.4418379068374634,-5.937391757965088
0,347125,-40.40800094604492,19.562463760375977,33.708839416503906,-0.6556236147880554
0,347125,2.2278473377227783,-19.970951080322266,-1.6957989931106567,-3.516453504562378
0,347125,1.61399507522583,-1.707821249961853,11.065242767333984,15.904597282409668
0,347125,-9.865155220031738,19.943180084228516,30.538055419921875,0.490487277507782
0,347126,-18.37317657470703,26.814062118530273,0.5782386660575867,-10.149422645568848
0,347126,-20.948701858520508,-0.22936062514781952,-16.19338607788086,-5.0351715087890625
0,347127,27.606645584106445,-54.519447326660156,-35.141117095947266,-2.858844757080078
0,347127,20.528827667236328,6.305999755859375,-1.7889984846115112,-12.62671947479248
0,347128,-13.72506046295166,31.09221076965332,48.284393310546875,11.14234447479248
0,347129,-6.005224704742432,-20.49551773071289,7.550739765167236,26.69753074645996
0,347132,35.91278076171875,10.596403121948242,-63.8642463684082,-14.667365074157715
0,347133,50.49631881713867,-7.199285984039307,-55.59535598754883,2.886538505554199
0,347136,42.02774429321289,-78.77326965332031,-51.963768005371094,35.41090393066406
0,347137,29.291269302368164,-22.174217224121094,-17.23094940185547,-9.506494522094727
0,347140,-44.4499397277832,5.828220844268799,7.184231281280518,19.960702896118164
0,347141,-19.206649780273438,21.272415161132812,14.46214771270752,6.807003021240234
0,347144,3.3732495307922363,84.3515853881836,111.97682189941406,-87.28569030761719
0,347146,-76.19984436035156,52.65102767944336,67.66951751708984,-31.581806182861328
0,347147,-51.7457160949707,-24.33563995361328,-17.070283889770508,43.11962127685547
0,347233,21.245086669921875,-64.24422454833984,-41.231502532958984,21.752174377441406
0,347233,28.35347557067871,10.131282806396484,-38.229129791259766,-20.27297019958496
0,347233,0.5659216046333313,47.047489166259766,37.22377395629883,-12.28194522857666
0,347233,0.6815069913864136,-15.589157104492188,20.98040771484375,16.754899978637695
0,347233,-4.0885419845581055,-21.07185935974121,-5.8124213218688965,12.288236618041992
0,347234,-12.458879470825195,16.655595779418945,25.45546531677246,13.778802871704102
0,347234,25.821002960205078,12.254895210266113,-17.218660354614258,3.3498876094818115
0,347234,42.14834213256836,-42.09638214111328,-63.826908111572266,-9.3217191696167
0,347234,11.62669849395752,-50.2604866027832,-11.33327579498291,5.1260809898376465
0,347234,-6.6108856201171875,6.253366470336914,-7.178763389587402,6.080276012420654
0,347234,-9.345149040222168,24.568111419677734,-27.85291862487793,10.179605484008789
0,347235,-13.841904640197754,3.133516550064087,42.82002258300781,8.404275894165039
0,347235,-22.811208724975586,23.320077896118164,33.67378616333008,-25.37830924987793
0,347235,-15.659042358398438,16.698497772216797,-11.692041397094727,-21.28680992126465
0,347235,22.70476722717285,-12.28572940826416,9.719461441040039,-1.2292667627334595
0,347235,22.54434585571289,-3.65849232673645,0.43740522861480713,6.9912800788879395
0,347235,-15.850667953491211,-4.7167205810546875,-12.203909873962402,14.985265731811523
0,347236,12.986295700073242,-3.3631577491760254,-13.993650436401367,1.5639357566833496
0,347236,30.093406677246094,-6.751326560974121,-23.165451049804688,2.788156032562256
0,347236,-10.793456077575684,-4.801575183868408,-6.785143852233887,-0.8456586003303528
0,347236,-4.069807052612305,-10.663421630859375,21.636432647705078,-1.270148754119873
0,347236,-18.00181770324707,1.7741190195083618,24.260066986083984,15.663370132446289
0,347236,-24.76871109008789,39.78365707397461,5.381443977355957,-15.64401912689209
0,347237,0.10230473428964615,14.03070068359375,2.9624087810516357,-35.51047897338867
0,347237,-4.628687381744385,-5.5904130935668945,3.1307432651519775,6.809988975524902
0,347237,1.925122618675232,-21.958749771118164,-6.168060302734375,11.438441276550293
0,347237,10.872978210449219,-4.849930763244629,4.44533634185791,1.0042767524719238
0,347237,-3.226655960083008,18.18517303466797,0.514866054058075,17.416662216186523
0,347237,-17.00571632385254,-24.534269332885742,-5.7131500244140625,-4.3078718185424805
0,347238,31.508317947387695,18.710960388183594,3.4752132892608643,-19.86907196044922
0,347238,24.768098831176758,22.6920166015625,-6.490383148193359,3.538949966430664
0,347238,-34.48854064941406,-32.15285873413086,-1.3863022327423096,12.260725021362305
0,347238,-7.032980918884277,-16.13746452331543,8.210381507873535,2.535045623779297
0,347238,5.818660259246826,25.967655181884766,9.994020462036133,-0.8988117575645447
0,347239,-3.7441599369049072,19.536977767944336,-4.725434303283691,-20.688446044921875
0,347239,-9.100459098815918,-24.736618041992188,-14.414080619812012,0.8414410352706909
0,347239,-3.7817142009735107,-1.1345152854919434,-0.8813161849975586,35.948974609375
0,347239,6.885897636413574,2.115096092224121,-0.7810814380645752,-12.99015998840332
0,347239,8.033721923828125,-3.8221683502197266,1.8570137023925781,-9.420042037963867
0,347239,19.666475296020508,-3.349167585372925,-11.457460403442383,26.631990432739258
0,347240,-14.324456214904785,-19.85427474975586,-17.293684005737305,-13.261035919189453
0,347240,-16.4257869720459,9.21981430053711,11.283380508422852,-12.97449016571045
0,347241,9.196022987365723,21.476409912109375,39.09105682373047,17.115339279174805
0,347241,-2.5610859394073486,-2.3747353553771973,13.799765586853027,4.400857925415039
0,347241,-2.8302059173583984,3.3338377475738525,-29.133825302124023,-31.600217819213867
0,347242,0.3385310471057892,14.871275901794434,-2.4052226543426514,-14.040482521057129
0,347242,14.15062427520752,1.5311670303344727,25.520246505737305,34.78754806518555
0,347243,-23.585405349731445,12.115918159484863,18.67057228088379,-6.39128303527832
0,347246,-84.83018493652344,38.03733825683594,50.585960388183594,-21.399261474609375
0,347247,-14.261658668518066,32.3380126953125,69.10440063476562,10.66084098815918
0,347250,66.8159408569336,14.62188720703125,-11.577592849731445,-1.809262752532959
0,347251,15.850371360778809,-43.9625358581543,-90.01699829101562,9.070033073425293
0,347254,1.2681326866149902,-118.35646057128906,-91.80715942382812,36.58164978027344
0,347255,51.622779846191406,-11.430108070373535,-14.16187572479248,0.304656445980072
0,347258,30.38092041015625,35.8212890625,-6.6645612716674805,-51.61453628540039
0,347259,13.007413864135742,-48.49547576904297,-41.68165969848633,3.784864664077759
0,347262,-2.773491859436035,-2.780264139175415,9.0492525100708,36.62877655029297
0,347263,-24.302507400512695,46.5533561706543,36.641597747802734,-16.289255142211914
0,347266,-40.5632438659668,66.0421371459961,84.606689453125,-19.19367027282715
0,347267,-58.525291442871094,-4.759253978729248,46.989261627197266,-2.6782188415527344
0,347270,7.069392204284668,-39.127540588378906,-41.039939880371094,-1.2569408416748047
0,347271,43.3403434753418,28.1273193359375,-33.83915328979492,-9.820369720458984
0,347274,42.47367858886719,-10.420809745788574,-29.335725784301758,-0.7338569164276123
0,347275,22.85460090637207,-26.94976234436035,11.534152030944824,19.1766357421875
0,347278,-37.05611038208008,-16.59068489074707,7.762101173400879,20.310060501098633
0,347375,-29.02005958557129,20.536968231201172,7.159783840179443,11.622714042663574
0,347375,6.342569828033447,44.711097717285156,28.586862564086914,-8.232028007507324
0,347375,33.48233413696289,-43.276729583740234,-56.35683822631836,-5.489063262939453
0,347375,40.61239242553711,-59.29950714111328,-57.06496810913086,-13.015236854553223
0,347375,11.733602523803711,-9.523009300231934,-13.917150497436523,-4.607940196990967
0,347376,-19.12650489807129,23.249055862426758,9.979097366333008,19.867416381835938
0,347376,-32.09885787963867,28.629671096801758,49.09625244140625,-5.745833396911621
0,347376,-24.334680557250977,18.710466384887695,45.08871841430664,-14.488924980163574
0,347376,-27.332778930664062,19.441434860229492,14.570005416870117,-0.599998414516449
0,347376,-7.61876106262207,13.195918083190918,11.688098907470703,-2.2256457805633545
0,347376,13.681900978088379,-13.340836524963379,13.329113006591797,-4.948393821716309
0,347377,2.2239956855773926,-17.693994522094727,-31.747787475585938,22.076332092285156
0,347377,27.544124603271484,3.510683536529541,-34.11871337890625,18.95183563232422
0,347377,10.057525634765625,-19.881803512573242,-9.910983085632324,-22.844804763793945
0,347377,-6.222774982452393,-30.073076248168945,-22.08415412902832,-18.268898010253906
0,347377,11.112980842590332,10.070207595825195,-8.799477577209473,8.896927833557129
0,347378,-15.00439453125,41.120849609375,42.651123046875,18.861242294311523
0,347378,-11.198551177978516,26.982131958007812,22.347126007080078,-15.942025184631348
0,347378,-13.624284744262695,1.7210164070129395,-12.304508209228516,-6.891218662261963
0,347378,-14.499818801879883,-12.347696304321289,23.197145462036133,15.303020477294922
0,347378,12.365910530090332,-9.167747497558594,14.875528335571289,-9.431209564208984
0,347378,14.017144203186035,-7.6146159172058105,-29.98004913330078,2.569594621658325
0,347379,0.10065250098705292,-9.820646286010742,-15.778135299682617,1.6166654825210571
0,347379,5.235678672790527,-5.293169021606445,15.104632377624512,-4.008951187133789
0,347379,10.990945816040039,1.555537462234497,-9.032002449035645,5.7744011878967285
0,347379,6.713620185852051,18.19361114501953,-17.20353889465332,-4.837889671325684
0,347379,4.97794246673584,-9.675447463989258,7.915665149688721,-12.045616149902344
0,347379,-13.710442543029785,-19.186891555786133,0.8249741196632385,12.122835159301758
0,347380,-26.95552635192871,24.529146194458008,24.67420196533203,17.35102081298828
0,347380,-7.833428382873535,22.541044235229492,24.630653381347656,-23.434118270874023
0,347380,16.539939880371094,1.8475909233093262,-24.879667282104492,-22.996980667114258
0,347380,6.3077497482299805,-18.743587493896484,-13.813009262084961,24.103099822998047
0,347380,-0.8589673042297363,-38.15552520751953,2.0329675674438477,21.027925491333008
0,347381,1.6796153783798218,4.292883396148682,-18.103944778442383,-7.551416397094727
0,347381,0.2047291100025177,17.108369827270508,-5.285091876983643,5.065419673919678
0,347381,8.488707542419434,1.0909935235977173,14.539214134216309,0.528649091720581
0,347381,-13.217120170593262,24.475496292114258,9.205619812011719,-16.140119552612305
0,347381,-18.918764114379883,0.8924477100372314,15.278762817382812,-4.440291881561279
0,347381,10.026982307434082,-9.948113441467285,4.332127094268799,9.287168502807617
0,347382,5.621002674102783,3.3459067344665527,-11.666852951049805,12.815285682678223
0,347382,-14.884714126586914,3.2678818702697754,4.8183393478393555,3.0097057819366455
0,347382,0.1407204270362854,19.55992317199707,6.821020603179932,-12.445076942443848
0,347382,18.775611877441406,-18.844730377197266,-14.742015838623047,-8.127041816711426
0,347382,5.142905235290527,-34.49662399291992,-10.36485481262207,10.936100006103516
0,347382,0.8770709037780762,24.801708221435547,14.59017562866211,-0.02592799812555313
0,347383,-0.07314207404851913,23.783388137817383,18.43443489074707,-4.244902610778809
0,347383,-15.276081085205078,-4.646575450897217,3.0380332469940186,-2.6970677375793457
0,347383,0.7804140448570251,-2.1319265365600586,-8.62551498413086,-11.3289794921875
0,347384,-15.929582595825195,-0.856088399887085,14.98713493347168,17.35900115966797
0,347384,-30.469078063964844,19.122425079345703,29.01751708984375,14.234779357910156
0,347384,25.80207633972168,13.72618579864502,-17.72890281677246,-23.72149085998535
0,347385,22.58472442626953,-21.244951248168945,-17.110538482666016,-14.017032623291016
0,347385,-6.0718584060668945,-16.759601593017578,16.94611930847168,10.223429679870605
0,347386,-30.618358612060547,5.027644157409668,9.514162063598633,8.887801170349121
0,347387,-39.19917678833008,26.8718318939209,6.243260860443115,-10.051565170288086
0,347390,14.421584129333496,-2.9118854999542236,10.370963096618652,-5.224377155303955
0,347392,62.74568176269531,-51.95942306518555,-46.411556243896484,18.574508666992188
0,347393,44.05997085571289,-32.97169494628906,-88.87950134277344,-5.937061309814453
0,347396,16.112323760986328,-47.39547348022461,-29.508922576904297,-4.734031677246094
0,347397,26.625789642333984,-9.259739875793457,-2.303410053253174,13.1968355178833
0,347400,11.724451065063477,52.05192184448242,-15.838753700256348,-10.903361320495605
0,347401,-16.473581314086914,1.919113278388977,25.810523986816406,-4.007325172424316
0,347404,-59.62894821166992,16.3861141204834,67.6220932006836,6.008752822875977
0,347405,-50.385135650634766,42.07695007324219,34.74690246582031,6.362268447875977
0,347408,-15.634403228759766,45.565181732177734,55.23198318481445,3.4203953742980957
0,347409,-18.504432678222656,33.05852127075195,43.01273727416992,-2.963555335998535
0,347412,33.94646072387695,-52.26862716674805,-89.35413360595703,1.1169365644454956
0,347413,61.90165710449219,-60.30376434326172,-56.03446960449219,1.14812433719635
0,347416,21.8691349029541,-10.290861129760742,7.988767623901367,4.839776515960693
0,347417,-18.791425704956055,9.17940616607666,-27.273990631103516,-10.093448638916016
0,347420,-11.318259239196777,-9.29797649383545,-8.79621696472168,-20.36394691467285
0,347421,9.026569366455078,-0.846324622631073,12.482173919677734,15.245915412902832
0,347424,-33.35271072387695,40.4710693359375,53.997676849365234,16.481595993041992
0,347532,-27.97294807434082,14.655125617980957,43.68067932128906,-10.519134521484375
0,347532,21.830795288085938,-22.76936912536621,-42.22830581665039,6.06112813949585
0,347533,25.817262649536133,-29.0421142578125,-37.74494552612305,1.0349787473678589
0,347533,-0.5509995222091675,4.437860012054443,7.193422794342041,-23.97447395324707
0,347533,-35.292022705078125,33.476470947265625,27.946809768676758,-3.484154224395752
0,347533,-30.888713836669922,19.666595458984375,58.63214874267578,18.971527099609375
0,347533,-6.396974086761475,23.329322814941406,23.048053741455078,0.24095991253852844
0,347533,3.5444743633270264,-1.5434508323669434,-29.899003982543945,0.7002526521682739
0,347534,40.0108528137207,-20.504253387451172,-26.64551544189453,-1.6451963186264038
0,347534,58.334327697753906,-23.510549545288086,-38.554229736328125,-13.263538360595703
0,347534,19.23611068725586,-35.14423370361328,-45.595863342285156,11.08581256866455
0,347534,-8.34392261505127,-11.314346313476562,-6.2608513832092285,8.89810562133789
0,347534,4.671553134918213,9.875666618347168,8.57114315032959,-0.15410350263118744
0,347534,3.405345916748047,-1.962254524230957,-4.679394245147705,-0.06569056212902069
0,347535,-38.87923049926758,1.0366063117980957,23.162017822265625,1.197161078453064
0,347535,-40.668338775634766,21.00404167175293,53.29585266113281,8.869223594665527
0,347535,-6.931707382202148,4.694268703460693,23.86772918701172,-14.968954086303711
0,347535,11.476749420166016,-10.363569259643555,-46.59987258911133,-13.058561325073242
0,347535,9.096526145935059,-5.755072593688965,-24.142858505249023,15.992321014404297
0,347535,-0.13146620988845825,-0.7333875298500061,1.3639135360717773,-3.456636905670166
0,347536,20.81184196472168,-11.314876556396484,-25.879547119140625,-8.248025894165039
0,347536,24.489906311035156,-7.665915012359619,6.107737064361572,16.396038055419922
0,347536,-5.698504447937012,15.148470878601074,4.4692888259887695,4.929102420806885
0,347536,-10.157576560974121,11.868334770202637,4.567802429199219,-7.6707658767700195
0,347536,-14.583043098449707,11.305970191955566,22.74110984802246,-4.680911064147949
0,347536,-4.212579250335693,10.776531219482422,18.947341918945312,-5.810694694519043
0,347537,-1.9621003866195679,-0.5892098546028137,4.943073749542236,-0.7453948259353638
0,347537,-10.51296615600586,16.02390480041504,-3.900740385055542,-1.8102415800094604
0,347537,18.126399993896484,0.24263447523117065,-8.201640129089355,-0.37633076310157776
0,347537,-8.73515510559082,-18.0692081451416,-21.24274253845215,11.566855430603027
0,347537,-3.616222858428955,-8.209845542907715,-5.257928371429443,2.8100993633270264
0,347537,28.05015754699707,-13.121698379516602,13.896763801574707,-2.8863024711608887
0,347538,-9.0990571975708,1.6780718564987183,8.882448196411133,-10.79255485534668
0,347538,-19.18650245666504,-6.980588436126709,-12.096026420593262,-3.408414363861084
0,347538,-17.83426284790039,15.234871864318848,15.50160026550293,14.620848655700684
0,347538,-1.433913230895996,27.596681594848633,15.909059524536133,-1.8575736284255981
0,347538,10.099895477294922,-38.955833435058594,-19.849567413330078,-2.6715710163116455
0,347539,-14.083200454711914,-16.525419235229492,15.332043647766113,3.1543452739715576
0,347539,16.165706634521484,33.98054885864258,5.756366729736328,-10.302593231201172
0,347539,25.852384567260742,-13.88598346710205,-44.68781661987305,3.515402317047119
0,347539,-24.200693130493164,-36.20017623901367,-27.57061767578125,22.438735961914062
0,347539,-3.566648244857788,10.801600456237793,7.052371025085449,-24.842493057250977
0,347539,33.822601318359375,34.04513168334961,-2.3334641456604004,-31.848602294921875
0,347540,0.5291295051574707,-13.523699760437012,26.508726119995117,24.276506423950195
0,347540,-22.797531127929688,-10.443385124206543,34.40845489501953,4.759607315063477
0,347540,-16.967193603515625,46.10215377807617,-15.297636985778809,-18.038190841674805
0,347540,-8.39584732055664,1.3966227769851685,17.15890884399414,9.409550666809082
0,347540,7.154979228973389,-16.515167236328125,9.68024730682373,28.022050857543945
0,347540,10.936258316040039,19.767831802368164,-17.582040786743164,1.0746850967407227
0,347541,1.2284122705459595,-1.8685029745101929,27.887056350708008,-11.69971752166748
0,347541,2.100375175476074,-15.168302536010742,25.91050148010254,10.483020782470703
0,347541,4.1092143058776855,10.472412109375,-25.131488800048828,-12.549806594848633
0,347541,-2.8542635440826416,5.803038120269775,-41.52808380126953,-2.103010654449463
0,347541,-6.191506385803223,-9.610687255859375,0.1993774026632309,17.094446182250977
0,347543,-8.382574081420898,16.658626556396484,25.977113723754883,-8.42979621887207
0,347543,5.661678314208984,-5.9256591796875,12.535210609436035,1.404784917831421
0,347543,12.70516300201416,-15.542055130004883,8.536206245422363,-1.3270525932312012
0,347543,1.157586932182312,14.988421440124512,-10.709778785705566,-9.698404312133789
0,347543,-27.138648986816406,-5.5575175285339355,3.510054349899292,18.296833038330078
0,347545,-19.122058868408203,24.75584602355957,32.95969009399414,-21.906518936157227
0,347546,-25.33696174621582,40.84159851074219,35.73583221435547,-30.050485610961914
0,347547,-25.32101058959961,-36.133426666259766,28.411739349365234,33.136985778808594
0,347550,35.75361633300781,-12.954926490783691,-42.48103713989258,18.789661407470703
0,347551,25.746862411499023,-3.963069200515747,-59.806846618652344,-9.295435905456543
0,347554,40.8926887512207,-65.62615966796875,-45.57787322998047,5.4191813468933105
0,347555,54.525299072265625,-35.17245101928711,-61.30616760253906,-0.014151683077216148
0,347558,12.243117332458496,-1.4646974802017212,-26.255661010742188,-14.306885719299316
0,347559,4.242903709411621,16.391950607299805,2.6693763732910156,5.268318176269531
0,347562,-28.202381134033203,15.753103256225586,20.748889923095703,0.3366011083126068
0,347563,-40.68928146362305,2.801002025604248,41.674076080322266,0.621787965297699
0,347566,-38.042503356933594,61.229225158691406,79.62898254394531,8.25924301147461
0,347567,-19.6824951171875,62.88166427612305,65.78264617919922,-3.792405128479004
0,347570,7.975082874298096,-43.15959167480469,-38.73224639892578,-9.337160110473633
0,347571,4.230615615844727,-56.20547103881836,-48.60689926147461,-14.834362983703613
0,347574,52.139381408691406,-6.092008113861084,-30.829174041748047,13.334918975830078
0,347575,21.06653594970703,-9.753891944885254,-34.06622314453125,11.49051284790039
0,347578,-23.227754592895508,8.145383834838867,8.403217315673828,-3.7045397758483887
0,347579,22.542314529418945,10.554676055908203,-2.3808889389038086,16.114192962646484
0,347582,-11.069645881652832,-17.858884811401367,9.381441116333008,-17.259361267089844
0,347583,-32.445404052734375,9.600109100341797,33.511314392089844,-28.21682357788086
0,347705,-18.18461036682129,39.862396240234375,27.493139266967773,20.16585922241211
0,347705,4.122569561004639,14.10476016998291,-2.3325767517089844,7.031763076782227
0,347705,26.32090950012207,-30.27083969116211,-41.75740432739258,-18.6282901763916
0,347705,-34.15132522583008,-10.819109916687012,16.55206298828125,-2.6120030879974365
0,347706,-44.10115051269531,39.57667922973633,60.60283279418945,8.618310928344727
0,347706,-8.171609878540039,38.7953987121582,52.09282302856445,17.252399444580078
0,347706,-6.222412586212158,-9.511056900024414,6.435098648071289,-7.228870391845703
0,347706,10.551502227783203,-13.813494682312012,-35.83766555786133,-18.551942825317383
0,347706,32.123104095458984,-8.334803581237793,-20.708271026611328,18.18198013305664
0,347706,41.30940628051758,-31.823673248291016,-46.563045501708984,8.68642520904541
0,347707,37.41043472290039,-44.82267761230469,-66.5450210571289,-4.872823238372803
0,347707,17.16316032409668,-32.84489059448242,-10.57912826538086,13.29369831085205
0,347707,-13.080002784729004,39.51553726196289,8.505463600158691,-5.181495666503906
0,347707,-30.0234432220459,33.09816360473633,11.053849220275879,-18.64391326904297
0,347707,-21.602237701416016,-3.6224935054779053,52.958866119384766,6.278885841369629
0,347708,0.6422019600868225,26.64158058166504,21.9168758392334,2.4009971618652344
0,347708,-2.6586403846740723,15.363021850585938,3.1862635612487793,-8.674545288085938
0,347708,-14.348352432250977,-11.4829683303833,2.671949863433838,10.10608959197998
0,347708,10.458922386169434,-24.309118270874023,-32.540592193603516,-3.4984986782073975
0,347708,29.39824676513672,-21.071836471557617,-16.856836318969727,-11.923492431640625
0,347708,25.0872745513916,-16.000713348388672,-4.377932548522949,22.222192764282227
0,347709,2.364147901535034,0.9129558801651001,-11.213324546813965,4.2662129402160645
0,347709,-20.122882843017578,29.050233840942383,-4.49972677230835,-8.869878768920898
0,347709,-8.118805885314941,-10.950438499450684,7.608072280883789,19.123899459838867
0,347709,-0.9876706600189209,-6.507706165313721,34.51528549194336,-6.028351783752441
0,347709,-6.531574726104736,37.64278030395508,11.733917236328125,-23.27130889892578
0,347709,-9.789716720581055,-2.399559736251831,-17.890348434448242,9.012479782104492
0,347710,-6.834251403808594,-15.93069076538086,6.03606653213501,12.53579330444336
0,347710,3.4891114234924316,3.9636127948760986,-6.475930690765381,-19.369735717773438
0,347710,6.250798225402832,-19.307815551757812,-24.378568649291992,-8.487089157104492
0,347710,10.00035572052002,-22.033384323120117,-17.83720588684082,23.87398910522461
0,347710,3.3519322872161865,-7.668725967407227,3.4207963943481445,-1.594787836074829
0,347710,15.627734184265137,21.791807174682617,14.933171272277832,-9.636312484741211
0,347711,8.627118110656738,23.929122924804688,-1.6510342359542847,4.0018310546875
0,347711,-29.050251007080078,-18.67157554626465,4.5581865310668945,-5.196839809417725
0,347711,-7.541338920593262,13.109842300415039,21.127656936645508,2.784926652908325
0,347711,1.5328210592269897,27.13783836364746,7.929225921630859,-13.91651725769043
0,347711,-7.6180291175842285,-27.69034767150879,-14.264627456665039,-10.040495872497559
0,347711,8.140850067138672,-31.256088256835938,-10.93794059753418,36.652793884277344
0,347712,2.6685056686401367,15.928922653198242,-16.513324737548828,-1.7467846870422363
0,347712,-8.55512809753418,15.940119743347168,-17.966869354248047,-30.99087905883789
0,347712,10.680351257324219,-11.46493911743164,0.476637065410614,23.49869728088379
0,347712,24.017147064208984,5.833271026611328,15.426213264465332,14.266144752502441
0,347712,7.269516944885254,5.08691930770874,19.4765625,-10.249341011047363
0,347712,-5.718188762664795,-18.03337860107422,-10.80406665802002,-1.1212042570114136
0,347713,-20.673503875732422,-16.86530113220215,-2.6757652759552,-9.480918884277344
0,347713,-1.6067019701004028,2.464015007019043,21.501253128051758,-4.415501117706299
0,347713,9.522187232971191,22.954936981201172,-6.639761447906494,12.912759780883789
0,347713,-19.613475799560547,16.761831283569336,1.4881744384765625,3.6899068355560303
0,347713,12.622323989868164,0.6129646897315979,17.411104202270508,-16.86498260498047
0,347713,28.632986068725586,-7.230472564697266,-8.715261459350586,-2.008901834487915
0,347714,-15.238358497619629,-9.04719352722168,-19.037691116333008,9.619274139404297
0,347714,-12.823310852050781,8.69635009765625,-3.849534511566162,-16.06855583190918
0,347714,9.028704643249512,5.469690322875977,2.218287229537964,-8.65760326385498
0,347714,-12.137432098388672,-2.352083921432495,5.513582706451416,25.887920379638672
0,347714,-21.717697143554688,10.812209129333496,4.572442054748535,-1.1102347373962402
0,347714,-2.575721025466919,-13.83841609954834,-22.235492706298828,-20.824909210205078
0,347715,-6.455300331115723,-21.40976333618164,-5.154036045074463,16.346529006958008
0,347715,18.986541748046875,14.23204231262207,23.221406936645508,23.827260971069336
0,347715,42.170982360839844,8.324248313903809,1.7862275838851929,-9.794888496398926
0,347715,-6.659729957580566,-27.12006187438965,-5.251820087432861,-26.70907211303711
0,347716,-10.718170166015625,-12.491239547729492,-12.560314178466797,5.995594024658203
0,347717,0.632552444934845,1.3052978515625,-8.566431999206543,29.718259811401367
0,347717,-16.083343505859375,2.240478515625,18.13834571838379,-16.404333114624023
0,347717,14.386063575744629,36.67521667480469,8.72580623626709,-11.36081600189209
0,347717,13.934629440307617,-0.36447328329086304,8.013047218322754,12.63753604888916
0,347718,-17.439376831054688,-27.39389419555664,6.416858196258545,-8.813505172729492
0,347720,-3.840524911880493,28.98050880432129,-20.774944305419922,10.178548812866211
0,347721,-7.186684608459473,15.93838119506836,6.008252143859863,4.079024791717529
0,347724,-53.54817199707031,2.229815721511841,69.60795593261719,-0.5588465929031372
0,347725,-53.54144287109375,50.91347122192383,42.341957092285156,-10.7512788772583
0,347728,-3.1338977813720703,32.09758758544922,4.425792217254639,-20.877050399780273
0,347729,14.361827850341797,-13.37556266784668,22.302043914794922,20.765045166015625
0,347732,46.112823486328125,-33.6528205871582,-42.59297180175781,13.686735153198242
0,347733,61.324607849121094,-64.93196868896484,-87.95208740234375,-16.823041915893555
0,347736,26.39980697631836,-45.01404571533203,-52.154388427734375,-3.565507411956787
0,347737,9.115530967712402,-8.044520378112793,-9.822270393371582,-0.2685985863208771
0,347740,-3.915355920791626,13.17951774597168,13.258729934692383,2.630270004272461
0,347741,13.469127655029297,30.325389862060547,-8.141477584838867,17.317964553833008
0,347744,-42.47016525268555,16.060543060302734,24.063709259033203,2.660564661026001
0,347745,-76.80815124511719,30.512100219726562,51.550621032714844,-10.201629638671875
0,347748,-24.575531005859375,15.624167442321777,24.043109893798828,-25.44702911376953
0,347749,18.88114356994629,-15.084609031677246,29.657209396362305,-1.1621627807617188
0,347752,71.14373779296875,-22.400623321533203,-40.85862350463867,48.06890869140625
0,347753,16.011470794677734,-22.448225021362305,-81.00809478759766,-4.6184983253479
0,347756,-13.005583763122559,-30.519929885864258,-17.955677032470703,-59.69930648803711
0,347757,22.930917739868164,-0.6032623052597046,29.871877670288086,20.63139533996582
0,347889,-80.3027572631836,121.08235168457031,147.93667602539062,55.623321533203125
0,347889,-70.51934814453125,62.32550811767578,88.1650161743164,-23.920011520385742
0,347890,102.33533477783203,-103.769775390625,-133.41574096679688,-26.083660125732422
0,347890,61.33413314819336,-72.49474334716797,-92.1191635131836,12.257359504699707
0,347890,-25.617568969726562,1.624094009399414,0.5355935096740723,-3.551537036895752
0,347890,1.651216983795166,24.394948959350586,14.267370223999023,-2.2943785190582275
0,347890,-13.039180755615234,28.248985290527344,31.278579711914062,0.7278921604156494
0,347891,-36.02553176879883,3.452897548675537,6.281065940856934,9.84237289428711
0,347891,-13.477458000183105,16.431896209716797,14.566716194152832,15.81804084777832
0,347891,18.79018783569336,6.365589618682861,12.978771209716797,-18.562227249145508
0,347891,13.696242332458496,-14.452432632446289,-21.33838653564453,-9.997135162353516
0,347891,7.6048173904418945,-13.42830753326416,-47.44561767578125,9.600153923034668
0,347891,22.659814834594727,-35.42605209350586,-25.768657684326172,7.004025936126709
0,347892,22.11557388305664,-32.94643783569336,-1.4838957786560059,-7.484616279602051
0,347892,12.395296096801758,4.958929061889648,-22.749820709228516,-11.730963706970215
0,347892,-18.127809524536133,20.595632553100586,1.5387718677520752,8.003817558288574
0,347892,-41.11092758178711,2.9280238151550293,23.063051223754883,1.1581437587738037
0,347892,-19.003742218017578,22.836191177368164,33.07586669921875,-0.2333831489086151
0,347892,10.706214904785156,21.40274429321289,21.54190444946289,-4.760485649108887
0,347893,19.869234085083008,-11.506202697753906,-13.717734336853027,-11.550683975219727
0,347893,5.766299247741699,-10.658496856689453,-1.7171952724456787,-0.9436859488487244
0,347893,3.0379278659820557,-28.136301040649414,-19.39019203186035,10.219575881958008
0,347893,4.346571445465088,-13.467866897583008,-17.79813575744629,17.728527069091797
0,347893,9.941837310791016,17.787700653076172,14.400195121765137,-2.6799166202545166
0,347893,16.264665603637695,4.3515095710754395,-0.12755340337753296,-15.071574211120605
0,347894,-23.84140396118164,3.8469507694244385,-5.917332649230957,5.3023786544799805
0,347894,-25.137798309326172,26.240419387817383,19.97672462463379,19.992956161499023
0,347894,14.067578315734863,19.011905670166016,22.708900451660156,-0.16190636157989502
0,347894,-15.184722900390625,-26.78519058227539,1.509644865989685,-19.778568267822266
0,347894,-21.892440795898438,-4.422161102294922,-7.220237731933594,-10.086546897888184
0,347894,6.910454750061035,6.050514221191406,-6.930308818817139,18.219112396240234
0,347895,4.144623279571533,-33.53525924682617,-15.737161636352539,15.435107231140137
0,347895,28.59168815612793,16.61813735961914,-10.208989143371582,-13.504867553710938
0,347895,32.122833251953125,16.285381317138672,-7.4806342124938965,-2.572493314743042
0,347895,-14.688394546508789,-23.645906448364258,-18.514686584472656,-6.829626560211182
0,347895,-18.545671463012695,-10.022929191589355,4.2400288581848145,-10.536164283752441
0,347895,-6.982062339782715,6.404483318328857,30.523414611816406,22.391931533813477
0,347896,-26.58572769165039,18.160850524902344,28.64472770690918,12.384108543395996
0,347896,1.7505404949188232,9.404070854187012,6.069401264190674,-11.40007495880127
0,347896,26.31109619140625,10.32603931427002,-3.4639477729797363,5.7907328605651855
0,347896,-7.56887149810791,-4.417488098144531,1.3381208181381226,-1.8195923566818237
0,347896,1.839469313621521,-7.577902793884277,3.1024649143218994,-32.025604248046875
0,347896,10.35242748260498,4.503718852996826,-5.597709655761719,0.9455834627151489
0,347897,-7.552119731903076,-1.446942687034607,-24.440662384033203,20.298540115356445
0,347897,-0.21362744271755219,0.0059906672686338425,-15.459030151367188,-10.160648345947266
0,347897,2.004779577255249,-9.332062721252441,21.65285873413086,6.806291580200195
0,347897,-8.1532621383667,-0.39531728625297546,26.158573150634766,7.586240768432617
0,347897,-13.034379959106445,15.33947467803955,-15.184083938598633,-19.548011779785156
0,347897,1.6817686557769775,-0.699619472026825,-12.778180122375488,7.57094669342041
0,347898,10.155182838439941,14.503514289855957,3.5747010707855225,12.381569862365723
0,347898,4.044370651245117,-9.41122055053711,-15.388382911682129,-16.468725204467773
0,347898,-3.610917568206787,-33.44865036010742,11.31435489654541,9.858438491821289
0,347898,-0.49345508217811584,15.707443237304688,29.59075355529785,20.15999984741211
0,347898,13.401867866516113,9.188803672790527,-2.205794334411621,-25.25286865234375
0,347898,-4.735788822174072,6.115060806274414,-27.48036003112793,-16.372058868408203
0,347899,-18.614408493041992,1.4679423570632935,-2.754434823989868,21.94443702697754
0,347899,18.93146514892578,-17.360774993896484,21.717788696289062,3.241948127746582
0,347899,11.834986686706543,8.576416015625,-7.4525933265686035,-9.889299392700195
0,347899,-26.842973709106445,7.6261115074157715,3.0821752548217773,-0.20990164577960968
0,347899,7.361423969268799,-11.09318733215332,4.087801933288574,5.237820625305176
0,347900,4.372445583343506,-5.358222007751465,-19.370567321777344,7.7995100021362305
0,347900,-10.415117263793945,0.730501651763916,1.3333414793014526,-16.1640567779541
0,347900,22.26572608947754,-0.8503610491752625,7.233615875244141,-15.724527359008789
0,347900,-11.410357475280762,5.490714073181152,-8.911705017089844,20.039241790771484
0,347900,-26.340253829956055,6.745144367218018,3.0002601146698,20.52033805847168
0,347900,28.92769432067871,7.362365245819092,24.00102996826172,-3.4305272102355957
0,347902,-1.9539655447006226,1.6558030843734741,19.193357467651367,-15.794432640075684
0,347902,-46.512752532958984,-8.429059982299805,-0.058397743850946426,-5.926535129547119
0,347902,10.65436840057373,3.888248920440674,-5.66226863861084,7.70932149887085
0,347902,9.87293815612793,18.489269256591797,7.659217834472656,0.616845428943634
0,347902,-17.464229583740234,-5.361093521118164,2.8637561798095703,-4.578471660614014
0,347902,0.31822469830513,-10.215961456298828,-8.517688751220703,-2.7708492279052734
0,347904,-6.958859443664551,36.59502410888672,13.238914489746094,4.435445308685303
0,347905,-26.327123641967773,31.93965721130371,43.460609436035156,5.602743625640869
0,347908,-11.132137298583984,-3.097235918045044,35.37159729003906,-3.7726657390594482
0,347909,14.056200981140137,-18.485660552978516,-43.34297561645508,-6.117329120635986
0,347912,39.39318084716797,-51.58493423461914,-79.64888000488281,8.082717895507812
0,347913,62.439083099365234,-64.21332550048828,-22.086820602416992,16.9954776763916
0,347916,43.7310905456543,-15.381577491760254,-45.289730072021484,1.690861701965332
0,347917,2.369326591491699,28.331504821777344,-31.44049835205078,-8.552745819091797
0,347920,-18.641042709350586,9.231912612915039,37.9769172668457,-10.798186302185059
0,347921,-4.9299726486206055,3.017158031463623,-0.7108449935913086,-1.3500137329101562
0,347924,-44.992881774902344,41.501686096191406,32.76869583129883,-6.801662921905518
0,347925,-58.51238250732422,38.57664108276367,92.76944732666016,2.564178943634033
0,347928,-5.2458977699279785,8.427724838256836,27.042816162109375,15.866864204406738
0,347929,9.175755500793457,-21.62700653076172,-35.42246627807617,-12.694725036621094
0,347932,36.71979904174805,-25.424707412719727,-45.31131362915039,1.2115682363510132
0,347933,45.506629943847656,-11.777862548828125,-40.70330810546875,28.76289176940918
0,347936,-9.996877670288086,-35.86518478393555,-40.528839111328125,-30.344396591186523
0,347937,-14.359749794006348,-1.711692452430725,-0.9362863898277283,-52.235347747802734
0,347940,6.701148986816406,7.807628631591797,33.86354446411133,48.547218322753906
0,347941,6.706872463226318,-28.11773109436035,-2.492206573486328,48.835784912109375
0,347944,-22.2390193939209,48.750694274902344,32.50461196899414,-45.96562576293945
0,347945,-57.148223876953125,55.65620040893555,71.07810974121094,-24.10442352294922
0,348087,1.6405171155929565,-20.06427574157715,11.934586524963379,25.301252365112305
0,348087,27.243560791015625,-4.413680076599121,-28.66677474975586,-4.951831340789795
0,348087,-25.59360694885254,11.569838523864746,-7.102293491363525,-1.6742419004440308
0,348087,-23.95401954650879,29.093585968017578,46.66978073120117,22.476903915405273
0,348087,0.622159481048584,27.493637084960938,28.214588165283203,-10.078216552734375
0,348088,-2.994732141494751,-19.28380012512207,-16.315921783447266,-26.76803970336914
0,348088,1.7811459302902222,-16.279945373535156,-10.04679012298584,15.560758590698242
0,348088,22.048921585083008,-14.636104583740234,-39.8740234375,32.612369537353516
0,348088,43.84228515625,-50.209049224853516,-59.76567077636719,-5.272350311279297
0,348088,45.016605377197266,-34.57487106323242,-46.82941818237305,-19.32477569580078
0,348089,13.733419418334961,4.431234359741211,-9.714009284973145,4.9291510581970215
0,348089,-14.4046630859375,-4.750600337982178,28.10327911376953,-6.454660892486572
0,348089,-16.588369369506836,8.41875171661377,1.1066782474517822,-23.469453811645508
0,348089,-11.6965913772583,22.44028663635254,-5.482707977294922,4.460501670837402
0,348089,-11.844457626342773,12.038959503173828,33.74262237548828,23.899925231933594
0,348089,-9.801957130432129,21.377639770507812,36.41788864135742,3.7357258796691895
0,348090,8.094151496887207,6.098968505859375,-12.682257652282715,-13.642711639404297
0,348090,30.375511169433594,-13.850736618041992,-27.309619903564453,13.132705688476562
0,348090,6.311132431030273,-20.84913444519043,-4.186755657196045,5.2230401039123535
0,348090,-9.78843879699707,-23.2177734375,-18.668384552001953,-11.589775085449219
0,348090,23.125905990600586,5.092430591583252,-21.338285446166992,15.161111831665039
0,348090,10.744902610778809,12.045584678649902,17.566017150878906,0.4739461839199066
0,348091,-29.75078773498535,9.602248191833496,20.791624069213867,-22.648746490478516
0,348091,-34.71327209472656,17.851810455322266,20.079185485839844,5.910706043243408
0,348091,-8.10226058959961,5.379961013793945,34.933937072753906,9.66463565826416
0,348091,6.857915878295898,11.358586311340332,2.1021790504455566,-5.714179039001465
0,348091,-0.7723965644836426,-11.201213836669922,-13.325799942016602,2.089656352996826
0,348091,13.670954704284668,-31.33112907409668,-12.660826683044434,-7.187884330749512
0,348092,26.751943588256836,-0.7719919085502625,-15.904450416564941,-6.40051794052124
0,348092,-2.437747001647949,-1.9949216842651367,-12.146286010742188,14.506360054016113
0,348092,-19.501365661621094,-1.9576225280761719,-17.06548309326172,8.413414001464844
0,348092,6.060606956481934,-3.6349985599517822,-0.6415470838546753,-17.485681533813477
0,348092,5.55126953125,-9.868033409118652,10.458853721618652,3.913339376449585
0,348093,-10.584609031677246,24.011186599731445,7.672414302825928,24.441686630249023
0,348093,1.0850887298583984,24.176761627197266,12.878841400146484,-17.793285369873047
0,348093,-13.786005973815918,-23.746692657470703,5.5139994621276855,-23.69203758239746
0,348093,-25.102577209472656,-18.15849494934082,-19.020105361938477,14.582887649536133
0,348093,17.371030807495117,24.286907196044922,1.8270413875579834,8.395085334777832
0,348093,26.855548858642578,-2.537850856781006,-0.14788804948329926,-20.487186431884766
0,348094,-7.746323108673096,-15.42907428741455,-26.092782974243164,-12.803852081298828
0,348094,-5.4415435791015625,10.067886352539062,9.757718086242676,15.609400749206543
0,348094,17.245697021484375,-10.182934761047363,13.185798645019531,12.236034393310547
0,348094,-2.3452866077423096,8.759197235107422,2.142810106277466,-12.053909301757812
0,348094,-16.590932846069336,29.689552307128906,17.11406707763672,-8.483940124511719
0,348094,8.369827270507812,-7.3779191970825195,-5.172610759735107,-4.162874698638916
0,348095,4.915443420410156,-25.300535202026367,-24.20259666442871,17.323951721191406
0,348095,-20.474103927612305,-15.03089714050293,14.221035957336426,22.39230728149414
0,348095,1.5350980758666992,15.163009643554688,13.294062614440918,-25.279743194580078
0,348095,23.83222007751465,-7.133535861968994,-16.438386917114258,-5.035111904144287
0,348095,-5.052067756652832,-14.36263656616211,-5.6611480712890625,23.490299224853516
0,348095,-10.82130241394043,18.424205780029297,-6.275750160217285,-13.272083282470703
0,348096,5.100597858428955,-1.1006219387054443,9.518749237060547,-0.4961520731449127
0,348096,7.858735084533691,10.157844543457031,11.414562225341797,13.543139457702637
0,348096,-4.420403003692627,15.32561206817627,7.315288066864014,-5.3805766105651855
0,348096,-16.400012969970703,-10.195425033569336,20.467248916625977,1.3738313913345337
0,348096,6.299051761627197,-6.3771209716796875,-9.975972175598145,11.131213188171387
0,348096,3.573408842086792,14.222968101501465,-14.096624374389648,6.017820835113525
0,348097,-2.1084299087524414,12.822548866271973,21.421424865722656,-18.14151382446289
0,348097,20.79758644104004,-6.816737174987793,-1.5362234115600586,-10.33903980255127
0,348097,-7.987844944000244,-20.394880294799805,-31.152690887451172,17.845186233520508
0,348097,-32.3886833190918,-5.9610276222229,-0.5797784328460693,-1.158714771270752
0,348097,16.289283752441406,18.87685203552246,6.154223442077637,-22.30497932434082
0,348097,25.532934188842773,8.079381942749023,3.804725408554077,5.169683933258057
0,348098,-22.552621841430664,-1.9767082929611206,8.789884567260742,24.916540145874023
0,348098,-12.415539741516113,-8.793937683105469,-3.6832563877105713,0.954076886177063
0,348098,7.8282294273376465,3.013272523880005,-14.787745475769043,-27.99587631225586
0,348098,0.4705581068992615,3.115575075149536,-0.44966620206832886,-9.70276927947998
0,348098,8.212564468383789,-9.345356941223145,31.960224151611328,24.0063533782959
0,348098,-1.9437015056610107,21.3928165435791,4.426519393920898,-0.6533759236335754
0,348099,-7.114279747009277,-7.8104448318481445,-24.001461029052734,-23.419435501098633
0,348099,-0.0598813034594059,-26.12932777404785,-3.8838021755218506,8.56774616241455
0,348100,4.859317302703857,22.724842071533203,20.922082901000977,37.83805465698242
0,348100,6.0049729347229,18.242555618286133,13.0267333984375,3.5847373008728027
0,348100,-8.651400566101074,-9.085039138793945,-23.759336471557617,-43.58083724975586
0,348101,-4.1121320724487305,-10.713981628417969,1.15415620803833,-9.308082580566406
0,348101,5.698750972747803,-2.56459903717041,9.379684448242188,23.080097198486328
0,348101,-10.048741340637207,1.9749208688735962,-20.12331771850586,-10.707718849182129
0,348102,-25.773359298706055,32.59228515625,44.85989761352539,-9.470136642456055
0,348104,-24.715232849121094,12.830873489379883,57.456180572509766,14.508169174194336
0,348105,-36.932743072509766,-7.0104217529296875,3.018970251083374,-4.546536922454834
0,348108,-14.099516868591309,39.25552749633789,37.378536224365234,12.710453033447266
0,348109,28.662086486816406,1.8094557523727417,2.374089241027832,7.804088115692139
0,348112,44.664608001708984,-67.77326202392578,-89.79094696044922,-27.07861328125
0,348113,56.1156005859375,-66.71726989746094,-86.10740661621094,8.266340255737305
0,348116,34.95018768310547,-24.289283752441406,-51.35768127441406,5.8113908767700195
0,348117,4.521814823150635,20.406877517700195,-3.282198905944824,-6.150633335113525
0,348120,-5.482203960418701,13.346148490905762,20.943702697753906,11.096272468566895
0,348121,10.085066795349121,-0.12842337787151337,6.729374408721924,-7.273524761199951
0,348124,-53.02484130859375,31.914928436279297,40.80655288696289,13.279330253601074
0,348125,-79.31137084960938,40.50331115722656,65.35444641113281,24.934219360351562
0,348128,28.93857192993164,25.460752487182617,40.62533950805664,-27.802793502807617
0,348129,28.050382614135742,-13.475537300109863,-21.599895477294922,-33.4456787109375
0,348132,-2.921617269515991,-39.70478057861328,-70.89785766601562,3.2983767986297607
0,348133,34.6137809753418,-9.111820220947266,-19.617721557617188,18.550796508789062
0,348136,19.440237045288086,-17.69390869140625,17.28936004638672,17.242374420166016
0,348137,-13.451739311218262,-9.143630981445312,-4.915595054626465,1.831875205039978
0,348140,-3.4743411540985107,16.24112319946289,-20.984817504882812,-20.57851219177246
0,348141,21.40411376953125,-6.666533946990967,-2.887676954269409,0.6134231090545654
0,348144,-29.93391227722168,12.311903953552246,29.15930938720703,-15.748504638671875
0,348145,-80.95003509521484,33.04634475708008,49.22926712036133,-20.655685424804688
0,348148,10.541722297668457,11.47537612915039,40.54860305786133,65.08567810058594
0,348299,148.0557861328125,-81.32821655273438,-166.86643981933594,17.772340774536133
0,348299,55.98626708984375,-74.96198272705078,-136.14996337890625,-51.950923919677734
0,348299,-142.00721740722656,81.57593536376953,195.35049438476562,9.0997896194458
0,348299,-57.670169830322266,82.86544036865234,105.80667114257812,5.380441188812256
0,348300,32.082740783691406,-19.961360931396484,-58.182186126708984,-16.569929122924805
0,348300,-6.410497188568115,-29.28114891052246,-0.02453773468732834,20.410322189331055
0,348300,25.470935821533203,18.117216110229492,-19.385526657104492,-0.6944047212600708
0,348300,39.084266662597656,-26.531831741333008,-46.59412384033203,-14.0736665725708
0,348300,25.923694610595703,-46.61300277709961,-6.982554912567139,19.69955062866211
0,348300,-10.203096389770508,36.153106689453125,27.288982391357422,0.6823867559432983
0,348301,-40.174503326416016,32.09638214111328,14.478809356689453,-27.0013427734375
0,348301,-21.031339645385742,2.923063278198242,11.840742111206055,1.4622071981430054
0,348301,-28.20404052734375,15.659661293029785,50.155521392822266,29.452856063842773
0,348301,-22.885601043701172,19.213964462280273,37.823387145996094,-10.112576484680176
0,348301,18.125429153442383,7.267312049865723,-19.710315704345703,-18.339262008666992
0,348301,10.827422142028809,-11.308189392089844,-25.523527145385742,16.13627052307129
0,348302,8.720999717712402,-24.23572540283203,-6.008925914764404,7.1443586349487305
0,348302,25.8455867767334,-35.13957595825195,-31.7510986328125,-10.230997085571289
0,348302,-4.607774257659912,-12.91448974609375,-34.93632507324219,-6.781567096710205
0,348302,-20.422861099243164,32.079261779785156,6.226301193237305,0.07756004482507706
0,348302,4.276961326599121,6.321247577667236,12.119094848632812,-7.254151344299316
0,348302,-1.1017643213272095,-18.94749641418457,32.8587532043457,4.48480224609375
0,348303,-29.777650833129883,33.4100456237793,26.427682876586914,10.06822681427002
0,348303,-21.753902435302734,29.286365509033203,-6.2775726318359375,-7.950565814971924
0,348303,27.32726287841797,-17.801204681396484,12.7433500289917,-8.169981956481934
0,348303,33.36050796508789,-17.343067169189453,-5.84307861328125,12.525838851928711
0,348303,-2.624232769012451,3.774256706237793,-19.70240592956543,9.046058654785156
0,348304,10.76216983795166,4.515391826629639,-6.672820091247559,-1.0127768516540527
0,348304,30.16426658630371,-2.8159828186035156,-22.894001007080078,-2.7226390838623047
0,348304,-0.4175979197025299,-19.293842315673828,-14.116719245910645,0.6181167364120483
0,348304,-21.76673126220703,-20.122554779052734,17.4138240814209,10.340337753295898
0,348304,-11.629302024841309,18.86070442199707,31.022451400756836,-3.7121641635894775
0,348304,-26.203418731689453,29.63349723815918,35.520633697509766,-10.084670066833496
0,348305,-11.570260047912598,11.563936233520508,8.404821395874023,3.6677181720733643
0,348305,27.211917877197266,-9.180686950683594,-30.86756134033203,2.454807758331299
0,348305,-1.6753135919570923,-13.302115440368652,-21.308828353881836,-5.2345991134643555
0,348305,-15.046225547790527,-1.3774244785308838,-14.222808837890625,4.732877731323242
0,348305,5.048469543457031,-1.5109319686889648,6.859450340270996,-7.161584854125977
0,348305,10.58278751373291,-19.416563034057617,10.572858810424805,-17.218502044677734
0,348306,12.122896194458008,-3.898622512817383,-14.825116157531738,6.253063201904297
0,348306,10.269545555114746,18.744375228881836,-9.148662567138672,11.526544570922852
0,348306,9.916383743286133,-5.210704803466797,-6.360854148864746,-7.412885665893555
0,348306,-17.694772720336914,2.1910502910614014,-6.840291976928711,-8.241697311401367
0,348306,-32.90274429321289,-2.9392411708831787,7.127889156341553,8.74591064453125
0,348306,14.021087646484375,-14.981520652770996,10.534531593322754,10.650701522827148
0,348307,20.023435592651367,3.960890769958496,10.296483993530273,3.2911324501037598
0,348307,-10.274080276489258,8.691229820251465,6.700571060180664,-5.459316253662109
0,348307,2.2263436317443848,0.6975551247596741,-31.61577796936035,-11.269332885742188
0,348307,2.7690794467926025,-16.354963302612305,-9.936973571777344,14.302494049072266
0,348307,4.095272541046143,10.613751411437988,14.198695182800293,0.613165557384491
0,348307,-5.474925994873047,12.042267799377441,-10.14769172668457,-19.87313461303711
0,348308,-25.046226501464844,-9.151514053344727,19.847318649291992,18.107192993164062
0,348308,12.995696067810059,8.468038558959961,22.11568260192871,-1.7004700899124146
0,348308,16.513954162597656,-2.640571355819702,-14.94201374053955,-23.095436096191406
0,348308,-7.750463008880615,-5.363227844238281,-10.16745376586914,10.545727729797363
0,348308,3.184431791305542,17.511478424072266,-1.1826181411743164,21.672327041625977
0,348308,4.833478927612305,1.022560477256775,1.0455282926559448,-11.168111801147461
0,348309,18.190208435058594,-37.897945404052734,-1.8293006420135498,-8.449766159057617
0,348309,6.839685440063477,-18.06951904296875,-18.08060646057129,20.74387550354004
0,348309,-19.128856658935547,14.865257263183594,6.835796356201172,-7.284421443939209
0,348309,3.400665283203125,6.288584232330322,11.774521827697754,-5.846654415130615
0,348309,8.585322380065918,15.747578620910645,-9.098441123962402,17.733301162719727
0,348309,5.509725093841553,19.50312614440918,-0.02926456741988659,-5.87808895111084
0,348310,0.5564171671867371,-6.970240592956543,13.540964126586914,-10.113297462463379
0,348310,-12.96633243560791,-12.663928031921387,-3.3860106468200684,15.257367134094238
0,348310,-3.4556572437286377,-13.951773643493652,-19.239194869995117,-9.96467113494873
0,348310,-3.0573649406433105,5.119933128356934,1.8194698095321655,-28.85112762451172
0,348310,6.94711971282959,0.9407337307929993,-8.9882230758667,13.257288932800293
0,348310,-1.8020615577697754,-16.642318725585938,-0.5170606374740601,26.400266647338867
0,348311,-12.720664024353027,10.313885688781738,19.267501831054688,-13.07385540008545
0,348311,8.595139503479004,-14.06290340423584,-15.454816818237305,-21.47150421142578
0,348311,-0.3878363370895386,6.620416164398193,-4.790797233581543,16.9992618560791
0,348311,-9.066838264465332,29.22372055053711,28.571256637573242,-5.664998531341553
0,348311,2.4651477336883545,-26.54956817626953,-11.561227798461914,-8.689127922058105
0,348311,4.74506950378418,-23.657634735107422,-18.32296371459961,27.107114791870117
0,348312,1.1291848421096802,24.862581253051758,10.464025497436523,-9.50439453125
0,348313,20.701316833496094,9.571295738220215,-25.252656936645508,-14.046494483947754
0,348313,11.466840744018555,-17.89649772644043,-20.856176376342773,13.775699615478516
0,348313,-19.56266975402832,18.567644119262695,40.67521286010742,8.117533683776855
0,348313,10.907822608947754,4.164505481719971,9.890416145324707,2.7612571716308594
0,348314,15.070730209350586,-12.038684844970703,-18.01294708251953,-22.169002532958984
0,348314,-16.38883399963379,-12.051556587219238,3.307394504547119,-14.790939331054688
0,348314,-21.374984741210938,-11.571693420410156,9.624159812927246,28.245019912719727
0,348315,23.588882446289062,11.709274291992188,3.131422281265259,26.15436553955078
0,348318,41.9739875793457,-8.039497375488281,-28.072237014770508,-20.277456283569336
0,348319,-15.649190902709961,0.7532152533531189,-2.5581912994384766,-47.3643798828125
0,348322,-67.2724609375,41.20883560180664,43.704044342041016,18.850196838378906
0,348323,-50.12093734741211,52.76537322998047,67.97479248046875,36.66268539428711
0,348326,-25.842920303344727,26.7742919921875,65.9916763305664,-17.41200828552246
0,348327,-23.635644912719727,-9.373208045959473,-13.647006034851074,-20.2081241607666
0,348330,50.92295455932617,-33.95473098754883,-69.19398498535156,-0.0446653887629509
0,348331,64.43265533447266,-32.08068084716797,-37.2100944519043,16.82685089111328
0,348334,23.247663497924805,-31.034841537475586,-46.606727600097656,15.229418754577637
0,348335,22.499574661254883,-35.69761657714844,-52.73996353149414,8.626974105834961
0,348338,5.42949914932251,7.051907539367676,20.686777114868164,-1.5387780666351318
0,348339,-10.852156639099121,28.218631744384766,33.10438919067383,-23.70265769958496
0,348342,-37.411956787109375,16.547815322875977,11.384947776794434,-16.91253089904785
0,348343,-37.46427536010742,7.529723644256592,25.172697067260742,18.241971969604492
0,348346,-6.399449348449707,38.39569091796875,62.519325256347656,16.470767974853516
0,348348,1.185436487197876,29.18667984008789,38.749568939208984,-7.331797122955322
0,348349,3.6328036785125732,-48.16056442260742,-69.7549819946289,-17.91278839111328
0,348352,27.441299438476562,-32.19936752319336,-65.0023193359375,-0.23771220445632935
0,348353,30.69615364074707,-5.350025653839111,13.636983871459961,22.833166122436523
0,348356,1.5933659076690674,-11.48001766204834,3.484448194503784,-5.461772918701172
0,348357,2.439741373062134,9.631081581115723,-37.36079788208008,-21.953937530517578
0,348360,2.5875532627105713,-12.674517631530762,-18.90081024169922,8.009462356567383
0,348361,11.613044738769531,-26.434795379638672,28.056922912597656,23.668838500976562
0,348364,-14.885625839233398,40.69893264770508,58.43595504760742,-5.968753814697266
1,348527,-79.76042938232422,63.51484298706055,53.826969146728516,-21.07162094116211
1,348527,-12.855530738830566,-0.18920686841011047,-4.127462863922119,6.574699878692627
1,348527,43.9310302734375,-22.395191192626953,-44.73227310180664,15.583396911621094
1,348527,-23.524667739868164,19.90500259399414,12.607723236083984,-4.145251274108887
1,348527,-31.75990104675293,30.805299758911133,55.500343322753906,-18.183664321899414
1,348527,7.448001861572266,1.3007218837738037,22.231592178344727,-11.351078987121582
1,348528,-6.730164527893066,-18.384546279907227,-15.658843994140625,8.847434043884277
1,348528,-14.635889053344727,-19.456022262573242,-17.18508529663086,13.229411125183105
1,348528,39.89994430541992,-23.21695899963379,-21.483285903930664,5.229485988616943
1,348528,78.63928985595703,-28.11375617980957,-75.10132598876953,-2.363417148590088
1,348528,33.35228729248047,-29.195886611938477,-65.1431884765625,-11.580412864685059
1,348529,-12.128711700439453,-35.54853439331055,1.0333316326141357,7.225814342498779
1,348529,-7.366540431976318,16.18134307861328,12.423887252807617,4.245558261871338
1,348529,-14.697354316711426,39.51333236694336,27.62703514099121,-3.361367702484131
1,348529,-23.64448356628418,-0.09274273365736008,49.74952697753906,11.737820625305176
1,348529,-11.70120620727539,14.824386596679688,19.995685577392578,-7.667208671569824
1,348529,-19.061912536621094,19.960369110107422,-8.936639785766602,-11.924856185913086
1,348530,-11.971851348876953,-11.330731391906738,-4.970231056213379,19.864213943481445
1,348530,39.2386589050293,-3.992759943008423,-2.8280551433563232,8.775572776794434
1,348530,51.983184814453125,-3.21665096282959,-25.941316604614258,-9.701065063476562
1,348530,-1.2695531845092773,-31.291810989379883,-31.0422420501709,8.358694076538086
1,348530,-28.93405532836914,-8.237533569335938,-4.937789440155029,-4.7736406326293945
1,348530,7.415916442871094,27.543643951416016,0.10087855160236359,-13.876338958740234
1,348531,6.2558112144470215,14.868184089660645,13.560522079467773,-0.09816757589578629
1,348531,-47.72248458862305,3.8694281578063965,41.11371994018555,9.405970573425293
1,348531,-21.621204376220703,3.598086357116699,1.8749055862426758,2.6780624389648438
1,348531,33.153526306152344,5.180935382843018,-7.077670097351074,-6.616412162780762
1,348531,9.887771606445312,11.20383358001709,29.296384811401367,-10.878328323364258
1,348531,-7.139124870300293,-24.856861114501953,-15.173748016357422,-12.47095775604248
1,348532,16.83745765686035,-18.645923614501953,-37.58708953857422,4.947847843170166
1,348532,18.340837478637695,6.690011024475098,-11.128767013549805,4.785478115081787
1,348532,-2.7400097846984863,-31.18943977355957,-5.266167640686035,5.779484748840332
1,348532,-17.881072998046875,-6.435726642608643,6.604947090148926,8.032654762268066
1,348532,-14.932413101196289,38.484962463378906,5.291066646575928,-9.526225090026855
1,348532,7.548742294311523,3.848236083984375,9.636138916015625,-9.159964561462402
1,348533,-12.988139152526855,-6.936091899871826,5.672495365142822,2.8883631229400635
1,348533,-28.72347640991211,11.292202949523926,-7.562891483306885,0.16533465683460236
1,348533,18.910478591918945,-3.28248929977417,10.672887802124023,20.57655906677246
1,348533,25.732730865478516,-10.032417297363281,-7.634313583374023,16.144283294677734
1,348788,-10.51455020904541,21.560335159301758,8.649638175964355,-37.23657989501953
1,348789,-36.31140899658203,62.48426818847656,62.82453155517578,-10.22904109954834
1,348792,-36.21433639526367,11.020711898803711,43.68938064575195,23.628358840942383
1,348793,28.18809700012207,-55.63968276977539,-22.151029586791992,2.317331075668335
1,348796,83.13574981689453,-50.24003982543945,-87.8877944946289,0.8896423578262329
1,348797,35.692665100097656,-12.079657554626465,-29.243595123291016,-9.033966064453125
1,350319,-18.69615936279297,-1.2501329183578491,12.537527084350586,6.764853000640869
1,350319,-33.459373474121094,-13.612460136413574,-42.166133880615234,3.988837957382202
1,350319,-29.143138885498047,10.521400451660156,18.242124557495117,-12.857645988464355
1,350319,-0.35360187292099,21.84192657470703,33.4105224609375,32.17580032348633
1,350320,18.782012939453125,21.77964973449707,-25.223770141601562,9.646993637084961
1,350320,21.292991638183594,-20.302806854248047,-3.622596025466919,-44.77625274658203
1,350320,-2.2993412017822266,-11.816363334655762,12.664714813232422,-13.378582000732422
1,350320,-24.19137191772461,38.87937545776367,11.0739107131958,23.14280128479004
1,350320,-13.032391548156738,11.625322341918945,24.615127563476562,-6.322122097015381
1,350321,-7.3953471183776855,20.714214324951172,37.35282516479492,-3.1070637702941895
1,350321,-26.325733184814453,23.748512268066406,37.320091247558594,13.200798988342285
1,350321,-12.71811294555664,-13.742605209350586,-28.4991512298584,25.35536003112793
1,350321,22.37179946899414,-4.680545806884766,-27.546785354614258,-7.910656452178955
1,350321,8.499052047729492,-4.537387847900391,35.58528518676758,-72.11646270751953
1,350321,0.8996596336364746,-30.639873504638672,-19.077171325683594,29.694551467895508
1,350322,7.573208808898926,-0.26860958337783813,-31.705642700195312,58.23102569580078
1,350322,19.469070434570312,12.054985046386719,5.540492534637451,-34.929283142089844
1,350322,17.421627044677734,5.470661163330078,11.905024528503418,-20.991472244262695
1,350322,-40.807090759277344,-0.44431689381599426,17.71180534362793,19.17019271850586
1,350322,-25.625381469726562,-0.4672952890396118,19.028047561645508,5.864189147949219
1,350322,24.657379150390625,35.237571716308594,12.2021484375,-21.595138549804688
1,350323,3.800906181335449,-15.874246597290039,-1.7241644859313965,-5.035723686218262
1,350323,-5.802039623260498,-27.463550567626953,0.01901017129421234,23.434328079223633
1,350323,11.420713424682617,26.65715789794922,-38.24199676513672,-0.6168118715286255
1,350323,8.301767349243164,-10.319635391235352,-31.50275421142578,-19.451828002929688
1,350323,-1.990884780883789,-51.87567138671875,9.659947395324707,7.761972427368164
1,350323,0.6655974984169006,-11.742114067077637,-17.279388427734375,17.097225189208984
1,350324,11.212215423583984,14.166678428649902,-19.651330947875977,-8.738319396972656
1,350324,6.4341864585876465,-8.83882999420166,5.099984645843506,-15.530946731567383
1,350324,-29.87834930419922,8.19339656829834,16.02426528930664,4.382871150970459
1,350324,-28.231266021728516,11.338875770568848,10.250954627990723,15.803462982177734
1,350324,2.1394453048706055,0.1540692150592804,19.737247467041016,-4.495153903961182
1,350325,12.833971977233887,13.32206916809082,3.0167396068573,-28.580081939697266
1,350325,4.501830101013184,-16.099544525146484,-28.663785934448242,1.6834161281585693
1,350326,3.99631929397583,-13.154053688049316,1.0012940168380737,32.12674331665039
1,350326,14.403806686401367,10.226836204528809,-11.055379867553711,8.259940147399902
1,350326,-0.6780542135238647,-10.139421463012695,-9.983528137207031,-3.8693695068359375
1,350328,4.596080780029297,-9.15234088897705,-3.9674413204193115,6.227781772613525
1,350329,15.189753532409668,-12.463947296142578,-4.853212833404541,9.007715225219727
1,350332,45.089263916015625,-29.21269989013672,-34.891605377197266,1.6088052988052368
1,350333,53.32404327392578,-17.543062210083008,-90.66912078857422,-12.343650817871094
1,350336,-28.465660095214844,12.125370025634766,18.651735305786133,-14.098438262939453
1,350337,-30.173139572143555,9.635140419006348,54.32306671142578,-3.2880020141601562
1,350340,-2.74747633934021,29.945106506347656,21.557010650634766,3.547212839126587
1,350341,-55.400447845458984,67.21495819091797,72.23639678955078,-10.473679542541504
1,350344,-62.10468673706055,39.86811447143555,83.52449798583984,6.62474250793457
1,350345,-23.115007400512695,-3.472306728363037,38.93696212768555,13.919366836547852
1,350348,27.759117126464844,-52.74219512939453,-63.67676544189453,-18.104347229003906
1,350419,109.78199005126953,-63.24984359741211,-136.98963928222656,-5.6297197341918945
1,350419,30.827728271484375,26.3837947845459,-42.919918060302734,7.055597305297852
1,350419,-107.55767822265625,62.799102783203125,102.4251480102539,5.064868450164795
1,350419,-9.307461738586426,-13.877286911010742,51.749454498291016,0.8584884405136108
1,350419,57.90279006958008,-21.6418399810791,-38.87275314331055,-6.425201416015625
1,350419,0.5280232429504395,-11.030174255371094,-35.91200637817383,6.379773139953613
1,350420,-11.611750602722168,-42.74062728881836,-6.315301418304443,12.541577339172363
1,350420,14.730510711669922,14.763472557067871,21.537452697753906,5.824051380157471
1,350420,12.554210662841797,45.197025299072266,10.658336639404297,-5.534306049346924
1,350420,-28.627418518066406,11.219337463378906,6.471834659576416,-15.548583984375
1,350420,-27.326446533203125,25.245988845825195,30.06962013244629,-14.196813583374023
1,350420,-12.441071510314941,13.423905372619629,19.638582229614258,7.799018859863281
1,350421,-23.36290168762207,-10.16589641571045,9.714269638061523,10.963878631591797
1,350421,-3.33616042137146,-7.312614440917969,26.073957443237305,-11.313708305358887
1,350421,35.61979675292969,-19.082191467285156,-20.007665634155273,2.511425256729126
1,350421,27.023639678955078,-21.482465744018555,-53.1856689453125,19.33203887939453
1,350421,-8.806775093078613,-9.777168273925781,-2.7378809452056885,3.600477457046509
1,350421,1.4905961751937866,8.521435737609863,1.2074041366577148,-6.4389543533325195
1,350422,15.345666885375977,-0.432090699672699,-27.27532386779785,-3.7973062992095947
1,350422,-15.224034309387207,-10.006916999816895,9.70229721069336,-0.19878582656383514
1,350422,-26.456939697265625,20.890628814697266,43.68886184692383,-7.891443729400635
1,350422,-22.24776840209961,22.965511322021484,26.495447158813477,-3.316770315170288
1,350422,10.855209350585938,5.439759254455566,2.34904146194458,-0.1566736102104187
1,350422,27.854825973510742,-9.022176742553711,-12.223719596862793,-12.683371543884277
1,350423,-10.83304214477539,-10.040987014770508,-15.716571807861328,19.83024024963379
1,350423,-3.5615878105163574,-6.654073238372803,-17.69379425048828,14.98876667022705
1,350423,26.247709274291992,-15.95603084564209,-16.987823486328125,-13.703746795654297
1,350423,8.43160629272461,7.83629035949707,-17.089340209960938,-12.52478313446045
1,350423,-5.418081283569336,0.32327958941459656,-26.83255958557129,-12.79745101928711
1,350424,-5.822603702545166,-28.23061180114746,20.51952362060547,16.97280502319336
1,350424,-16.301795959472656,5.266302585601807,41.64784240722656,8.197355270385742
1,350424,-1.3433183431625366,5.9765448570251465,-5.888674259185791,-4.516696453094482
1,350424,0.999645471572876,0.33535319566726685,1.7884187698364258,18.80581283569336
1,350424,-14.582701683044434,26.97612953186035,17.85763168334961,-1.227123498916626
1,350424,20.296802520751953,0.13439443707466125,-6.6017303466796875,-14.255361557006836
1,350426,23.450695037841797,-39.251129150390625,-31.687606811523438,-10.448296546936035
1,350426,-23.27510643005371,-16.063270568847656,-32.121707916259766,-21.829072952270508
1,350426,-14.50964641571045,26.399173736572266,-2.9498610496520996,8.660290718078613
1,350426,21.33109474182129,-3.7488837242126465,9.243462562561035,24.109535217285156
1,350428,24.62331199645996,-33.56978988647461,2.0021233558654785,-5.635324001312256
1,350429,35.89350891113281,22.611021041870117,4.6876301765441895,5.3091888427734375
1,350432,30.25676155090332,-1.520330786705017,-31.810400009155273,29.62271499633789
1,350433,8.829378128051758,-54.61077880859375,-72.0995101928711,-10.804027557373047
1,350436,3.8628435134887695,42.84827423095703,-9.219751358032227,-21.549135208129883
1,350437,-34.80549240112305,17.82317543029785,56.7345085144043,5.336503982543945
1,350440,-45.104400634765625,-15.393199920654297,63.4936408996582,-16.194965362548828
1,350441,-36.465030670166016,65.59939575195312,47.14005661010742,-16.66613006591797
1,350444,-38.1422233581543,46.449676513671875,30.65241050720215,13.39806842803955
1,350445,-0.41367316246032715,18.51459503173828,40.492279052734375,12.55785083770752
1,350448,9.409358978271484,-38.448265075683594,-22.210918426513672,9.18856430053711
1,350449,7.744685649871826,-38.27911376953125,-53.63279342651367,6.10202169418335
1,350452,41.88846969604492,-57.382225036621094,-70.06346130371094,-14.244123458862305
1,350453,24.061241149902344,-68.63801574707031,-54.01329040527344,0.7955862283706665
1,350456,18.055965423583984,76.41913604736328,64.05510711669922,28.358116149902344
1,350457,20.95436668395996,38.84374237060547,20.96672248840332,11.809647560119629
1,350460,-48.48899841308594,-24.377668380737305,10.252992630004883,-33.08436584472656
1,350543,-66.75800323486328,98.15027618408203,93.8653793334961,-22.86843490600586
1,350543,14.077887535095215,44.99776840209961,-9.478381156921387,17.900779724121094
1,350543,43.83262634277344,-88.26287078857422,-95.16946411132812,-4.74492073059082
1,350543,-17.922853469848633,-20.53894805908203,15.989044189453125,-18.719743728637695
1,350543,-30.07826805114746,45.33716583251953,55.871665954589844,-13.90601921081543
1,350543,-25.453001022338867,-0.6904705166816711,2.7002599239349365,0.9549791812896729
1,350544,-28.086774826049805,-8.716873168945312,34.36717224121094,26.605947494506836
1,350544,6.16426944732666,15.861396789550781,18.422700881958008,-2.0146713256835938
1,350544,23.109569549560547,-14.943438529968262,-47.15700149536133,0.20968851447105408
1,350544,30.488203048706055,-59.73579025268555,-52.91537094116211,2.937354564666748
1,350544,48.02583694458008,-60.68779754638672,-44.95412063598633,-17.495981216430664
1,350544,18.70195770263672,-4.858119487762451,-33.15838623046875,18.069414138793945
1,350545,-16.805721282958984,36.46169662475586,-0.32258206605911255,14.500579833984375
1,350545,-7.431394100189209,8.028559684753418,38.67277908325195,-4.2527313232421875
1,350545,-6.294471740722656,2.9156079292297363,35.20738220214844,0.7043872475624084
1,350545,-5.878167629241943,34.671653747558594,-1.8069862127304077,-27.01371955871582
1,350545,-1.7507632970809937,16.109302520751953,16.0449161529541,-1.7283310890197754
1,350545,-7.584868907928467,-4.440883159637451,21.72022819519043,27.2320499420166
1,350546,-12.070408821105957,-8.339944839477539,-19.451688766479492,5.5373616218566895
1,350546,9.373139381408691,-30.461265563964844,-19.440099716186523,12.629429817199707
1,350546,44.34342575073242,-9.99004077911377,-15.405850410461426,-4.587728500366211
1,350546,12.081317901611328,24.771881103515625,-17.48089027404785,-27.443208694458008
1,350546,-13.72589111328125,-23.461803436279297,-6.854905128479004,12.920251846313477
1,350547,7.76117467880249,-31.819181442260742,5.437378883361816,21.74925422668457
1,350547,-14.574594497680664,47.482547760009766,28.379972457885742,-4.696777820587158
1,350547,-25.980417251586914,35.958351135253906,9.582869529724121,-11.77444076538086
1,350547,-17.024578094482422,-11.085555076599121,-20.25172996520996,-21.21063804626465
1,350547,1.3063836097717285,0.13344308733940125,8.745199203491211,4.986378192901611
1,350547,26.907258987426758,-3.870267391204834,22.079551696777344,24.218162536621094
1,350548,18.230484008789062,-2.6581761837005615,-20.905960083007812,2.771698236465454
1,350548,-4.207866191864014,4.344799518585205,-36.573699951171875,-11.71667194366455
1,350548,2.2486379146575928,-16.837493896484375,-0.360738605260849,-3.3566348552703857
1,350548,3.262059211730957,-2.8529093265533447,5.597323894500732,-2.168782949447632
1,350548,-20.37293243408203,-10.938688278198242,-1.4691848754882812,-7.583440780639648
1,350548,-10.099692344665527,-5.718430995941162,13.045811653137207,2.2274978160858154
1,350549,3.4065847396850586,42.19758987426758,7.751951217651367,-3.859783172607422
1,350549,-3.529723882675171,9.271988868713379,-0.35007089376449585,-1.4344326257705688
1,350549,-6.181820869445801,-29.45149803161621,-0.725475013256073,-3.544029712677002
1,350549,11.878230094909668,-20.755796432495117,-10.353104591369629,-0.7525266408920288
1,350549,16.87286376953125,-2.210003614425659,-29.60900115966797,15.492427825927734
1,350549,7.6183762550354,-9.596277236938477,-4.837427616119385,19.23546028137207
1,350551,19.15758514404297,-23.727493286132812,21.81637191772461,26.690290451049805
1,350551,12.66759204864502,-0.26025596261024475,3.75032639503479,-2.2466747760772705
1,350551,-5.7215447425842285,29.559391021728516,-4.341413497924805,-20.062896728515625
1,350551,-12.94968032836914,20.753868103027344,4.335184097290039,8.979756355285645
1,350552,-9.170028686523438,-0.07974625378847122,27.329322814941406,2.130859136581421
1,350553,26.991945266723633,-25.695436477661133,-15.058077812194824,-14.813209533691406
1,350556,16.58677864074707,-6.12802267074585,-50.99047088623047,-1.4716508388519287
1,350557,-23.813302993774414,53.06029510498047,25.50922203063965,-11.868460655212402
1,350560,-57.611080169677734,36.47024917602539,66.86931610107422,-35.00138473510742
1,350561,-66.39964294433594,-11.018866539001465,43.08279037475586,-22.236047744750977
1,350564,-32.02604293823242,-32.112083435058594,43.349769592285156,16.7987117767334
1,350565,-23.36854362487793,21.046092987060547,32.60780715942383,6.310075283050537
1,350568,46.772125244140625,92.12881469726562,-45.64987564086914,-8.511174201965332
1,350569,82.07051086425781,0.3264507055282593,-82.74634552001953,28.323253631591797
1,350572,40.80705261230469,-152.43177795410156,-61.181190490722656,4.310135841369629
1,350573,32.307090759277344,-86.6484603881836,-17.34351921081543,-18.830089569091797
1,350576,-23.787084579467773,14.07594108581543,20.502704620361328,13.24748706817627
1,350577,-43.679901123046875,25.7958927154541,-13.581808090209961,10.150650024414062
1,350580,-5.83355712890625,63.96381759643555,22.456205368041992,13.155576705932617
1,350581,0.2561800181865692,10.39563274383545,51.031898498535156,38.947059631347656
1,350584,2.677574396133423,6.760482311248779,50.935691833496094,14.170624732971191
1,350585,-21.14238929748535,48.69394302368164,40.28363037109375,-24.980854034423828
1,350681,45.62114715576172,-42.15904235839844,-131.8096466064453,-48.690799713134766
1,350681,61.040035247802734,-24.826091766357422,-80.66697692871094,-41.13814926147461
1,350681,-95.4804916381836,41.77503204345703,127.76850128173828,26.62102699279785
1,350681,-65.46349334716797,12.20132064819336,57.81983947753906,30.80268096923828
1,350681,37.800140380859375,28.811222076416016,-7.552434921264648,-15.535038948059082
1,350681,20.579425811767578,11.780903816223145,-14.171377182006836,-11.008569717407227
1,350682,17.483386993408203,-30.211706161499023,-40.19099426269531,6.399492263793945
1,350682,17.897266387939453,-5.104564189910889,-8.42151927947998,6.371786594390869
1,350682,-13.841139793395996,8.657682418823242,-23.15401840209961,-2.627934217453003
1,350682,-15.823230743408203,-8.429673194885254,-13.8295259475708,2.6432018280029297
1,350682,9.678135871887207,-11.277517318725586,24.011228561401367,10.169768333435059
1,350682,-22.791929244995117,12.1917142868042,20.86575698852539,-8.206809043884277
1,350683,-42.29966354370117,6.187375545501709,38.280967712402344,1.1407592296600342
1,350683,4.902382850646973,-8.101099967956543,22.70885467529297,10.74160099029541
1,350683,18.859405517578125,2.2479922771453857,-25.34009552001953,-27.33650779724121
1,350683,13.75792121887207,-20.526086807250977,-36.061275482177734,-18.996004104614258
1,350683,24.662195205688477,-46.423484802246094,-35.391265869140625,24.769668579101562
1,350683,0.1558811515569687,-18.7008113861084,-8.322815895080566,12.886385917663574
1,350684,-2.820835828781128,8.24512767791748,21.702266693115234,-25.97153663635254
1,350684,19.609880447387695,-15.79214096069336,-3.2848727703094482,-12.932772636413574
1,350684,3.324781656265259,-9.605263710021973,-7.621138572692871,24.67174530029297
1,350684,-19.550949096679688,30.152509689331055,30.213037490844727,7.554659843444824
1,350684,-15.216245651245117,12.13841724395752,14.59478759765625,-10.061762809753418
1,350684,-3.6591267585754395,-2.8705050945281982,-17.242816925048828,10.878922462463379
1,350685,0.0671524703502655,22.53166389465332,13.188860893249512,10.015870094299316
1,350685,-2.3841657638549805,6.1348114013671875,9.321760177612305,-3.6808836460113525
1,350685,15.867132186889648,-21.00356101989746,-32.02571487426758,7.206334114074707
1,350685,25.002235412597656,-9.961137771606445,-21.902204513549805,7.679039001464844
1,350685,2.0253024101257324,-18.211441040039062,0.7056148052215576,-12.659743309020996
1,350686,0.506088137626648,-7.890814781188965,-2.256631374359131,0.04823184013366699
1,350686,-8.326117515563965,27.272531509399414,15.891881942749023,12.422059059143066
1,350686,-16.66109275817871,11.552096366882324,41.194461822509766,5.152710914611816
1,350686,-4.2615580558776855,13.64614200592041,-6.821094036102295,-0.7067394852638245
1,350686,11.455421447753906,20.94502830505371,-27.71525764465332,-3.1947011947631836
1,350686,4.943260192871094,-16.804357528686523,18.129907608032227,-5.538380146026611
1,350687,1.9264925718307495,-7.839996814727783,19.844995498657227,-8.303494453430176
1,350687,16.107912063598633,8.334744453430176,-31.112411499023438,3.6880414485931396
1,350687,-3.3035566806793213,-22.968961715698242,-39.83989715576172,-10.789746284484863
1,350687,-10.464812278747559,-30.338003158569336,-19.23748779296875,-21.619918823242188
1,350687,-0.9070449471473694,-10.724102973937988,-7.913468360900879,9.909398078918457
1,350687,-1.6935694217681885,25.172260284423828,23.002702713012695,17.588497161865234
1,350688,-9.087851524353027,31.285205841064453,9.988082885742188,-9.658023834228516
1,350688,-7.875172138214111,3.816627025604248,-7.6572418212890625,-8.474655151367188
1,350688,10.731998443603516,-0.23641052842140198,30.881698608398438,24.30490493774414
1,350688,4.43312931060791,11.586483001708984,19.8170108795166,8.970973014831543
1,350688,-6.125226020812988,-10.379745483398438,-13.187163352966309,-28.501806259155273
1,350688,3.8109800815582275,-29.239770889282227,-19.098426818847656,-3.3883190155029297
1,350690,14.033096313476562,-4.785147190093994,-47.67091751098633,24.46410369873047
1,350690,14.641502380371094,-2.187649726867676,-3.051349401473999,4.704595565795898
1,350690,3.1615257263183594,3.0485076904296875,41.396026611328125,-9.361817359924316
1,350690,-4.185187816619873,13.926051139831543,-0.2818131744861603,-12.369954109191895
1,350690,-16.65179443359375,-6.3709716796875,1.2417479753494263,4.892116546630859
1,350692,16.23288917541504,-19.1821231842041,-10.730748176574707,27.452857971191406
1,350693,45.02619934082031,6.68674373626709,-40.37961959838867,-7.694364547729492
1,350696,0.11554013192653656,11.51278305053711,10.62813949584961,-46.34891891479492
1,350697,-23.19977569580078,37.506961822509766,33.28883361816406,1.0610313415527344
1,350700,-59.3518180847168,82.88631439208984,33.51493453979492,11.870654106140137
1,350701,-58.5781364440918,-7.047966480255127,58.14293670654297,-36.798831939697266
1,350704,-3.9792349338531494,-67.60257720947266,45.94925308227539,19.91891860961914
1,350705,4.2476806640625,18.36240005493164,40.96820068359375,47.80360412597656
1,350708,24.05646514892578,-3.451066732406616,-44.246360778808594,31.220144271850586
1,350709,46.97014236450195,-70.62344360351562,-118.81043243408203,35.62424087524414
1,350712,35.93997573852539,-17.141077041625977,-55.420440673828125,-46.033329010009766
1,350713,-11.177014350891113,81.80413055419922,21.569866180419922,-58.65365219116211
1,350716,-22.157184600830078,-14.86649227142334,29.879972457885742,5.220227241516113
1,350717,10.461602210998535,-178.38417053222656,-37.9322624206543,1.3067495822906494
1,350720,-24.243595123291016,43.2069091796875,39.16273498535156,9.112726211547852
1,350721,-23.681989669799805,168.67420959472656,88.6645278930664,28.40765380859375
1,350724,-2.0608503818511963,18.464712142944336,-8.081616401672363,-8.530508995056152
1,350725,-24.42110824584961,10.66802978515625,0.015862295404076576,-57.61411666870117
1,350728,25.862682342529297,-19.147096633911133,-25.212251663208008,-4.459578990936279
1,350834,96.8736572265625,-115.20162200927734,-129.54412841796875,60.288734436035156
1,350834,26.668004989624023,-29.10757827758789,-35.99808883666992,-1.8433640003204346
1,350834,-82.04071044921875,90.1595230102539,127.9456787109375,-11.275961875915527
1,350835,-31.579465866088867,27.392526626586914,29.571544647216797,20.59075927734375
1,350835,24.451265335083008,-34.639652252197266,-52.753570556640625,-3.288571357727051
1,350835,33.11577224731445,-23.987178802490234,-30.088041305541992,-8.740448951721191
1,350835,21.2045955657959,-33.39011764526367,-42.35682678222656,-10.435311317443848
1,350835,-16.320096969604492,-1.3549033403396606,1.8788154125213623,-2.868562698364258
1,350835,4.370738506317139,35.814598083496094,35.72529602050781,0.006052274256944656
1,350836,-5.181617736816406,0.9300186634063721,25.95995330810547,-18.181072235107422
1,350836,-48.69380187988281,0.5072425007820129,13.912330627441406,-21.055015563964844
1,350836,-42.512176513671875,32.845516204833984,50.08552169799805,12.810195922851562
1,350836,-8.69874095916748,15.9248685836792,43.656761169433594,28.497173309326172
1,350836,14.811582565307617,-18.876113891601562,-34.88207244873047,3.2762975692749023
1,350837,27.509815216064453,-3.5147488117218018,-12.296566009521484,-0.6972082257270813
1,350837,33.19087219238281,-11.522469520568848,-3.505877733230591,11.338170051574707
1,350837,14.019640922546387,-22.82901382446289,-39.7558708190918,-0.6597009301185608
1,350837,-3.4180967807769775,1.1306601762771606,-4.867508411407471,-2.572864055633545
1,350837,-11.441513061523438,11.304205894470215,13.925299644470215,-6.361395359039307
1,350837,-24.606447219848633,19.9224853515625,2.8965680599212646,-13.567264556884766
1,350838,-25.778270721435547,3.9463090896606445,24.14631462097168,-2.3115241527557373
1,350838,-17.966251373291016,9.004959106445312,41.694580078125,5.831411361694336
1,350838,-3.0783305168151855,13.012062072753906,1.4981412887573242,11.351964950561523
1,350838,19.155345916748047,2.3220858573913574,-24.163679122924805,0.7875910401344299
1,350838,14.050623893737793,-0.11595593392848969,-24.87279510498047,13.617879867553711
1,350838,4.139191627502441,-22.33144187927246,-18.442108154296875,3.9705939292907715
1,350839,24.674938201904297,-2.0244739055633545,0.7332649827003479,-18.632503509521484
1,350839,11.854473114013672,39.330806732177734,0.13018111884593964,11.298539161682129
1,350839,-8.57338809967041,21.809328079223633,-3.0402448177337646,-0.26180946826934814
1,350839,-2.9614174365997314,-16.415843963623047,18.35567283630371,-19.160478591918945
1,350839,-25.471351623535156,-10.443078994750977,31.334426879882812,-3.7125027179718018
1,350839,-19.837549209594727,22.32938575744629,10.053813934326172,-0.2094726264476776
1,350840,12.51090145111084,14.871129989624023,-2.9279284477233887,3.088055372238159
1,350840,-9.485282897949219,-17.7979793548584,-4.202157974243164,-3.6311495304107666
1,350840,-5.853558540344238,-7.942619800567627,3.070983409881592,-2.663280487060547
1,350840,24.380830764770508,3.982581377029419,-2.599912405014038,-1.517248511314392
1,350840,12.316905975341797,-30.50308609008789,-18.726877212524414,6.079848766326904
1,350840,-1.6519546508789062,-41.022727966308594,-18.640932083129883,8.65954303741455
1,350841,5.893588066101074,-5.6143317222595215,-8.534916877746582,-8.332367897033691
1,350841,4.4129791259765625,13.478809356689453,3.1781370639801025,2.8175547122955322
1,350841,-9.973400115966797,-4.1746368408203125,20.072673797607422,0.08900018036365509
1,350841,1.4367696046829224,-1.3548030853271484,8.116436958312988,-25.37525177001953
1,350841,1.7957112789154053,-2.1855649948120117,-19.209766387939453,6.785736083984375
1,350841,-16.17970085144043,-4.377047538757324,7.2791948318481445,36.98033142089844
1,350842,-2.2341082096099854,44.324989318847656,0.5570464134216309,-12.901472091674805
1,350842,5.727382183074951,8.683304786682129,-17.459339141845703,-8.473809242248535
1,350842,3.0385234355926514,-51.349727630615234,-3.2414443492889404,19.379526138305664
1,350842,-2.941462516784668,-24.759510040283203,-11.559629440307617,5.115143775939941
1,350842,-9.76568603515625,-1.14853036403656,0.7412272095680237,15.081357955932617
1,350842,13.413131713867188,20.389484405517578,12.009435653686523,-11.03764820098877
1,350843,-7.180508613586426,2.906733512878418,4.88335657119751,-29.82561492919922
1,350843,-21.437917709350586,-50.94159698486328,1.849732518196106,8.666020393371582
1,350843,4.796616077423096,-3.4737682342529297,0.22138026356697083,6.82406759262085
1,350844,15.245884895324707,4.543520927429199,2.6078662872314453,6.7214674949646
1,350844,15.478458404541016,-23.69307518005371,-4.179459095001221,25.264484405517578
1,350845,-2.177722930908203,31.297182083129883,-9.53870964050293,-17.825668334960938
1,350845,-4.129166126251221,17.265005111694336,5.168356418609619,-25.19389533996582
1,350845,-1.6628330945968628,13.808094024658203,12.92803955078125,-6.165286064147949
1,350846,18.212650299072266,-10.467751502990723,-34.63228988647461,15.944622993469238
1,350848,65.56600189208984,-12.882277488708496,-26.215492248535156,78.67522430419922
1,350849,57.2226676940918,61.97838592529297,9.795462608337402,34.400753021240234
1,350852,6.0566816329956055,-28.664358139038086,-88.9554214477539,-86.29803466796875
1,350853,0.4338255822658539,-60.70331954956055,-48.34305191040039,-37.005760192871094
1,350856,-51.16731643676758,92.9324722290039,68.5096664428711,-3.711829900741577
1,350857,-63.542381286621094,62.469627380371094,18.499515533447266,-63.481224060058594
1,350860,29.537702560424805,-15.311830520629883,59.23041915893555,43.11435317993164
1,350861,-17.308921813964844,47.945159912109375,96.92282104492188,58.58004379272461
1,350864,-116.24935913085938,-7.5330681800842285,48.91706085205078,-46.74382400512695
1,350865,-66.0051498413086,-85.69721984863281,15.06861686706543,-53.331443786621094
1,350868,31.609209060668945,28.848255157470703,-74.2208480834961,-7.59635591506958
1,350869,36.86211013793945,126.49707794189453,-74.29521942138672,10.684235572814941
1,350872,69.69034576416016,-170.45375061035156,1.0210546255111694,5.89516544342041
1,350873,100.87162780761719,-239.78782653808594,-8.245997428894043,30.410682678222656
1,350876,-11.570514678955078,106.85478210449219,-10.114087104797363,63.58245086669922
1,350877,-87.55941772460938,35.21940231323242,-44.635169982910156,68.02793884277344
1,350880,43.023643493652344,-4.107665061950684,2.8137032985687256,51.335533142089844
1,350881,83.17121124267578,92.7865982055664,128.7913818359375,46.34800338745117
1,350884,-127.50862884521484,-22.350128173828125,38.3652229309082,-122.95443725585938
1,350885,-98.88616943359375,20.270042419433594,-45.80937957763672,-152.92967224121094
1,351004,17.10704231262207,57.5616455078125,-49.041656494140625,0.32781368494033813
1,351004,-21.87822914123535,-23.69906997680664,-18.682537078857422,10.730165481567383
1,351004,24.229263305664062,18.954530715942383,79.0169448852539,41.801963806152344
1,351004,23.307159423828125,48.692440032958984,41.36884689331055,5.570969104766846
1,351005,-15.487360954284668,-33.633583068847656,-38.6365852355957,-20.686445236206055
1,351005,21.630773544311523,-42.006752014160156,-25.582008361816406,6.014965057373047
1,351005,61.22462844848633,11.617040634155273,-31.66792106628418,-9.655356407165527
1,351005,58.09648132324219,-26.580148696899414,-52.79798126220703,8.633679389953613
1,351005,21.64763641357422,-51.252376556396484,-26.104393005371094,26.699094772338867
1,351005,-6.519775390625,13.839448928833008,37.955623626708984,23.61553382873535
1,351006,-15.704524993896484,15.099119186401367,55.7487678527832,21.177335739135742
1,351006,-23.261220932006836,0.1966448724269867,16.93682289123535,1.333847165107727
1,351006,-26.897693634033203,26.553871154785156,10.306556701660156,-22.52046775817871
1,351006,-19.863115310668945,23.08144760131836,24.838436126708984,-7.638153076171875
1,351006,-19.06871223449707,6.2441606521606445,7.668161869049072,-27.89590835571289
1,351006,-24.878822326660156,-3.4299890995025635,-17.26827621459961,-13.75052547454834
1,351007,15.27392864227295,-11.067391395568848,-21.792449951171875,11.430951118469238
1,351007,53.79618453979492,-40.57582473754883,-42.20633316040039,-11.408919334411621
1,351007,10.901972770690918,-42.42097854614258,-25.306324005126953,8.982004165649414
1,351007,-11.934739112854004,1.519095540046692,-3.259159564971924,21.28822898864746
1,351007,16.65960693359375,16.2844295501709,-15.381202697753906,16.520448684692383
1,351007,3.583386182785034,34.54978942871094,29.077144622802734,13.916495323181152
1,351008,-28.866443634033203,44.229766845703125,43.440731048583984,0.4962501525878906
1,351008,-8.725603103637695,11.126436233520508,-14.963290214538574,-10.173063278198242
1,351008,4.379420757293701,-1.0403772592544556,-31.050579071044922,-21.075817108154297
1,351008,-19.245407104492188,-27.92337417602539,-16.06278419494629,-18.267351150512695
1,351008,10.743223190307617,-5.013335227966309,-17.45152473449707,-3.0713000297546387
1,351009,40.98883819580078,37.43482208251953,-19.25368309020996,4.568269729614258
1,351009,7.318447113037109,3.8661460876464844,-10.287689208984375,7.509612083435059
1,351009,-15.861520767211914,10.44967269897461,1.5903608798980713,11.827470779418945
1,351009,-3.201101541519165,9.457362174987793,11.22795295715332,1.0804857015609741
1,351009,0.02743135392665863,-9.9945707321167,19.200820922851562,4.393389701843262
1,351009,-9.185523986816406,6.874073028564453,12.423108100891113,29.306533813476562
1,351010,-9.897051811218262,4.013369560241699,28.86313819885254,0.7261000871658325
1,351010,-2.2623815536499023,-19.264293670654297,33.532081604003906,-23.95602035522461
1,351010,13.858023643493652,-19.76166343688965,-12.127753257751465,-15.59776496887207
1,351010,15.026848793029785,-23.739076614379883,-31.256174087524414,-13.997692108154297
1,351010,-13.25190258026123,-31.472700119018555,-12.300981521606445,10.484503746032715
1,351010,-5.505680084228516,-15.8350830078125,3.653545379638672,1.4289416074752808
1,351011,27.875085830688477,-23.66033935546875,20.972640991210938,-4.232276439666748
1,351011,-7.345584392547607,-23.28794288635254,19.971424102783203,26.93682861328125
1,351011,-22.10895538330078,12.765616416931152,3.2598936557769775,10.014620780944824
1,351011,7.35324239730835,3.5274057388305664,5.702028274536133,-16.690513610839844
1,351011,-8.486679077148438,-16.17872428894043,-1.3134979009628296,2.3400094509124756
1,351011,-18.376842498779297,15.467314720153809,-15.306785583496094,-8.541487693786621
1,351012,-3.064636468887329,16.164928436279297,7.268072128295898,-7.914729118347168
1,351012,13.87353801727295,-10.519972801208496,16.890758514404297,24.257089614868164
1,351012,8.658928871154785,7.102267265319824,-32.579505920410156,-5.871678829193115
1,351012,-0.4011281728744507,10.627063751220703,-27.292936325073242,-14.996119499206543
1,351012,5.164365291595459,-8.991439819335938,31.69989776611328,0.8774350881576538
1,351012,2.3060145378112793,5.817946910858154,7.770445823669434,5.800208568572998
1,351013,-18.232879638671875,21.603500366210938,-10.971442222595215,6.962602615356445
1,351013,-3.9951162338256836,2.6050472259521484,17.269712448120117,-0.9159588813781738
1,351013,19.96756935119629,-12.811471939086914,-11.704521179199219,-6.189460754394531
1,351013,-11.930006980895996,16.992258071899414,-18.872528076171875,-14.644165992736816
1,351013,-13.743752479553223,7.33163595199585,14.435282707214355,7.567612171173096
1,351013,7.228989124298096,-4.663305282592773,1.2406984567642212,20.62332534790039
1,351014,17.736886978149414,18.359304428100586,-13.942484855651855,5.936068534851074
1,351014,18.345674514770508,8.699019432067871,6.671907901763916,1.1132609844207764
1,351015,-3.419013500213623,5.389761924743652,11.413507461547852,3.909614086151123
1,351015,-14.618078231811523,-7.0131330490112305,-22.36972427368164,2.5500035285949707
1,351015,-4.912603855133057,-18.392887115478516,-29.5955810546875,-14.293970108032227
1,351015,-0.6952743530273438,15.072456359863281,33.03379821777344,9.625486373901367
1,351016,-2.1722524166107178,52.9252815246582,37.387264251708984,16.59243392944336
1,351016,-7.780612468719482,3.3340771198272705,-33.286407470703125,-32.49251937866211
1,351017,-21.597150802612305,-19.262767791748047,5.326807022094727,-18.0457763671875
1,351020,-25.74833869934082,73.89630889892578,69.94779205322266,8.182982444763184
1,351021,-12.346153259277344,46.31948471069336,39.911930084228516,-15.598824501037598
1,351024,-47.35246658325195,-28.486644744873047,29.105031967163086,-31.81972312927246
1,351025,-61.9581184387207,22.540021896362305,1.341662883758545,-14.99834156036377
1,351028,94.13152313232422,-30.814064025878906,-99.87863159179688,22.741710662841797
1,351029,122.40998840332031,-151.22653198242188,-68.63146209716797,5.693249702453613
1,351032,23.430866241455078,-57.72797775268555,13.237730979919434,3.177135467529297
1,351033,21.80853843688965,61.59452819824219,-41.26277160644531,35.21137619018555
1,351036,-12.264023780822754,-1.7437400817871094,-28.602144241333008,15.544418334960938
1,351037,-28.743820190429688,-54.28822326660156,32.94865798950195,11.130948066711426
1,351040,-49.140621185302734,-10.532905578613281,46.675933837890625,-9.638520240783691
1,351041,-45.77483367919922,175.15866088867188,56.17304992675781,-35.61408996582031
1,351044,-4.506624221801758,59.70635223388672,14.119285583496094,-21.51763343811035
1,351045,-14.046279907226562,-247.41122436523438,-15.734938621520996,15.342238426208496
1,351048,21.051666259765625,-16.96257972717285,2.605715274810791,21.403297424316406
1,351049,51.00210189819336,127.85865783691406,-47.57837677001953,-23.49004364013672
1,351052,40.664608001708984,-58.038978576660156,-71.72177124023438,30.01516342163086
1,351053,12.076634407043457,-53.470638275146484,1.5107576847076416,67.32386016845703
1,351056,-14.872797012329102,56.885894775390625,21.23940658569336,-7.3061203956604
1,351057,10.007498741149902,54.588932037353516,29.644773483276367,-8.615738868713379
1,351187,-67.53736114501953,20.117958068847656,94.70413970947266,-20.111881256103516
1,351187,-63.80427551269531,-25.558202743530273,18.973234176635742,-41.87661361694336
1,351187,96.21035766601562,-50.44443130493164,-101.15900421142578,17.420989990234375
1,351187,44.781150817871094,19.80469512939453,-34.694313049316406,11.858119010925293
1,351187,-55.05026626586914,42.36788558959961,45.56242752075195,-15.743385314941406
1,351187,-40.390296936035156,25.416704177856445,69.90654754638672,0.6970757246017456
1,351188,-17.66489028930664,38.873802185058594,35.33946228027344,-24.15530776977539
1,351188,-20.95635414123535,13.875797271728516,-16.28561782836914,-27.056472778320312
1,351188,-12.533029556274414,-33.830726623535156,-25.48719024658203,10.35635757446289
1,351188,31.330825805664062,-19.165536880493164,-54.7001953125,-5.583840370178223
1,351188,51.095481872558594,-9.568562507629395,-56.21213150024414,-8.123272895812988
1,351189,46.27569580078125,-38.85337448120117,-20.80304718017578,39.139644622802734
1,351189,13.910269737243652,-29.448305130004883,-8.31161117553711,31.756797790527344
1,351189,-13.431991577148438,4.439035892486572,-16.1995906829834,-20.931211471557617
1,351189,-26.70888900756836,7.168178081512451,24.767122268676758,6.629788875579834
1,351189,-25.766443252563477,23.6894588470459,66.21710205078125,15.833261489868164
1,351189,2.941889762878418,40.432640075683594,21.3680362701416,-33.260257720947266
1,351190,-3.545314311981201,-12.857361793518066,-5.395308494567871,-11.43373966217041
1,351190,-10.922595977783203,-45.735740661621094,-4.157558441162109,15.689406394958496
1,351190,37.83146667480469,-14.186436653137207,-34.357330322265625,-1.5181910991668701
1,351190,19.901613235473633,-13.150352478027344,-26.49215316772461,-7.449629306793213
1,351190,-14.071878433227539,13.82176685333252,2.3479857444763184,7.117313385009766
1,351190,21.785062789916992,80.74825286865234,-1.0206037759780884,-12.071106910705566
1,351191,3.9683327674865723,88.16827392578125,-8.628462791442871,-11.160120964050293
1,351191,-36.62797164916992,67.05697631835938,4.526984691619873,23.385026931762695
1,351191,-19.7864990234375,38.43032455444336,35.41802215576172,-8.246512413024902
1,351191,-1.5507570505142212,-15.359077453613281,17.487796783447266,-50.23847961425781
1,351191,-11.610100746154785,-38.21038818359375,-28.500017166137695,-11.971491813659668
1,351191,-6.2386016845703125,-16.98316192626953,-3.609661340713501,22.074970245361328
1,351192,6.244719982147217,-49.73741149902344,19.377391815185547,5.397318363189697
1,351192,10.568948745727539,-73.57195281982422,-13.263944625854492,5.366198539733887
1,351192,22.782283782958984,-47.61268997192383,-7.45350456237793,4.902007102966309
1,351192,11.842327117919922,-68.72419738769531,20.98394012451172,18.422739028930664
1,351192,-6.25097131729126,-59.0840950012207,2.747710943222046,20.178909301757812
1,351192,-23.470998764038086,-33.85590362548828,-9.359262466430664,-4.589444637298584
1,351193,-27.32917594909668,-47.04914093017578,23.73444175720215,10.730228424072266
1,351193,-8.067214965820312,7.9142231941223145,35.73248291015625,2.6352107524871826
1,351193,-3.9420628547668457,46.99696350097656,6.165607929229736,-23.957914352416992
1,351193,10.710101127624512,-7.16199254989624,-6.24080228805542,-10.553994178771973
1,351193,16.127565383911133,-11.50691032409668,-6.31657600402832,2.9289746284484863
1,351193,10.784954071044922,12.457449913024902,-29.68670654296875,6.284210681915283
1,351194,2.9629950523376465,1.2886823415756226,-15.017065048217773,20.993284225463867
1,351194,1.345001220703125,4.478730201721191,11.780067443847656,31.923830032348633
1,351194,10.719830513000488,30.5064754486084,-1.6158573627471924,-2.5540919303894043
1,351194,-2.9746479988098145,51.8441162109375,-13.915323257446289,-40.20753479003906
1,351194,-5.560832500457764,49.89327621459961,0.6347138285636902,-7.703688621520996
1,351194,2.722738742828369,58.940391540527344,21.03619956970215,12.555428504943848
1,351195,-15.574541091918945,30.17818832397461,-7.055880546569824,2.3194339275360107
1,351195,-23.985706329345703,-8.424239158630371,1.5853723287582397,3.932250738143921
1,351195,23.790048599243164,10.79958438873291,-6.390413761138916,-6.899571418762207
1,351195,23.401397705078125,-7.485825538635254,-36.772315979003906,-10.575838088989258
