Aktueller Finger,timestamp_ms,sensor_0,sensor_1,sensor_2,sensor_3
0,445010,14.465519905090332,2.142761468887329,-4.966033458709717,14.213478088378906
0,445013,1.1104375123977661,-29.202667236328125,-4.972101211547852,4.47243070602417
0,445014,23.217742919921875,-8.172239303588867,0.03805823251605034,-20.360746383666992
0,445015,-8.934112548828125,7.469625949859619,-18.22904396057129,-36.758758544921875
0,445018,-25.173233032226562,-1.672188639640808,23.466262817382812,32.33771514892578
0,445019,27.989179611206055,31.108440399169922,34.32140350341797,23.30898666381836
0,445022,-5.5394792556762695,-1.887328863143921,-35.56877899169922,-2.9695780277252197
0,445023,-15.745415687561035,-39.78559494018555,-3.713050603866577,55.6095085144043
0,445217,7.147095203399658,9.881539344787598,29.043167114257812,-31.935611724853516
0,445217,-27.770498275756836,-1.1739667654037476,-13.371618270874023,-75.29853820800781
0,445217,-1.1297264099121094,-13.19038200378418,-15.0992431640625,35.32585525512695
0,445217,24.577329635620117,24.010583877563477,-2.5040605068206787,23.28297996520996
0,445218,5.100098609924316,16.57341957092285,-7.168557167053223,-12.466497421264648
0,445218,2.2461583614349365,-8.08333683013916,-4.4979705810546875,9.464147567749023
0,445218,-5.573927402496338,-13.320789337158203,-10.341573715209961,-9.073578834533691
0,445218,-10.664018630981445,-12.81922435760498,7.26138162612915,3.195281744003296
0,445218,15.758244514465332,6.576180934906006,32.89852523803711,9.076472282409668
0,445218,15.110384941101074,15.70818042755127,2.1479368209838867,-33.60445785522461
0,445219,-9.8822603225708,13.855127334594727,-6.309277534484863,13.555744171142578
0,445219,-0.9454196691513062,7.964844226837158,4.255870819091797,36.072872161865234
0,445219,2.3479983806610107,-20.320119857788086,-5.826845169067383,-18.53243064880371
0,445219,-8.413783073425293,-4.242253303527832,2.376516103744507,-16.24152946472168
0,445219,1.2405980825424194,13.129918098449707,-8.467826843261719,1.6546257734298706
0,445219,2.8117074966430664,-8.447007179260254,-11.92680549621582,8.549470901489258
0,445220,1.0116068124771118,-3.5654356479644775,2.77304744720459,10.489362716674805
0,445220,-0.1589781939983368,-0.4466380774974823,-2.5770277976989746,11.264598846435547
0,445220,-15.217754364013672,-4.939748287200928,7.625087738037109,-3.2064247131347656
0,445220,-0.80605548620224,-7.099905490875244,-8.291487693786621,-26.310028076171875
0,445220,8.626524925231934,-6.002831935882568,-4.1517815589904785,3.1388401985168457
0,445221,10.459940910339355,11.23254680633545,26.130788803100586,20.455808639526367
0,445221,1.8313623666763306,-0.9383148550987244,-12.329283714294434,-20.376182556152344
0,445221,-17.96434783935547,-6.873405933380127,-20.59300422668457,-16.50919532775879
0,445221,-4.2866411209106445,-2.5077064037323,13.235092163085938,13.903806686401367
0,445221,-7.860995769500732,2.5323095321655273,19.256328582763672,1.9993548393249512
0,445221,8.25157356262207,12.625500679016113,-4.722616195678711,-1.6672451496124268
0,445222,24.88199806213379,-1.6579338312149048,-17.282882690429688,1.5973527431488037
0,445222,-6.241788864135742,0.07703730463981628,6.195008754730225,-12.811728477478027
0,445222,-13.714390754699707,-7.243303298950195,0.12035468965768814,-14.411538124084473
0,445222,-3.7320075035095215,-10.180159568786621,-5.0992751121521,9.216978073120117
0,445222,-0.11082029342651367,19.957490921020508,19.9731388092041,26.903039932250977
0,445222,4.645596981048584,34.308448791503906,11.188297271728516,11.132205963134766
0,445223,12.451969146728516,0.3480066657066345,-20.196943283081055,-11.840654373168945
0,445223,-7.432830333709717,-45.01469421386719,-7.94395112991333,-18.050045013427734
0,445223,-11.102253913879395,-17.156919479370117,10.843972206115723,-0.8400598168373108
0,445223,14.502002716064453,35.355079650878906,-0.7558979988098145,23.81296157836914
0,445223,10.260892868041992,19.107097625732422,4.640613555908203,-0.7560632228851318
0,445223,-5.7299065589904785,-17.643089294433594,-2.041151523590088,-1.7218422889709473
0,445224,-5.703990459442139,-10.861661911010742,-18.819067001342773,10.392964363098145
0,445224,11.309977531433105,-6.989699363708496,5.342239856719971,-20.22149658203125
0,445224,-3.461487293243408,6.0026631355285645,16.617919921875,-5.829070568084717
0,445224,-22.793067932128906,10.09541130065918,-15.571621894836426,11.389192581176758
0,445224,-2.6249232292175293,-25.68896484375,-10.431347846984863,0.3588974177837372
0,445224,4.866440773010254,-12.343276023864746,13.763693809509277,6.448050498962402
0,445225,6.603969097137451,20.83441162109375,-11.819972038269043,1.3892414569854736
0,445225,10.487414360046387,7.5127129554748535,-1.3378019332885742,-8.305424690246582
0,445225,-23.900531768798828,-7.103902816772461,11.847854614257812,18.210098266601562
0,445225,-22.847896575927734,-3.6795523166656494,-3.4728312492370605,-5.579982280731201
0,445225,42.80780792236328,13.19330883026123,6.267277240753174,-31.342483520507812
0,445225,33.751651763916016,16.785287857055664,5.685277938842773,4.7504401206970215
0,445226,-30.686750411987305,0.5225718021392822,-3.1268270015716553,2.5297999382019043
0,445226,-16.947237014770508,-26.712787628173828,-9.129331588745117,6.118950366973877
0,445226,17.508039474487305,-20.306955337524414,4.34692907333374,26.049726486206055
0,445226,-1.8167234659194946,43.762046813964844,9.04903507232666,0.7106716632843018
0,445226,-12.905149459838867,19.50334358215332,-12.820282936096191,-24.78378677368164
0,445226,5.377642631530762,-38.20215606689453,-6.185013294219971,-2.408515214920044
0,445227,1.8748277425765991,-16.61741828918457,19.766427993774414,12.157649993896484
0,445227,-4.942165851593018,9.627127647399902,2.401134729385376,-13.83764362335205
0,445227,2.820401906967163,5.171579837799072,-17.947162628173828,-14.32559871673584
0,445227,-8.309713363647461,2.6315865516662598,4.536963939666748,23.69742774963379
0,445227,0.7330187559127808,7.719028949737549,13.140846252441406,22.398832321166992
0,445227,24.42098045349121,10.933876037597656,-4.9643473625183105,-28.370607376098633
0,445228,7.768162250518799,-4.017550945281982,-5.6979146003723145,-32.98799514770508
0,445228,-21.24156379699707,-22.584321975708008,13.117630004882812,9.13740062713623
0,445228,-15.999532699584961,13.262471199035645,15.398423194885254,24.697696685791016
0,445228,17.678977966308594,14.272778511047363,-8.434779167175293,-9.124558448791504
0,445228,10.247568130493164,-17.96306037902832,-24.77405548095703,-24.624910354614258
0,445228,-18.646770477294922,0.4514235854148865,8.413817405700684,21.410175323486328
0,445229,-3.9425854682922363,-10.887765884399414,30.157363891601562,21.651351928710938
0,445229,10.7076416015625,-15.114574432373047,-24.375192642211914,-17.634180068969727
0,445229,-3.548865556716919,22.62020492553711,-22.318117141723633,-2.7485532760620117
0,445229,-11.557156562805176,12.66230297088623,28.22058868408203,9.358989715576172
0,445229,18.364543914794922,-10.06588077545166,-12.62678337097168,-2.504652261734009
0,445229,7.661322116851807,-22.20062828063965,-18.990398406982422,3.414050817489624
0,445230,-29.793251037597656,-7.124644756317139,14.802546501159668,14.775259017944336
0,445230,15.584500312805176,30.06726837158203,-9.83957576751709,-6.871767997741699
0,445230,9.798898696899414,1.2961300611495972,-16.56336784362793,-13.09130859375
0,445230,-14.828035354614258,-7.234565734863281,14.514269828796387,18.330263137817383
0,445230,7.824637413024902,25.331228256225586,27.523235321044922,-3.1604268550872803
0,445231,-5.176980972290039,6.177783012390137,3.5594213008880615,-9.128528594970703
0,445231,2.7976911067962646,-21.060726165771484,-17.99165153503418,20.27733039855957
0,445231,3.256392002105713,-18.594192504882812,-2.258805990219116,-7.588195323944092
0,445231,1.3961412906646729,13.067451477050781,20.896333694458008,-21.833343505859375
0,445231,-1.4309000968933105,10.32577133178711,17.583131790161133,1.1832642555236816
0,445231,-4.502309799194336,-2.446138858795166,-8.564103126525879,12.630115509033203
0,445232,10.67521858215332,3.6296896934509277,-20.874242782592773,8.45419692993164
0,445232,-5.057003974914551,-9.80288314819336,9.952204704284668,-23.33871841430664
0,445232,1.6253503561019897,-9.737678527832031,10.748855590820312,-7.275723934173584
0,445232,7.727491855621338,10.047577857971191,-21.33924102783203,14.346480369567871
0,445232,-9.220020294189453,6.134069442749023,-6.702540874481201,-12.135016441345215
0,445232,-1.5863730907440186,-22.720226287841797,7.4471869468688965,-1.5431675910949707
0,445233,3.841400623321533,1.4319217205047607,-7.028141498565674,9.283141136169434
0,445233,-12.737794876098633,19.456449508666992,-13.006418228149414,11.863898277282715
0,445233,-11.207913398742676,-19.0701961517334,-5.520227432250977,8.551046371459961
0,445233,13.583988189697266,2.510242223739624,18.351449966430664,-16.370206832885742
0,445234,9.202410697937012,12.415027618408203,11.446003913879395,-8.768936157226562
0,445235,3.04764461517334,-15.0741605758667,-0.7365683317184448,13.816621780395508
0,445235,2.172245740890503,7.107268810272217,-0.09160172194242477,1.227792501449585
0,445235,-5.825348854064941,1.3452175855636597,-18.852130889892578,7.678833961486816
0,445235,-11.771173477172852,2.5104949474334717,0.2422313392162323,11.746403694152832
0,445235,4.925567626953125,14.492048263549805,16.86260414123535,-28.962352752685547
0,445235,15.918789863586426,-3.9514622688293457,2.5696792602539062,6.78702449798584
0,445235,-6.6862640380859375,-10.064787864685059,-0.6491618752479553,29.567049026489258
0,445236,-0.5676736831665039,3.075263261795044,-4.375810146331787,-26.573394775390625
0,445237,2.021811008453369,10.876739501953125,-6.573803901672363,-18.475486755371094
0,445238,-16.13263511657715,-1.075524926185608,-16.10284996032715,16.357175827026367
0,445240,-9.365059852600098,-4.686367511749268,8.258930206298828,21.956966400146484
0,445495,22.9199275970459,-14.053019523620605,21.82168960571289,2.2379443645477295
0,445496,9.204115867614746,-10.006677627563477,-10.878028869628906,-11.343864440917969
0,445499,-22.63984489440918,14.763381958007812,-14.89915943145752,-8.90127944946289
0,445500,20.33918571472168,1.1624048948287964,-12.167644500732422,-12.902481079101562
0,445503,10.984737396240234,1.3161777257919312,7.945721626281738,-9.913784980773926
0,445504,-31.760129928588867,16.899986267089844,23.85280418395996,8.107346534729004
0,445507,-1.089031457901001,-15.102564811706543,-18.11939811706543,13.01567268371582
0,445508,7.4061174392700195,-7.643818378448486,-21.202863693237305,-1.4504923820495605
0,453808,-1.9346882104873657,28.372133255004883,32.904762268066406,-5.66831111907959
0,453808,3.5547077655792236,-11.526025772094727,8.963696479797363,-21.357824325561523
0,453809,-2.0813024044036865,-25.887985229492188,-17.486867904663086,-9.589930534362793
0,453809,-6.909160137176514,10.009553909301758,24.39944839477539,21.39468765258789
0,453809,14.936559677124023,12.875565528869629,4.3058762550354,8.192761421203613
0,453809,10.247934341430664,10.087563514709473,-27.698904037475586,-12.293434143066406
0,453809,-23.301538467407227,-8.522544860839844,-6.419497966766357,11.45304012298584
0,453809,1.5961415767669678,-21.041854858398438,26.417234420776367,32.15135955810547
0,453810,14.100720405578613,5.634213447570801,24.158510208129883,8.507658958435059
0,453810,-7.519681453704834,22.817005157470703,-20.725322723388672,-17.103673934936523
0,453810,-7.271784782409668,-12.228592872619629,-16.917768478393555,-15.059209823608398
0,453810,10.130754470825195,-25.92819595336914,5.017559051513672,3.3742740154266357
0,453810,8.670008659362793,14.426554679870605,6.856734275817871,23.416101455688477
0,453811,-13.13903522491455,18.8523006439209,-7.0227227210998535,17.3131160736084
0,453811,-3.5387818813323975,-10.690567016601562,-15.908117294311523,-4.612398624420166
0,453811,-5.258556842803955,-19.408859252929688,15.436284065246582,-16.0096492767334
0,453811,0.3470531404018402,4.874878883361816,-1.707403302192688,-24.875411987304688
0,453811,8.668420791625977,13.858552932739258,-19.057025909423828,4.326276779174805
0,453811,-10.49953842163086,0.4645918905735016,2.168020248413086,22.450862884521484
0,453812,-5.893305778503418,-14.456364631652832,3.329125165939331,-28.972627639770508
0,453812,10.436840057373047,0.91302090883255,4.632638931274414,-41.26596450805664
0,453812,11.52236557006836,11.055573463439941,-5.207564353942871,22.316030502319336
0,453812,0.4470081627368927,-7.844803333282471,-3.3085012435913086,16.27500343322754
0,453812,-6.552409648895264,9.163125038146973,7.727938175201416,-8.362707138061523
0,453812,-2.532240867614746,17.997249603271484,12.604629516601562,11.257062911987305
0,453813,13.845001220703125,-6.9099440574646,-2.722834587097168,-5.902984619140625
0,453813,-0.09839707612991333,-9.999332427978516,1.5780292749404907,-5.140309810638428
0,453813,-7.269211292266846,6.1309990882873535,22.149188995361328,-2.6574556827545166
0,453813,7.804809093475342,2.1248724460601807,-13.65683364868164,-10.964332580566406
0,453813,8.565848350524902,-1.0343303680419922,-10.58650016784668,17.309282302856445
0,453813,2.9860243797302246,-2.505424737930298,15.706068992614746,19.824905395507812
0,453814,-16.068437576293945,-1.953991413116455,-3.3720719814300537,-10.828816413879395
0,453814,-1.0663292407989502,17.9108829498291,-20.711416244506836,3.6790969371795654
0,453814,9.008007049560547,14.718461990356445,-0.366067498922348,4.771908283233643
0,453814,-10.775485038757324,-32.81784439086914,24.66391944885254,-25.814857482910156
0,453814,-14.845104217529297,-22.000648498535156,-7.986616611480713,-9.552023887634277
0,453814,17.693695068359375,35.967384338378906,-18.37806510925293,10.039965629577637
0,453815,12.845057487487793,1.5222961902618408,5.377651691436768,12.036725997924805
0,453815,-35.233699798583984,-29.297082901000977,7.2772321701049805,8.405814170837402
0,453815,7.057841777801514,11.254321098327637,3.04459285736084,5.0427703857421875
0,453815,16.228439331054688,3.5713577270507812,-5.460480690002441,7.396425724029541
0,453815,-28.903186798095703,-21.103763580322266,-3.8187179565429688,-4.035983085632324
0,453816,7.390097618103027,3.3229618072509766,-0.46975600719451904,-21.64295768737793
0,453816,20.307226181030273,20.116153717041016,-1.631310224533081,-1.8924392461776733
0,453816,-14.139684677124023,-10.868021965026855,-3.22092342376709,6.4564948081970215
0,453816,-14.335227966308594,-17.205524444580078,-4.675467014312744,-7.778285980224609
0,453816,13.475594520568848,22.535676956176758,12.283881187438965,9.434605598449707
0,453816,17.894437789916992,9.436442375183105,14.703143119812012,-0.25485387444496155
0,453817,-9.893170356750488,-28.835315704345703,-17.87749481201172,-4.289067268371582
0,453817,-6.986165523529053,3.978358507156372,-12.988327980041504,22.52811050415039
0,453817,10.947770118713379,20.965015411376953,17.9709415435791,10.537254333496094
0,453817,5.297702789306641,-1.7612169981002808,11.400089263916016,-36.53582763671875
0,453817,-6.463418483734131,9.974726676940918,3.009054183959961,-5.817517280578613
0,453817,-1.4624227285385132,4.785595417022705,1.860558032989502,36.645408630371094
0,453818,19.507530212402344,-11.854419708251953,6.132340431213379,-5.784050941467285
0,453818,-4.137490749359131,-0.06176123768091202,-11.884547233581543,-14.871047019958496
0,453818,-14.249424934387207,-6.694676876068115,-22.431621551513672,-2.181988477706909
0,453818,21.793203353881836,-10.32737922668457,14.127822875976562,2.7415919303894043
0,453818,-1.3599579334259033,19.94143295288086,2.1415047645568848,-12.726485252380371
0,453818,-23.35841941833496,8.807658195495605,-5.28043270111084,-16.95077896118164
0,453819,-0.7659982442855835,-25.656139373779297,13.282519340515137,20.163978576660156
0,453819,8.24394416809082,-14.525611877441406,2.9979827404022217,14.543123245239258
0,453819,-0.1204911544919014,17.63090705871582,-21.038150787353516,-2.8825087547302246
0,453819,-16.724193572998047,-1.2103822231292725,-3.196542739868164,4.178196907043457
0,453819,-14.030754089355469,-10.337244033813477,26.902286529541016,-3.2039220333099365
0,453819,18.791048049926758,2.167978525161743,-10.183197021484375,-6.37957763671875
0,453820,24.973217010498047,-23.20907974243164,-9.77148723602295,22.398447036743164
0,453820,-10.208462715148926,13.827914237976074,12.271479606628418,-1.505881667137146
0,453820,-10.23252010345459,38.777889251708984,-5.695837020874023,-40.72218322753906
0,453820,0.40093696117401123,-21.468048095703125,-18.84214973449707,12.684784889221191
0,453820,-11.743090629577637,-27.30219268798828,3.363344192504883,26.404115676879883
0,453820,12.365010261535645,27.31670570373535,9.264657020568848,-21.198543548583984
0,453821,7.807152271270752,5.580496311187744,-8.219779968261719,-7.001075267791748
0,453821,-19.44034194946289,-28.885818481445312,16.36724853515625,26.349868774414062
0,453821,7.9804301261901855,27.432090759277344,1.401503324508667,10.317256927490234
0,453821,-5.52953577041626,22.200105667114258,-14.025749206542969,-7.844999313354492
0,453821,-6.5594162940979,-11.753007888793945,6.364334583282471,-3.267958402633667
0,453821,27.12638282775879,-3.7273240089416504,-3.941016912460327,0.4440315067768097
0,453822,6.7714314460754395,-1.4732708930969238,2.6020925045013428,2.619020700454712
0,453822,1.720670223236084,-1.4773613214492798,-0.7712982892990112,-4.21424674987793
0,453822,-11.960267066955566,-6.698851585388184,-17.782882690429688,-5.862059116363525
0,453822,-18.84244155883789,13.055438041687012,11.104728698730469,-0.714059054851532
0,453822,8.588421821594238,8.46675968170166,19.819063186645508,-18.085437774658203
0,453822,11.523698806762695,-21.084333419799805,-5.264132976531982,-11.399152755737305
0,453823,0.42258477210998535,-11.051591873168945,-10.847667694091797,4.938499450683594
0,453823,-10.75509262084961,26.04301643371582,2.75750732421875,4.635015964508057
0,453823,-5.807007312774658,-5.706203460693359,16.455305099487305,16.957590103149414
0,453823,2.0044684410095215,-14.043965339660645,1.3372223377227783,-1.7596832513809204
0,453823,-4.992572784423828,28.220033645629883,-6.3882951736450195,-13.845154762268066
0,453823,12.861368179321289,-5.172904014587402,-7.89164924621582,-1.8999645709991455
0,453824,3.265925407409668,-24.27610206604004,-16.15259552001953,13.27100658416748
0,453824,-14.921063423156738,2.992445230484009,17.507160186767578,11.591798782348633
0,453824,25.21637725830078,24.032785415649414,20.145179748535156,-13.90432071685791
0,453824,9.022847175598145,-17.035642623901367,-17.57178497314453,-10.61325454711914
0,453825,-19.562101364135742,-21.978187561035156,0.10267576575279236,13.835784912109375
0,453826,-1.1556071043014526,21.83171844482422,10.766916275024414,5.922293663024902
0,453826,0.11029386520385742,-12.42129898071289,-13.123885154724121,-3.565337896347046
0,453826,-6.869566440582275,3.5977468490600586,-0.2144472450017929,4.00069522857666
0,453826,-4.6474289894104,26.54642105102539,-2.8321619033813477,-3.6203739643096924
0,453826,6.908545017242432,-7.5370564460754395,-2.7457692623138428,0.07278259098529816
0,453826,14.109293937683105,-3.9312522411346436,20.968013763427734,-5.074726581573486
0,453827,-1.3702973127365112,0.5747219920158386,-15.604158401489258,0.8360305428504944
0,453827,-0.41497957706451416,5.13478422164917,-19.10037612915039,0.6679626107215881
0,453828,6.690748691558838,1.1422641277313232,18.827659606933594,-16.164798736572266
0,453829,-26.28954315185547,-13.48226261138916,-7.623055458068848,-4.3277268409729
0,453832,-7.595516681671143,-4.836181640625,-25.578092575073242,24.883708953857422
0,453833,17.18724250793457,-4.024527549743652,0.2499570995569229,15.325018882751465
0,453836,-9.611536979675293,2.4352874755859375,16.70427894592285,-8.989212989807129
0,453837,-6.893688201904297,12.732950210571289,8.142147064208984,-0.15278364717960358
0,453840,18.325347900390625,-4.062433242797852,4.684963226318359,-9.71763801574707
0,453842,7.827327728271484,-1.8027926683425903,19.011486053466797,6.203310489654541
0,453844,-24.158708572387695,-5.171460151672363,4.906937122344971,-4.828324317932129
0,453846,4.648611068725586,-6.177632808685303,-35.680267333984375,-29.228364944458008
0,453848,2.775444746017456,-0.8164427280426025,-15.542593002319336,35.8405876159668
0,453850,-11.934879302978516,-1.4190856218338013,30.484821319580078,42.62958526611328
0,453852,27.61631202697754,12.059069633483887,-4.643801212310791,-50.86854934692383
0,453854,4.398304462432861,13.160887718200684,-1.655764102935791,-33.77886199951172
0,453856,-16.411584854125977,-1.323329210281372,26.42156410217285,35.77056884765625
0,453858,-10.894060134887695,-24.315872192382812,-25.46005630493164,24.2176456451416
0,453860,8.514618873596191,-7.330319404602051,-15.449845314025879,-8.589197158813477
0,453862,21.43873405456543,3.589277744293213,17.41243553161621,-28.023067474365234
0,453864,-8.076217651367188,10.757469177246094,1.9071837663650513,-21.198389053344727
0,453866,-7.436923027038574,24.208576202392578,9.379037857055664,6.288445949554443
0,453868,-4.805317401885986,-1.2531704902648926,-5.4391913414001465,53.456260681152344
0,453870,-1.5164228677749634,-5.0968708992004395,4.474071979522705,14.075218200683594
0,453872,8.377636909484863,-0.8060733675956726,12.215397834777832,-56.89292526245117
0,453874,2.443587064743042,-6.514610767364502,-34.52900695800781,-24.035846710205078
0,453877,-16.51819610595703,-4.451376914978027,-15.797059059143066,51.0352783203125
0,453878,-2.846916913986206,-21.165340423583984,17.717988967895508,25.56416893005371
0,453881,19.385452270507812,5.4546709060668945,15.528818130493164,-52.759490966796875
0,454074,8.508659362792969,26.672807693481445,20.390886306762695,-3.803895950317383
0,454074,-3.227518320083618,-13.189981460571289,-7.3021697998046875,32.43334197998047
0,454075,-7.928991794586182,2.4977526664733887,-19.91145133972168,-5.33628511428833
0,454075,-3.4506518840789795,14.409502029418945,1.2833186388015747,-21.761398315429688
0,454075,-3.240081548690796,-8.489121437072754,3.141911268234253,-13.075599670410156
0,454075,-11.106890678405762,-15.10903549194336,-0.8498406410217285,15.888748168945312
0,454075,7.527836799621582,-12.482474327087402,-4.454738616943359,-10.648284912109375
0,454075,19.585411071777344,7.7875237464904785,9.67416763305664,-11.623916625976562
0,454076,-15.3550443649292,32.63302993774414,16.040029525756836,24.200193405151367
0,454076,-4.789244651794434,13.408116340637207,-21.813282012939453,11.139805793762207
0,454076,11.077092170715332,-23.709184646606445,-29.62501335144043,15.37792682647705
0,454076,-6.933261871337891,-2.5929760932922363,10.806404113769531,7.400384902954102
0,454076,-5.160541534423828,-8.480098724365234,10.264832496643066,-13.766913414001465
0,454077,3.138928174972534,-21.43113136291504,-11.344489097595215,1.6705403327941895
0,454077,2.6174874305725098,19.73381233215332,-2.250230550765991,8.313302040100098
0,454077,-8.746114730834961,9.664794921875,11.893564224243164,-4.234333515167236
0,454077,12.796918869018555,-10.719071388244629,8.680549621582031,-3.779557466506958
0,454077,21.50974464416504,11.9156494140625,-1.4520998001098633,-1.762614130973816
0,454077,-9.780396461486816,3.618675470352173,2.792365074157715,-22.13312339782715
0,454078,-14.118765830993652,-8.959967613220215,15.510924339294434,-5.306317329406738
0,454078,4.9140543937683105,-2.5547094345092773,-7.434056282043457,21.260250091552734
0,454078,7.852582931518555,-4.584464073181152,-19.217613220214844,-13.266397476196289
0,454078,-4.420989513397217,-3.372128963470459,3.568568468093872,-7.7406792640686035
0,454078,-2.2598135471343994,7.542067050933838,13.820035934448242,22.56665802001953
0,454078,0.8993733525276184,3.4344239234924316,2.538402557373047,8.060029983520508
0,454079,-5.536893367767334,-3.2346596717834473,-10.859429359436035,5.364251136779785
0,454079,-3.9762752056121826,-3.1667733192443848,10.317307472229004,-4.507498264312744
0,454079,10.475440979003906,-12.859207153320312,0.9454991817474365,-12.562633514404297
0,454079,8.360112190246582,4.225457191467285,-9.752443313598633,-3.1497697830200195
0,454079,-19.994049072265625,16.556623458862305,-4.080572605133057,-10.892878532409668
0,454079,-24.2200984954834,-3.3318090438842773,6.947153568267822,17.989490509033203
0,454080,14.914246559143066,-8.8360013961792,8.75257396697998,20.78670883178711
0,454080,12.517731666564941,9.58068561553955,-9.36110782623291,-20.600582122802734
0,454080,-3.933417797088623,11.331148147583008,3.391256093978882,-8.948052406311035
0,454080,26.140506744384766,-4.771271705627441,-6.855862140655518,3.7633092403411865
0,454080,5.97391414642334,-1.704862117767334,12.853357315063477,-11.54882526397705
0,454080,-26.694522857666016,5.372798442840576,10.929183959960938,-4.714467525482178
0,454081,-20.795063018798828,-7.664961338043213,-32.36228561401367,15.663299560546875
0,454081,3.9777724742889404,-9.477041244506836,8.772048950195312,-1.9036530256271362
0,454081,17.833467483520508,-0.3717883229255676,16.714048385620117,-16.513893127441406
0,454081,15.421089172363281,9.741606712341309,-5.249302864074707,13.910272598266602
0,454081,-1.473381757736206,6.1899189949035645,-7.672117233276367,23.070514678955078
0,454081,-29.232873916625977,-22.16184425354004,-12.452214241027832,-12.769969940185547
0,454082,2.0675764083862305,-1.0523208379745483,27.0168514251709,-15.275030136108398
0,454082,18.106605529785156,27.5592098236084,6.937376022338867,2.3691518306732178
0,454082,-0.023286938667297363,-18.343271255493164,-17.84850311279297,1.7416402101516724
0,454082,-6.143482685089111,-17.577632904052734,3.0830318927764893,5.640572547912598
0,454082,4.9489426612854,26.74088478088379,-4.346180438995361,-4.904967308044434
0,454082,-0.7406697869300842,-8.803217887878418,10.08564567565918,3.8621418476104736
0,454083,-1.2773128747940063,-8.588321685791016,0.1681588590145111,3.5925323963165283
0,454083,17.341890335083008,24.602264404296875,-15.642746925354004,-19.157255172729492
0,454083,-18.295143127441406,3.6213936805725098,-4.730245113372803,-11.471442222595215
0,454083,-7.906550884246826,-15.840568542480469,-16.041288375854492,10.63484001159668
0,454083,12.520651817321777,-4.1773457527160645,9.725502967834473,19.666879653930664
0,454084,4.506027698516846,26.97157096862793,24.505722045898438,16.017932891845703
0,454084,14.179903030395508,5.055466651916504,-0.0850152000784874,-1.6992591619491577
0,454084,-9.118783950805664,-20.583839416503906,6.648379325866699,-25.646785736083984
0,454084,-23.309560775756836,2.179492235183716,-22.886520385742188,-8.394598960876465
0,454084,-12.97870922088623,-11.443093299865723,-27.286521911621094,16.974443435668945
0,454084,9.098169326782227,-14.437215805053711,30.76827049255371,9.139050483703613
0,454085,19.13602066040039,20.759199142456055,16.586345672607422,-0.23975659906864166
0,454085,-7.763544082641602,-14.371715545654297,-24.85150146484375,-2.008110284805298
0,454085,-17.621274948120117,-32.861854553222656,1.7524068355560303,-0.7132511734962463
0,454085,-0.9379302859306335,42.35482406616211,16.662294387817383,11.40477180480957
0,454085,13.970325469970703,35.56686782836914,-18.169281005859375,-6.048129558563232
0,454085,18.85108757019043,-36.516178131103516,-10.880960464477539,-18.943199157714844
0,454086,-21.112998962402344,-23.48654556274414,6.843825340270996,-0.9864151477813721
0,454086,-21.0041446685791,34.40693283081055,-1.9448671340942383,7.07669734954834
0,454086,29.060815811157227,24.496816635131836,8.728710174560547,6.387326717376709
0,454086,8.075535774230957,-30.032732009887695,-1.217302680015564,-8.079766273498535
0,454086,-17.77963638305664,-21.691795349121094,-17.469257354736328,12.912381172180176
0,454086,14.607097625732422,16.32357406616211,13.677931785583496,8.972012519836426
0,454087,5.66057825088501,8.253384590148926,7.07431173324585,-34.986915588378906
0,454087,-19.45751953125,-16.933942794799805,-13.646147727966309,-7.540243148803711
0,454087,5.362119674682617,2.592949628829956,14.883810997009277,5.8915791511535645
0,454087,10.812796592712402,8.185575485229492,0.6736581325531006,3.225344181060791
0,454087,3.7981796264648438,-10.665042877197266,0.25980013608932495,23.02490997314453
0,454087,-3.500143527984619,17.222187042236328,6.4287261962890625,-5.0924835205078125
0,454088,-10.887330055236816,0.8361679315567017,-20.51641273498535,-15.310539245605469
0,454088,2.890070915222168,-23.24139404296875,13.772778511047363,8.71818733215332
0,454088,-1.0828553438186646,25.4763126373291,20.95484161376953,5.4335503578186035
0,454088,-4.140597343444824,13.455977439880371,-8.602720260620117,5.269686698913574
0,454088,19.79369354248047,-19.639177322387695,-8.319902420043945,4.6569623947143555
0,454088,-10.837357521057129,-9.657668113708496,1.2005705833435059,-14.875894546508789
0,454089,-21.37706184387207,3.87023663520813,12.141938209533691,3.85894513130188
0,454089,16.519332885742188,0.6180381178855896,-1.704097032546997,21.623207092285156
0,454089,7.29056453704834,-6.75639533996582,-8.90093994140625,-16.877071380615234
0,454089,9.474839210510254,7.904996395111084,-6.773909568786621,-18.06667137145996
0,454089,-6.832822799682617,-1.8951659202575684,-8.47615909576416,16.315086364746094
0,454089,-19.15319061279297,-5.642014026641846,10.320568084716797,12.152825355529785
0,454090,11.785896301269531,-1.4820235967636108,8.681856155395508,-12.873529434204102
0,454090,3.174772024154663,13.67813491821289,-4.08245325088501,-7.163392543792725
0,454090,-8.002457618713379,8.187097549438477,-2.0518393516540527,9.794971466064453
0,454090,3.311971426010132,-18.975465774536133,-10.983287811279297,-17.738370895385742
0,454090,0.4621342122554779,4.91200065612793,-13.154111862182617,-15.98642635345459
0,454090,-1.05851149559021,4.8828630447387695,-10.829270362854004,28.894195556640625
0,454091,-1.0557572841644287,-10.330872535705566,5.17954158782959,9.390548706054688
0,454092,-1.4466012716293335,8.098785400390625,12.46969985961914,-16.65397834777832
0,454092,7.221445083618164,6.65090799331665,5.305944442749023,19.23404312133789
0,454092,-0.9638577103614807,-12.966903686523438,15.126684188842773,9.293388366699219
0,454092,-18.82206916809082,-10.309511184692383,8.580020904541016,-9.38119888305664
0,454093,3.380323648452759,26.085765838623047,-13.238102912902832,-0.43177318572998047
0,454093,21.103160858154297,10.376056671142578,-4.455441951751709,-4.595357894897461
0,454093,-8.327082633972168,-34.187461853027344,8.914292335510254,-6.636702060699463
0,454093,-2.066176176071167,-8.946309089660645,0.911766767501831,-5.414705276489258
0,454093,8.175650596618652,5.783750534057617,5.1062517166137695,7.354737281799316
0,454095,-12.450054168701172,14.757575035095215,0.8364091515541077,-3.700967311859131
0,454096,9.890878677368164,27.639097213745117,6.472354888916016,-10.257109642028809
0,454099,-12.731111526489258,-15.619843482971191,-0.7251796126365662,-13.133126258850098
0,454100,-28.09408187866211,-26.846372604370117,-21.965370178222656,-15.282672882080078
0,454103,35.36408233642578,-1.697543740272522,4.259924411773682,10.857648849487305
0,454104,21.40742301940918,26.830812454223633,38.61896514892578,5.665368556976318
0,454107,-17.339168548583984,21.511688232421875,-20.053932189941406,-11.418000221252441
0,454108,-16.695159912109375,-21.621440887451172,-51.86491394042969,14.02705192565918
0,454111,4.609271049499512,3.854109287261963,28.82615852355957,49.467437744140625
0,454112,19.405797958374023,-1.9219236373901367,23.165191650390625,24.110597610473633
0,454113,-1.9105595350265503,-19.71349334716797,-17.794776916503906,-30.347225189208984
0,454116,-1.3677812814712524,12.342411041259766,-13.082148551940918,-37.12673568725586
0,454117,3.4229073524475098,15.346882820129395,1.2810364961624146,3.404789447784424
0,454120,-10.332759857177734,-14.440272331237793,9.119856834411621,18.396373748779297
0,454121,0.2563977539539337,-23.322589874267578,-5.3890767097473145,-29.38692283630371
0,454124,9.793692588806152,5.369763374328613,7.865515232086182,8.738080024719238
0,454125,-17.066619873046875,1.1388132572174072,14.46760368347168,66.0788345336914
0,454128,-1.7586755752563477,8.01796817779541,-17.599348068237305,-4.113030910491943
0,454129,34.87823486328125,14.823800086975098,-4.255170822143555,-62.37963104248047
0,454132,-17.911062240600586,-28.013652801513672,-11.93517780303955,-22.786163330078125
0,454133,-36.79521179199219,-5.826877593994141,-15.483450889587402,31.47079086303711
0,454136,27.224912643432617,56.215457916259766,38.36150360107422,12.289926528930664
0,454137,15.001179695129395,15.838835716247559,3.7214248180389404,-30.228166580200195
0,454140,-19.594680786132812,-45.73112487792969,-16.539827346801758,-8.908248901367188
0,454141,1.0729221105575562,-21.007482528686523,4.348643779754639,40.625099182128906
0,454144,11.658053398132324,21.060678482055664,14.378013610839844,0.698604941368103
0,454145,-2.7606117725372314,-2.024599552154541,2.794466257095337,-36.06608581542969
0,454339,2.5823280811309814,-16.97783851623535,-28.944278717041016,-4.004720687866211
0,454339,4.211670398712158,24.31339454650879,-7.297236919403076,-5.112315654754639
0,454339,-17.167387008666992,-8.616787910461426,16.982419967651367,4.511580467224121
0,454339,-7.463850021362305,-23.259016036987305,23.176504135131836,27.194669723510742
0,454340,21.476076126098633,26.4211483001709,-11.7973051071167,4.82416296005249
0,454340,8.697362899780273,-13.281825065612793,-30.228513717651367,-1.0082873106002808
0,454340,-27.76938247680664,-0.23684073984622955,23.393144607543945,16.82176399230957
0,454340,-10.366101264953613,33.55974197387695,9.69421100616455,0.4291766881942749
0,454340,10.14236831665039,-27.51192283630371,-29.256071090698242,-1.7788329124450684
0,454340,-2.530245542526245,-15.24800968170166,21.83514404296875,-11.416881561279297
0,454341,6.144699573516846,24.408552169799805,18.804157257080078,-9.11697006225586
0,454341,16.205717086791992,9.315354347229004,-11.890948295593262,11.406792640686035
0,454341,-8.299201965332031,-6.096073150634766,13.580095291137695,-5.600050449371338
0,454341,-10.723546028137207,-3.6084842681884766,-7.998293876647949,1.0119850635528564
0,454341,19.98957061767578,-2.537001132965088,-17.685014724731445,-5.37692928314209
0,454341,-6.079615592956543,-14.70489501953125,8.208318710327148,-14.068255424499512
0,454342,-7.065859794616699,5.774003028869629,17.625263214111328,18.4284610748291
0,454342,17.324190139770508,25.643766403198242,-4.637164115905762,24.058326721191406
0,454342,-6.392260551452637,-5.898472309112549,-29.69756507873535,-13.170611381530762
0,454342,-0.4495443105697632,-22.288375854492188,-3.7820918560028076,-28.110471725463867
0,454342,4.177464008331299,8.198990821838379,11.007238388061523,-1.004940152168274
0,454343,-17.629676818847656,3.8928675651550293,3.782641649246216,9.093405723571777
0,454343,-9.317108154296875,-15.14572525024414,16.56264877319336,11.510309219360352
0,454343,25.21626091003418,15.399930000305176,9.260721206665039,9.792192459106445
0,454343,8.138043403625488,-7.030930995941162,-29.086313247680664,4.302949905395508
0,454343,-28.403860092163086,-29.081783294677734,-9.077068328857422,3.721700429916382
0,454343,7.321321487426758,29.242145538330078,22.959503173828125,-9.832698822021484
0,454344,15.042716026306152,15.356433868408203,0.033028677105903625,-1.693271279335022
0,454344,-15.278950691223145,-3.9457030296325684,-4.150166988372803,13.09201717376709
0,454344,4.241645336151123,12.29505443572998,1.5663642883300781,-11.30186653137207
0,454344,8.18583869934082,-2.879234552383423,-9.246199607849121,-13.818642616271973
0,454344,-15.00876235961914,-8.29084300994873,8.91491413116455,17.97896385192871
0,454344,-3.5228137969970703,-19.001699447631836,11.526931762695312,1.7431968450546265
0,454345,26.53020477294922,14.39971923828125,-16.745254516601562,-21.709033966064453
0,454345,6.713045597076416,23.038719177246094,-5.382408142089844,-0.21347880363464355
0,454345,-40.97481155395508,-30.212400436401367,-0.9572150707244873,2.3339662551879883
0,454345,3.612982749938965,-10.990875244140625,-4.546807765960693,2.553791046142578
0,454345,32.174285888671875,32.76121139526367,-11.570392608642578,-3.10829758644104
0,454345,-25.34712028503418,-13.993509292602539,-26.396345138549805,-14.07399845123291
0,454346,-17.57026481628418,-38.44391632080078,12.460990905761719,6.004741668701172
0,454346,27.43026351928711,27.08942985534668,22.434417724609375,-1.5928010940551758
0,454346,-0.3963125944137573,0.8216956853866577,-5.655555725097656,11.383386611938477
0,454346,-32.023616790771484,-14.476486206054688,1.2131612300872803,16.3030948638916
0,454346,20.001270294189453,29.992870330810547,12.68533706665039,-13.125065803527832
0,454346,23.90744972229004,-10.409224510192871,11.468469619750977,-2.263885021209717
0,454347,-15.307145118713379,-4.415457725524902,-2.5117952823638916,-0.13086958229541779
0,454347,17.704971313476562,22.850971221923828,-6.782096862792969,-10.197004318237305
0,454347,18.33929443359375,-14.837852478027344,2.538839817047119,0.10036355257034302
0,454347,-31.066347122192383,-9.162288665771484,7.368316173553467,7.995242595672607
0,454347,-21.477359771728516,26.784561157226562,-2.980886936187744,8.43696117401123
0,454347,18.357418060302734,-10.209390640258789,-10.333231925964355,1.1550474166870117
0,454348,7.602224349975586,1.5540624856948853,5.121316909790039,-0.2882826626300812
0,454348,-14.363167762756348,22.21038246154785,12.968497276306152,-13.599132537841797
0,454348,0.9763153195381165,-29.639972686767578,-0.6826045513153076,-16.681793212890625
0,454348,-4.413703441619873,-2.6641502380371094,-11.62886905670166,14.448282241821289
0,454348,-1.8958510160446167,-0.07853474467992783,3.420823335647583,17.2523193359375
0,454348,28.09693717956543,-19.996931076049805,13.816781997680664,-11.68088150024414
0,454349,-5.175970077514648,6.231619834899902,-5.60520076751709,-10.37189769744873
0,454349,-23.516294479370117,7.142333030700684,0.43342551589012146,18.921146392822266
0,454349,31.18096160888672,11.727083206176758,18.10014533996582,-6.709761142730713
0,454349,0.2466820329427719,0.5184535980224609,-2.3057286739349365,-13.146644592285156
0,454349,-24.03687286376953,-10.264198303222656,-15.686803817749023,20.476123809814453
0,454349,17.625831604003906,11.857991218566895,1.3566365242004395,-15.765762329101562
0,454350,-0.2664002478122711,-2.135667324066162,4.987857818603516,-23.705224990844727
0,454350,-16.320043563842773,-3.8687684535980225,-16.111635208129883,38.52297592163086
0,454350,-5.650768756866455,6.616386890411377,-24.771371841430664,8.344549179077148
0,454350,1.5975806713104248,-10.998379707336426,-2.0096287727355957,-25.795303344726562
0,454350,-6.200003147125244,5.832642078399658,24.437850952148438,20.005390167236328
0,454350,7.8712544441223145,7.710203170776367,-3.035008430480957,10.96036148071289
0,454351,2.049539566040039,-14.598225593566895,-10.776162147521973,-11.201194763183594
0,454351,-13.973897933959961,-9.354540824890137,26.72081756591797,-8.031696319580078
0,454351,20.278491973876953,12.193897247314453,-4.748660087585449,1.5263686180114746
0,454351,7.511948108673096,-0.8816251754760742,-25.771568298339844,13.076125144958496
0,454351,-16.53867530822754,-12.96314525604248,18.45416831970215,6.66090726852417
0,454351,12.229331016540527,21.845733642578125,15.340474128723145,-9.646642684936523
0,454352,-3.693455219268799,4.1145172119140625,-9.037030220031738,2.3951151371002197
0,454352,-6.726577281951904,-17.946130752563477,6.214390277862549,7.467360973358154
0,454352,26.536182403564453,18.410175323486328,-14.101710319519043,-25.33877182006836
0,454352,-6.29529333114624,7.53387975692749,-20.60550880432129,0.418641060590744
0,454352,-20.6541690826416,-20.198537826538086,9.564864158630371,0.41246524453163147
0,454353,7.939582824707031,-17.26521873474121,-7.6639628410339355,-6.151564121246338
0,454353,-6.820344924926758,6.144436359405518,8.189149856567383,20.501922607421875
0,454353,-10.379183769226074,18.956872940063477,19.630495071411133,-11.690468788146973
0,454353,23.361854553222656,-5.853108882904053,-22.983596801757812,-16.84903907775879
0,454353,7.307986736297607,-8.067045211791992,5.137121677398682,10.37175464630127
0,454353,-21.745092391967773,-15.581567764282227,29.260862350463867,6.8136115074157715
0,454354,-1.7104413509368896,7.83017635345459,-19.57225799560547,-7.301867485046387
0,454354,5.254851341247559,22.85687255859375,-20.910764694213867,0.1863924264907837
0,454354,-3.386509418487549,-24.012348175048828,21.589900970458984,12.422720909118652
0,454354,0.7602565884590149,10.547292709350586,23.143125534057617,2.422584295272827
0,454354,13.258164405822754,26.433944702148438,-8.995241165161133,-17.2099666595459
0,454354,2.9627764225006104,-33.82578659057617,-13.407567977905273,0.4242464601993561
0,454355,-24.031902313232422,-7.076433181762695,8.207987785339355,20.978084564208984
0,454355,10.447686195373535,30.318891525268555,-1.6861752271652222,-0.9668174982070923
0,454355,18.002405166625977,-6.400956630706787,-22.130647659301758,-6.169862270355225
0,454355,-17.393753051757812,9.020995140075684,10.761697769165039,-1.4610800743103027
0,454356,-1.4064971208572388,12.874922752380371,5.616302967071533,-15.913034439086914
0,454357,8.817109107971191,-34.12427520751953,-22.4183292388916,0.9575362205505371
0,454357,-13.669061660766602,-12.24409008026123,4.504108905792236,10.351395606994629
0,454357,-1.2714812755584717,12.706024169921875,0.8671780824661255,-1.4343531131744385
0,454357,14.19724178314209,10.220508575439453,9.598163604736328,3.689429998397827
0,454357,0.0744701474905014,1.8639445304870605,3.9095466136932373,-18.2669734954834
0,454357,-2.4282660484313965,-21.84783172607422,-10.363649368286133,0.39837145805358887
0,454357,1.8261646032333374,4.807175159454346,11.470746994018555,10.610590934753418
0,454358,-8.419427871704102,29.52614974975586,2.478076934814453,-18.843530654907227
0,454359,-3.272522449493408,-14.265473365783691,-7.813078880310059,24.667898178100586
0,454360,10.345776557922363,-19.804115295410156,17.277843475341797,22.140270233154297
0,454362,-20.937204360961914,21.027952194213867,18.23107147216797,-25.526683807373047
0,454364,-4.86129903793335,8.79971694946289,-18.751142501831055,-17.847917556762695
0,454366,38.58882141113281,-24.19425392150879,-6.488892555236816,14.90755844116211
0,454368,-2.649766206741333,14.382302284240723,-9.504378318786621,28.653034210205078
0,454370,-28.518095016479492,24.724506378173828,-8.327383041381836,-10.068099975585938
0,454372,16.149011611938477,-25.902915954589844,24.438676834106445,5.146661281585693
0,454374,20.84307289123535,-20.807594299316406,-14.632704734802246,26.10794448852539
0,454376,-11.245996475219727,27.78722381591797,-16.05863380432129,-42.56922912597656
0,454378,-21.313871383666992,12.216155052185059,3.328166961669922,-46.66196823120117
0,454380,-7.739314079284668,-37.87180709838867,0.6329433917999268,22.36819839477539
0,454382,19.813884735107422,-2.3899805545806885,38.730525970458984,39.071537017822266
0,454385,0.9357717037200928,16.005582809448242,-8.72779655456543,-28.746868133544922
0,454386,-4.362464904785156,13.455985069274902,-20.376266479492188,-9.738753318786621
0,454389,17.629806518554688,6.753634452819824,25.42182731628418,60.73734664916992
0,454390,-17.969491958618164,-26.658023834228516,-24.12421226501465,-20.20293617248535
0,454393,-20.263063430786133,-6.238671779632568,-7.299839973449707,-33.71171569824219
0,454394,24.85811424255371,25.35760498046875,25.355100631713867,31.904417037963867
0,454397,5.827571392059326,-0.21806737780570984,-16.036151885986328,-6.2520751953125
0,454398,-14.022599220275879,-9.167756080627441,-1.5810606479644775,-29.768587112426758
0,454401,14.644501686096191,7.376859664916992,20.045682907104492,6.7694501876831055
0,454402,10.245413780212402,-12.962388038635254,-3.946507215499878,21.2811222076416
0,454405,-15.09233570098877,3.298941135406494,-21.469270706176758,6.131688117980957
0,454406,-3.065302610397339,15.286617279052734,2.690075397491455,19.642629623413086
0,454409,9.940694808959961,-0.2037000209093094,15.975793838500977,-16.8657169342041
0,454410,-8.811243057250977,-10.0108060836792,-5.770815372467041,-61.44387435913086
0,454602,-3.0423800945281982,-0.9041184782981873,18.616958618164062,-1.4877387285232544
0,454603,2.773099660873413,16.05076026916504,12.073163986206055,5.714221477508545
0,454603,-2.690570116043091,-14.250874519348145,-22.951644897460938,-6.557802200317383
0,454603,-6.069982051849365,-27.843236923217773,-7.539642810821533,31.263269424438477
0,454603,5.204187393188477,18.513301849365234,-9.913049697875977,9.39158821105957
0,454603,15.681183815002441,28.84172248840332,1.427828073501587,-21.469141006469727
0,454603,-0.37422627210617065,-25.864065170288086,16.44285011291504,9.194818496704102
0,454604,-4.665876388549805,-14.239227294921875,-15.782773971557617,20.662883758544922
0,454604,-15.84365177154541,20.628450393676758,-12.833174705505371,-8.717000007629395
0,454604,-8.549910545349121,-13.179271697998047,11.273918151855469,1.5079776048660278
0,454604,11.07992935180664,-7.711389541625977,-3.97117018699646,17.478233337402344
0,454604,8.189854621887207,20.787851333618164,-3.243166208267212,9.817092895507812
0,454605,-1.007625699043274,6.628532886505127,14.328288078308105,16.094463348388672
0,454605,-4.0780863761901855,7.1397385597229,-1.792420506477356,5.212236404418945
0,454605,8.659905433654785,-12.40288257598877,-13.008976936340332,-21.556720733642578
0,454605,3.751945972442627,-9.248988151550293,9.739703178405762,-9.244282722473145
0,454605,-15.496602058410645,20.879703521728516,27.8920841217041,3.105762243270874
0,454605,0.7523614764213562,-23.48374366760254,-11.910407066345215,-14.080095291137695
0,454606,7.765248775482178,-14.869447708129883,-29.91893768310547,1.3523513078689575
0,454606,1.575957179069519,41.405616760253906,11.391651153564453,18.697519302368164
0,454606,17.145076751708984,3.6601626873016357,19.299713134765625,3.684837818145752
0,454606,-13.412984848022461,-33.76615905761719,-10.833091735839844,1.0336333513259888
0,454606,-30.67954444885254,-9.043524742126465,-9.660798072814941,13.108964920043945
0,454606,17.784231185913086,13.426591873168945,15.256368637084961,-17.453624725341797
0,454607,10.968355178833008,7.217179298400879,-20.90428352355957,-26.801469802856445
0,454607,-21.537025451660156,6.329415321350098,-6.087591648101807,-0.17853593826293945
0,454607,2.5370583534240723,-7.448235511779785,31.038354873657227,-7.450291156768799
0,454607,9.555087089538574,-15.142386436462402,-18.990859985351562,-1.8836554288864136
0,454607,-9.930281639099121,7.197658538818359,-11.359902381896973,-2.0565996170043945
0,454607,-8.72128963470459,-3.4570252895355225,6.40321159362793,-5.56419038772583
0,454608,6.748355388641357,1.2774535417556763,-10.308300971984863,-2.8053202629089355
0,454608,18.511926651000977,9.923629760742188,5.6911301612854,-1.3454148769378662
0,454608,6.06579065322876,-8.665008544921875,1.3422515392303467,3.4299912452697754
0,454608,0.23224607110023499,-5.083498477935791,-10.969466209411621,14.481077194213867
0,454608,-2.334421396255493,14.100137710571289,13.38533878326416,10.927972793579102
0,454609,-1.208146095275879,7.887202262878418,9.42759895324707,-13.700922966003418
0,454609,-10.698003768920898,-7.612706661224365,-12.494165420532227,2.6159980297088623
0,454609,2.4652297496795654,-5.540175914764404,9.661805152893066,24.025890350341797
0,454609,15.207440376281738,-5.112091064453125,14.517898559570312,0.5281252861022949
0,454609,-29.83369255065918,3.8402228355407715,-4.191744327545166,-34.61592483520508
0,454609,-17.315513610839844,2.677901268005371,-2.8035147190093994,-6.243438243865967
0,454610,20.99859619140625,-3.4340951442718506,7.893651962280273,27.415019989013672
0,454610,15.625582695007324,12.689433097839355,4.337482452392578,7.95928430557251
0,454610,3.116265058517456,6.933412075042725,3.6447901725769043,-6.781460762023926
0,454610,-8.611479759216309,-20.14441680908203,-10.28847599029541,-11.245991706848145
0,454610,-13.567874908447266,-7.654748439788818,-7.3664751052856445,12.467619895935059
0,454610,4.576463222503662,17.122047424316406,8.658474922180176,15.913667678833008
0,454611,14.024331092834473,0.3963009715080261,1.4626175165176392,-19.74531364440918
0,454611,13.087357521057129,6.156940460205078,2.6299326419830322,-16.339035034179688
0,454611,-0.3050707280635834,3.329683542251587,-4.370321273803711,12.808964729309082
0,454611,-30.966081619262695,-22.64206886291504,-5.971050262451172,35.591773986816406
0,454611,-7.155804634094238,1.47147798538208,0.31203538179397583,12.218840599060059
0,454611,38.37108612060547,23.188385009765625,-1.5972771644592285,-29.047977447509766
0,454612,10.455463409423828,13.493943214416504,-4.27520751953125,-2.846891164779663
0,454612,-30.743398666381836,-19.089813232421875,0.0979422852396965,5.7256059646606445
0,454612,-1.2669597864151,-20.002819061279297,3.129262924194336,-2.9612910747528076
0,454612,24.30047607421875,15.45499038696289,-1.4424904584884644,4.331192493438721
0,454612,-14.303640365600586,6.939164638519287,3.006014585494995,-10.256024360656738
0,454612,-12.946198463439941,-1.3264516592025757,0.6843591928482056,-8.865904808044434
0,454613,21.5413818359375,-4.001926898956299,-11.973058700561523,-7.727829933166504
0,454613,-8.822591781616211,-14.360936164855957,9.822468757629395,-1.702401041984558
0,454613,-48.785919189453125,-2.2918248176574707,3.123692750930786,7.78972053527832
0,454613,29.912059783935547,16.835391998291016,-12.125943183898926,-4.07640266418457
0,454613,77.6222915649414,6.2678914070129395,12.271291732788086,-9.422285079956055
0,454613,-35.5429801940918,-28.152074813842773,4.922063827514648,11.718215942382812
0,454614,-44.900474548339844,11.630970001220703,-12.765339851379395,-0.6874284148216248
0,454614,18.40176010131836,24.509349822998047,4.715400695800781,-10.892885208129883
0,454614,10.960289001464844,-25.685258865356445,10.264348983764648,12.944466590881348
0,454614,2.9653847217559814,-13.550992012023926,-8.274049758911133,9.718969345092773
0,454614,1.4105918407440186,22.801359176635742,1.247735857963562,-5.685588836669922
0,454614,-7.47998046875,13.530887603759766,-9.863415718078613,-3.621121406555176
0,454615,-8.804966926574707,-19.232362747192383,-9.674198150634766,14.110307693481445
0,454615,2.226855754852295,0.6971141695976257,23.970794677734375,-15.50349235534668
0,454615,-12.978862762451172,-7.000803470611572,-16.020191192626953,-15.697032928466797
0,454615,-18.764562606811523,-19.578716278076172,-4.744296073913574,15.704700469970703
0,454615,11.214737892150879,33.794456481933594,38.89830780029297,3.9529595375061035
0,454615,11.584866523742676,7.962016582489014,-16.223114013671875,9.515052795410156
0,454616,1.4346574544906616,-33.01050567626953,-27.583080291748047,-6.060020446777344
0,454616,8.408027648925781,6.762272357940674,-5.932230472564697,-15.978019714355469
0,454616,-5.978846549987793,9.131635665893555,20.316831588745117,22.215715408325195
0,454616,-2.175865650177002,-4.1254754066467285,21.778945922851562,4.162261486053467
0,454616,0.5912628769874573,2.3803482055664062,-25.682170867919922,-23.629444122314453
0,454616,-19.141801834106445,2.068782329559326,-0.0151814641430974,6.998456954956055
0,454617,15.64081859588623,8.957056045532227,17.885038375854492,5.547048091888428
0,454617,19.911197662353516,-9.695161819458008,-16.20878791809082,-7.149075031280518
0,454617,-15.964677810668945,2.5578372478485107,7.8253865242004395,3.3303136825561523
0,454617,3.5123844146728516,1.166139841079712,18.12793731689453,15.413924217224121
0,454617,5.441702842712402,-3.7459449768066406,-23.015913009643555,7.235177040100098
0,454617,-11.152238845825195,22.87652015686035,-10.864981651306152,-20.402204513549805
0,454618,10.31899356842041,-7.386359691619873,29.750255584716797,-7.452345848083496
0,454618,22.554014205932617,-12.00349235534668,13.743521690368652,0.37983253598213196
0,454618,-15.549954414367676,-9.364959716796875,-11.397250175476074,4.17880392074585
0,454618,-20.85842514038086,-5.427895545959473,-2.262312650680542,15.113762855529785
0,454618,19.825960159301758,30.806222915649414,-0.37234506011009216,-12.0016508102417
0,454618,2.327134609222412,6.658008575439453,-2.613168478012085,-10.936101913452148
0,454619,-12.005492210388184,-19.330753326416016,-3.249382972717285,-4.791747093200684
0,454620,1.8146014213562012,0.2636668086051941,-20.497947692871094,-20.946928024291992
0,454620,-14.82297134399414,-14.01127815246582,-15.937561988830566,0.2620711326599121
0,454620,-15.836984634399414,-1.4420984983444214,11.789698600769043,18.54656982421875
0,454620,7.353789329528809,17.617259979248047,7.379323482513428,-7.412380218505859
0,454621,28.016265869140625,-5.207143306732178,-4.9942779541015625,-16.315542221069336
0,454621,15.994552612304688,-0.19023098051548004,-1.4951601028442383,10.359432220458984
0,454621,-19.959369659423828,-6.574347496032715,1.7475923299789429,-2.820906639099121
0,454621,-8.486010551452637,-7.500499248504639,19.613496780395508,-5.6343207359313965
0,454621,11.844151496887207,15.520496368408203,18.9937744140625,25.726417541503906
0,454623,-10.947535514831543,7.615485191345215,3.7067720890045166,13.437453269958496
0,454624,4.724393844604492,-10.652788162231445,-3.2439560890197754,-9.916573524475098
0,454625,25.65256690979004,32.02954864501953,-21.53510284423828,13.181951522827148
0,454628,-11.121798515319824,13.750541687011719,-19.55927085876465,59.2993278503418
0,454629,-6.716123104095459,-44.95676803588867,7.934408664703369,-4.376193523406982
0,454632,2.035344362258911,4.0983195304870605,27.891826629638672,-64.32980346679688
0,454633,-25.459880828857422,0.04942522943019867,-23.22800636291504,14.74995231628418
0,454636,8.598156929016113,-22.40452766418457,-54.28825378417969,-3.8752851486206055
0,454637,12.230603218078613,21.91013526916504,20.357519149780273,-39.87099838256836
0,454640,-14.064898490905762,6.660929203033447,39.96913528442383,36.28984069824219
0,454641,4.252578258514404,-35.45745849609375,-19.97949981689453,13.678176879882812
0,454644,0.5422534942626953,2.3486533164978027,13.030515670776367,-4.156428813934326
0,454645,13.08055591583252,26.308378219604492,32.48611068725586,6.938843250274658
0,454648,8.06530475616455,3.3559811115264893,-13.580227851867676,-49.008514404296875
0,454649,-23.224910736083984,-4.328456401824951,-22.606840133666992,-26.53940200805664
0,454652,-8.54865550994873,0.7911062836647034,-4.282614707946777,60.029178619384766
0,454653,11.198060035705566,6.599369049072266,20.257429122924805,59.26723861694336
0,454656,1.371968388557434,-2.587178945541382,-12.916789054870605,-52.405086517333984
0,454657,16.96719741821289,7.43809700012207,-2.2324371337890625,-63.169288635253906
0,454660,-8.221931457519531,-16.84090805053711,20.45905113220215,52.38945770263672
0,454661,-40.52839660644531,-20.571306228637695,0.2217126041650772,59.21555709838867
0,454664,22.869518280029297,17.464799880981445,-6.658104419708252,-66.33311462402344
0,454665,13.772565841674805,7.367486953735352,-27.13083839416504,-73.94525146484375
0,454668,-8.602831840515137,-1.652050495147705,4.39707088470459,68.23006439208984
0,454669,27.1931209564209,11.076087951660156,39.714515686035156,56.993228912353516
0,454672,-14.105463027954102,-5.773684024810791,-15.139008522033691,-26.381576538085938
0,454673,-33.24848556518555,-20.45659065246582,-25.041210174560547,-8.04550552368164
0,454868,13.35231876373291,-0.7553199529647827,13.746929168701172,-7.771669387817383
0,454869,24.933887481689453,16.454980850219727,-1.1922006607055664,-16.487972259521484
0,454869,3.092952013015747,12.903094291687012,-9.330867767333984,4.3053483963012695
0,454869,-25.106821060180664,-13.16345500946045,7.4909234046936035,25.37636947631836
0,454869,7.841440200805664,13.58619499206543,14.905001640319824,13.465134620666504
0,454869,21.165660858154297,4.312262058258057,13.442625999450684,-23.95952033996582
0,454869,-3.3838462829589844,-29.025375366210938,-5.600955486297607,-8.658710479736328
0,454870,-0.5033185482025146,12.956690788269043,-6.0601277351379395,2.813581705093384
0,454870,-9.676423072814941,21.206262588500977,18.070730209350586,-16.304521560668945
0,454870,-1.03571355342865,-7.368508338928223,-6.343746662139893,21.48603057861328
0,454870,1.1259044408798218,-4.075884819030762,-14.428869247436523,7.200289726257324
0,454870,6.720524787902832,1.7648025751113892,0.7450582981109619,-13.822267532348633
0,454871,-1.215593695640564,-14.809494018554688,-21.336376190185547,5.698317527770996
0,454871,-20.904836654663086,-1.8846344947814941,-22.964099884033203,-13.970245361328125
0,454871,-0.31830495595932007,-2.6444106101989746,8.31916332244873,-9.793349266052246
0,454871,1.4604551792144775,-10.9478178024292,10.822494506835938,0.20561423897743225
0,454871,-10.132654190063477,-3.3676135540008545,-19.33026123046875,-4.2442708015441895
0,454871,10.50866985321045,0.9553215503692627,-1.0995277166366577,-7.588736534118652
0,454872,3.7370500564575195,-8.540275573730469,18.336217880249023,8.967947006225586
0,454872,-15.853006362915039,-18.935707092285156,1.3394449949264526,19.549240112304688
0,454872,2.6938719749450684,39.39915084838867,2.0207152366638184,12.6404447555542
0,454872,7.023751735687256,26.433629989624023,-6.056796550750732,-6.914592266082764
0,454872,9.818873405456543,-36.40537643432617,-0.2176707684993744,-15.64908218383789
0,454872,7.794854640960693,-0.6939665675163269,9.572554588317871,12.431828498840332
0,454873,-13.346929550170898,11.89969539642334,-11.249201774597168,6.383400917053223
0,454873,-10.865094184875488,6.516930103302002,4.985456466674805,-8.634150505065918
0,454873,9.171104431152344,25.127979278564453,27.620019912719727,13.780672073364258
0,454873,22.613813400268555,-14.491405487060547,7.081535339355469,-3.32236385345459
0,454873,1.2843165397644043,-29.103193283081055,-4.53188943862915,0.06369394063949585
0,454873,-9.354886054992676,23.573657989501953,-14.846683502197266,21.288803100585938
0,454874,0.24899902939796448,29.768320083618164,1.7235616445541382,-8.538694381713867
0,454874,0.4527151882648468,-15.429152488708496,13.611924171447754,14.143497467041016
0,454874,16.837244033813477,-17.71354103088379,-3.8515005111694336,2.992183208465576
0,454874,-0.9824095964431763,11.824735641479492,14.621002197265625,-18.754182815551758
0,454874,-23.693910598754883,5.606876850128174,-9.560062408447266,29.70806884765625
0,454874,-5.2452850341796875,2.930511951446533,-16.679080963134766,-2.8997464179992676
0,454875,23.573938369750977,-10.998947143554688,18.954124450683594,-28.532085418701172
0,454875,0.5007466077804565,1.6026885509490967,-3.356531858444214,-9.65468692779541
0,454875,-26.218647003173828,-4.914335250854492,-16.671911239624023,-5.856845855712891
0,454875,3.9216341972351074,-27.826326370239258,6.232625484466553,5.220962047576904
0,454875,-6.087960720062256,22.57745933532715,13.742807388305664,-11.574102401733398
0,454876,5.1910858154296875,1.4331865310668945,-11.181371688842773,-18.23467445373535
0,454876,8.994501113891602,-16.86648941040039,-13.641206741333008,3.525822877883911
0,454876,-25.322446823120117,24.614532470703125,13.693045616149902,17.541017532348633
0,454876,11.230342864990234,-7.670276641845703,4.5824503898620605,-5.677760601043701
0,454876,5.5174970626831055,-18.56926155090332,-8.827535629272461,-5.566797256469727
0,454876,-13.293903350830078,8.917654991149902,-2.2531986236572266,11.060123443603516
0,454877,25.44409942626953,-6.608834266662598,2.6759424209594727,-4.504179954528809
0,454877,5.74549674987793,8.524760246276855,5.414607524871826,-23.465003967285156
0,454877,-19.503007888793945,13.432494163513184,-4.765841007232666,-2.115692138671875
0,454877,-3.5474326610565186,-24.58039665222168,-2.897191286087036,26.35248565673828
0,454877,4.889225959777832,9.22920036315918,8.320781707763672,-8.894587516784668
0,454877,-4.083626747131348,34.89043426513672,-3.122067928314209,-24.281545639038086
0,454878,-1.9374772310256958,-25.666242599487305,-12.597957611083984,-1.3449182510375977
0,454878,15.045278549194336,-23.03207015991211,-2.9241621494293213,11.547390937805176
0,454878,3.5809996128082275,13.355269432067871,0.12718652188777924,6.618222236633301
0,454878,-14.37645435333252,-4.59068489074707,3.9712042808532715,-12.989778518676758
0,454878,-9.972412109375,2.1922459602355957,6.14115047454834,13.94745922088623
0,454878,16.323156356811523,13.35100269317627,-7.559220790863037,25.347238540649414
0,454879,16.699989318847656,-16.928617477416992,0.7729225158691406,-0.46349045634269714
0,454879,-1.1788276433944702,-3.041057586669922,10.087974548339844,15.150705337524414
0,454879,9.432703018188477,37.46905517578125,-9.237698554992676,3.9675638675689697
0,454879,-6.565236568450928,1.4672805070877075,3.1719579696655273,-19.282167434692383
0,454879,-14.242414474487305,-31.653167724609375,15.952482223510742,-0.2502122223377228
0,454879,6.22502326965332,5.611571788787842,-9.841261863708496,1.2205333709716797
0,454880,4.492467403411865,11.855143547058105,-4.94148063659668,1.7380048036575317
0,454880,-7.002120018005371,-8.078344345092773,9.04649829864502,23.288314819335938
0,454880,-22.748952865600586,1.6264734268188477,-2.360156774520874,-12.415438652038574
0,454880,-0.8098456263542175,-5.443499565124512,-14.980339050292969,-31.99405288696289
0,454880,4.711309432983398,-27.219533920288086,-14.253556251525879,13.593469619750977
0,454880,-2.1390233039855957,2.200157880783081,6.116919994354248,-1.535398006439209
0,454881,19.76361656188965,15.853327751159668,11.701738357543945,-18.925851821899414
0,454881,-3.811138153076172,-13.255577087402344,4.684196472167969,8.723662376403809
0,454881,-12.628185272216797,2.215320348739624,-11.393489837646484,-5.5716872215271
0,454881,-0.05222535878419876,6.669053077697754,-15.162171363830566,-3.1829235553741455
0,454881,-7.874553203582764,0.6065540313720703,8.962371826171875,22.30853843688965
0,454881,-3.5039238929748535,5.925632953643799,16.331512451171875,2.0141918659210205
0,454882,21.13449478149414,5.488001346588135,14.393162727355957,-11.043536186218262
0,454882,11.196765899658203,10.215543746948242,10.488744735717773,-8.912028312683105
0,454882,-3.6035499572753906,0.27458256483078003,-4.255533218383789,0.6616454124450684
0,454882,-9.966601371765137,-1.5549761056900024,-23.315248489379883,11.217519760131836
0,454882,-22.024904251098633,4.421388626098633,1.5469688177108765,9.380865097045898
0,454882,22.150426864624023,-4.498074054718018,28.09187126159668,16.32710838317871
0,454883,23.121509552001953,1.0785936117172241,-6.746400356292725,-7.983915328979492
0,454883,-26.255821228027344,10.883069038391113,-9.976987838745117,-12.188761711120605
0,454883,-5.011531829833984,-5.861310958862305,9.993023872375488,14.77131462097168
0,454883,25.62649154663086,-2.531484603881836,-21.9926700592041,-9.768766403198242
0,454883,-2.021214246749878,-0.42334526777267456,-22.835092544555664,-14.858263969421387
0,454883,-17.849998474121094,-18.16936683654785,17.732309341430664,22.83998680114746
0,454884,-5.9907708168029785,14.965683937072754,12.773941993713379,17.031274795532227
0,454884,2.7173314094543457,9.020280838012695,-4.985659122467041,-12.944685935974121
0,454884,-1.9206913709640503,-31.93118667602539,-3.18892502784729,-16.770275115966797
0,454884,-4.561135768890381,18.151914596557617,-1.8233166933059692,-8.765278816223145
0,454884,20.908750534057617,8.202665328979492,0.2118576616048813,-3.9605822563171387
0,454884,5.5434980392456055,-35.14618682861328,-0.543404757976532,18.471826553344727
0,454885,-11.054815292358398,10.276737213134766,6.611461639404297,7.180845737457275
0,454885,23.78278350830078,9.70981216430664,9.009812355041504,-27.21549415588379
0,454886,-7.127923965454102,14.548341751098633,10.762133598327637,22.112043380737305
0,454886,-17.712703704833984,35.10862350463867,-2.379413366317749,11.632064819335938
0,454886,20.48522186279297,-18.767906188964844,-19.13968849182129,-38.00135040283203
0,454887,-10.133697509765625,-21.610319137573242,7.499805927276611,21.105403900146484
0,454887,-14.54862117767334,17.79892349243164,5.686312675476074,20.497867584228516
0,454887,9.449023246765137,-7.561270713806152,-7.463393688201904,-24.984424591064453
0,454887,-1.27195405960083,-13.47906494140625,4.884000778198242,-2.499483823776245
0,454887,-1.8875834941864014,13.37038803100586,-10.190210342407227,3.057281732559204
0,454887,-13.624821662902832,-0.4111219346523285,-16.33684730529785,7.881610870361328
0,454889,1.1528799533843994,-3.5017669200897217,20.641075134277344,13.418590545654297
0,454890,9.440240859985352,3.684553861618042,18.04629898071289,-16.878103256225586
0,454891,-12.101354598999023,-19.28355598449707,-22.827835083007812,-6.874995708465576
0,454894,12.398058891296387,-15.729548454284668,-11.779134750366211,15.446699142456055
0,454895,5.258064270019531,10.278215408325195,10.241228103637695,-30.02052116394043
0,454898,-16.55726432800293,-7.550426483154297,-6.568425178527832,-12.166604995727539
0,454899,9.858258247375488,-8.315887451171875,-4.547497749328613,42.05482864379883
0,454902,20.082740783691406,5.883049011230469,19.481143951416016,-14.097332000732422
0,454903,-14.12204647064209,4.824032306671143,-2.433204412460327,-13.269244194030762
0,454906,-4.859843730926514,25.338035583496094,-22.364065170288086,1.4547150135040283
0,454907,-0.9014155268669128,-15.36811351776123,9.28104305267334,11.714836120605469
0,454910,-2.3927528858184814,-7.692828178405762,18.736324310302734,25.55132484436035
0,454912,30.705280303955078,57.67323684692383,5.002076148986816,-56.492576599121094
0,454914,-16.77402114868164,-12.119171142578125,-20.846105575561523,25.947153091430664
0,454916,-30.688404083251953,-46.7176628112793,-26.78571319580078,68.71129608154297
0,454918,19.43680763244629,24.284265518188477,31.0286922454834,-69.42050170898438
0,454920,6.440365314483643,4.12237024307251,38.607337951660156,-37.140254974365234
0,454922,-7.834662437438965,-25.79662322998047,-2.233808994293213,39.337867736816406
0,454924,-5.034654140472412,7.065955638885498,-18.214876174926758,19.99262237548828
0,454926,-8.462116241455078,-9.177449226379395,-13.649683952331543,48.90641403198242
0,454928,19.50606346130371,8.582788467407227,3.5179495811462402,9.449230194091797
0,454930,-2.057649612426758,13.079075813293457,-8.848654747009277,-124.55546569824219
0,454932,-12.141828536987305,-19.73725700378418,-10.051973342895508,-37.21036148071289
0,454934,21.410572052001953,11.143125534057617,4.9014997482299805,105.50690460205078
0,454936,0.9929677844047546,12.305790901184082,8.472177505493164,31.21640396118164
0,454938,-16.951663970947266,-5.939408779144287,4.350878715515137,-49.055076599121094
0,454940,3.3939781188964844,-4.152829170227051,-17.054889678955078,-27.15532875061035
0,455134,17.018972396850586,9.655693054199219,3.505368232727051,38.917564392089844
0,455135,-1.3357195854187012,1.749730110168457,10.941193580627441,20.429960250854492
0,455135,-0.9221020936965942,-5.497064113616943,-20.55984878540039,-42.70317077636719
0,455135,-12.060227394104004,-9.310196876525879,4.021053791046143,4.988864898681641
0,455135,-8.47382640838623,-6.97163200378418,29.006345748901367,10.958479881286621
0,455135,5.431031227111816,10.319025039672852,-0.5543975830078125,-16.728012084960938
0,455135,3.4733731746673584,-1.1547602415084839,-8.092856407165527,6.710656642913818
0,455136,6.281040191650391,-0.49812501668930054,1.6409233808517456,2.7814137935638428
0,455136,-14.19270133972168,5.1616129875183105,-5.445892810821533,4.053261756896973
0,455136,-1.1280860900878906,4.026630878448486,17.108949661254883,5.826563358306885
0,455136,23.79698371887207,-1.723305344581604,2.22375750541687,-16.221908569335938
0,455136,-2.4089980125427246,0.5593671798706055,-24.985980987548828,-5.002947807312012
0,455136,-25.75366973876953,3.284806728363037,0.933103084564209,19.504671096801758
0,455137,9.39586353302002,-7.28606653213501,3.0143320560455322,-0.8004204034805298
0,455137,22.120752334594727,-9.689807891845703,-1.8123549222946167,-16.12370491027832
0,455137,-16.61761474609375,0.16516852378845215,4.618990421295166,7.20695686340332
0,455137,-12.295663833618164,4.625311374664307,0.740093469619751,18.691953659057617
0,455137,17.182140350341797,6.203551292419434,-6.967144966125488,4.418856620788574
0,455137,-4.560744762420654,9.342483520507812,-21.387529373168945,4.8560051918029785
0,455138,-9.061436653137207,-6.994412422180176,1.8223553895950317,-13.902780532836914
0,455138,6.666210651397705,-20.754924774169922,18.990041732788086,-17.292219161987305
0,455138,-8.878850936889648,7.192348003387451,2.0894277095794678,10.995368957519531
0,455138,-0.6987651586532593,8.080080032348633,10.946621894836426,-4.858656883239746
0,455138,-4.416707515716553,-25.733867645263672,-3.195570707321167,-18.348588943481445
0,455139,-7.795350551605225,7.125752925872803,-10.80364990234375,1.1156926155090332
0,455139,11.400211334228516,8.81928825378418,5.911294937133789,17.184907913208008
0,455139,6.063791751861572,-9.171586990356445,17.82323455810547,6.961941242218018
0,455139,10.848817825317383,16.268503189086914,0.33809953927993774,-9.36110782623291
0,455139,4.73713493347168,-9.241857528686523,-16.44655418395996,0.9073906540870667
0,455139,-21.62635040283203,-10.664361953735352,4.383913516998291,-1.5189056396484375
0,455140,-10.522225379943848,19.58362579345703,-15.090089797973633,-18.5760440826416
0,455140,8.693734169006348,0.9107442498207092,-9.20989990234375,-3.6598730087280273
0,455140,-0.3656861186027527,2.1669700145721436,19.11459732055664,13.76190185546875
0,455140,-1.4178838729858398,12.269415855407715,-7.991344451904297,9.22514820098877
0,455140,2.0727076530456543,-4.204002857208252,-2.8167824745178223,-3.75358247756958
0,455140,15.638134956359863,-18.611141204833984,15.857460021972656,10.24994945526123
0,455141,30.174470901489258,-4.909422397613525,4.91372537612915,19.299257278442383
0,455141,-14.346261978149414,32.90532684326172,-3.0649425983428955,-15.68018627166748
0,455141,-28.81601905822754,-7.548428058624268,-7.320981979370117,-11.729531288146973
0,455141,6.177011013031006,-23.810007095336914,11.673673629760742,31.060562133789062
0,455141,9.711276054382324,26.729248046875,5.344203472137451,1.6839450597763062
0,455141,4.065160274505615,-11.510183334350586,-26.3809814453125,-44.11589813232422
0,455142,11.639501571655273,-12.277291297912598,-9.881278038024902,-5.149542808532715
0,455142,9.447142601013184,22.872074127197266,22.169313430786133,20.391908645629883
0,455142,-25.89124298095703,-10.178492546081543,14.1057767868042,5.021512985229492
0,455142,-17.332630157470703,5.416505813598633,-16.13518524169922,-11.139448165893555
0,455142,17.926694869995117,16.45121955871582,-26.90431022644043,-26.410303115844727
0,455142,-4.0182695388793945,-20.017683029174805,10.70789623260498,6.249187469482422
0,455143,-4.9839701652526855,-2.995568037033081,36.48565673828125,19.992477416992188
0,455143,23.734878540039062,12.082962036132812,-2.7110254764556885,0.08517304062843323
0,455143,-5.627289772033691,-19.00449562072754,-14.590544700622559,13.143805503845215
0,455143,-12.914068222045898,0.24415431916713715,19.124835968017578,1.376481533050537
0,455143,23.61302375793457,29.205474853515625,6.476705074310303,-6.396963596343994
0,455143,-4.870302677154541,-3.0127673149108887,-19.028892517089844,6.573256492614746
0,455144,-37.44969177246094,-20.667301177978516,-1.8972752094268799,2.8498167991638184
0,455144,2.123652458190918,7.093482494354248,4.149207592010498,12.105170249938965
0,455144,28.718915939331055,8.656452178955078,-5.991562366485596,-8.243022918701172
0,455144,-28.723955154418945,-20.85347557067871,2.756615400314331,-21.05611801147461
0,455144,-29.24788475036621,-17.119529724121094,-3.5408904552459717,22.761993408203125
0,455145,24.848125457763672,18.069900512695312,-21.337711334228516,18.6367244720459
0,455145,17.354679107666016,17.340665817260742,4.365975379943848,-28.69536590576172
0,455145,8.284566879272461,-24.195932388305664,1.8823357820510864,-1.8378032445907593
0,455145,-15.879495620727539,-1.0944422483444214,-3.4791221618652344,21.031591415405273
0,455145,-10.377214431762695,23.04157066345215,18.584228515625,-19.134794235229492
0,455145,20.58519172668457,-16.22187042236328,-6.2739996910095215,-2.2659530639648438
0,455146,8.863042831420898,-8.157672882080078,-19.496686935424805,25.53827667236328
0,455146,0.4923127591609955,11.978228569030762,-5.215215682983398,-11.107144355773926
0,455146,-10.461583137512207,2.6586391925811768,13.750167846679688,-15.641073226928711
0,455146,-9.068862915039062,6.732631206512451,16.666858673095703,13.123981475830078
0,455146,3.5298690795898438,0.2088925689458847,-0.8957598805427551,5.49818229675293
0,455146,13.670641899108887,1.549759030342102,-9.914475440979004,-8.972535133361816
0,455147,-7.3922624588012695,2.941856622695923,-9.75688362121582,-9.386126518249512
0,455147,-21.12412452697754,-7.853567123413086,7.854787826538086,-8.178792953491211
0,455147,22.253490447998047,7.121406078338623,18.638540267944336,-11.587262153625488
0,455147,4.698814868927002,-3.612783670425415,-4.860891819000244,13.264670372009277
0,455147,-7.179713726043701,-15.716294288635254,-13.369229316711426,30.091157913208008
0,455147,18.914072036743164,4.011107921600342,16.045215606689453,-15.591353416442871
0,455147,-5.39668083190918,14.648265838623047,8.115975379943848,-21.502403259277344
0,455148,0.5980539917945862,1.4501196146011353,-15.746114730834961,14.478799819946289
0,455148,0.5748479962348938,-3.2996292114257812,-3.5476038455963135,4.863245010375977
0,455148,-10.37648868560791,9.002236366271973,-4.167667865753174,-11.24949836730957
0,455148,-2.171922445297241,-30.44462776184082,-2.9479026794433594,-3.063662528991699
0,455148,-8.964730262756348,-18.04857635498047,-4.6954569816589355,6.332785129547119
0,455149,-4.027239799499512,38.508174896240234,3.5370469093322754,2.265742778778076
0,455149,4.218379497528076,-1.1269612312316895,11.460821151733398,-18.996599197387695
0,455149,-3.7640819549560547,-34.782501220703125,-17.732145309448242,-6.186901569366455
0,455149,-12.59783935546875,8.729578018188477,-10.050950050354004,21.26762580871582
0,455149,-0.25679996609687805,5.9232025146484375,4.964842319488525,0.5198359489440918
0,455149,-2.0442261695861816,-19.27357292175293,17.560888290405273,-23.518815994262695
0,455150,5.753296375274658,32.97964096069336,18.16836929321289,-7.136183261871338
0,455150,32.2300910949707,12.761530876159668,-17.379671096801758,7.576986312866211
0,455150,3.3703131675720215,-33.29727554321289,3.2700884342193604,-9.67668628692627
0,455150,-27.886432647705078,8.873382568359375,6.929044246673584,-3.761335611343384
0,455150,6.983311176300049,14.741381645202637,-23.693836212158203,9.736446380615234
0,455150,21.541379928588867,-2.9857780933380127,2.4102585315704346,0.7475746273994446
0,455151,-8.679352760314941,-1.6490460634231567,25.343936920166016,2.889108180999756
0,455151,-16.202247619628906,-0.977440357208252,10.609262466430664,8.90574836730957
0,455152,3.5019185543060303,5.111554145812988,-12.440901756286621,17.759765625
0,455152,9.433307647705078,5.098500728607178,-1.7048869132995605,22.30457305908203
0,455152,4.863694667816162,3.224655866622925,2.0889155864715576,-14.165270805358887
0,455152,4.132421493530273,2.9725561141967773,-17.18110466003418,-12.425862312316895
0,455153,-4.783670425415039,-8.694072723388672,3.6316802501678467,11.032033920288086
0,455153,-10.676933288574219,-13.242016792297363,8.0753173828125,-10.255110740661621
0,455153,-4.922609806060791,-5.059221267700195,-6.253274917602539,12.647688865661621
0,455153,2.7268662452697754,14.835151672363281,-4.038863182067871,10.565703392028809
0,455153,-1.3414469957351685,9.971735954284668,-5.214078426361084,-14.604393005371094
0,455155,10.938607215881348,2.367624521255493,3.6410300731658936,13.9828519821167
0,455156,2.458230972290039,-8.674198150634766,15.1007661819458,28.978662490844727
0,455157,-14.973904609680176,-33.5362548828125,-10.889259338378906,-7.510295867919922
0,455160,14.68770694732666,-4.4075608253479,-17.760231018066406,-76.99386596679688
0,455161,15.476272583007812,19.619384765625,32.64613342285156,-23.863439559936523
0,455164,-23.060344696044922,15.964720726013184,16.49129295349121,84.43746185302734
0,455165,-8.380025863647461,11.734275817871094,-17.78699493408203,30.51201057434082
0,455168,13.236078262329102,3.3492660522460938,-6.830267429351807,-61.58802795410156
0,455169,-2.9312891960144043,-12.199248313903809,-8.75664234161377,-23.35431671142578
0,455172,3.20943546295166,-4.836862564086914,12.297480583190918,41.99142837524414
0,455173,5.789927959442139,5.893326759338379,5.838075637817383,3.682765007019043
0,455176,-15.883042335510254,-24.567031860351562,-54.989009857177734,-45.736915588378906
0,455178,-11.66423511505127,9.293401718139648,7.708057403564453,-1.2148972749710083
0,455180,25.808462142944336,40.464683532714844,67.4321060180664,13.664630889892578
0,455182,-2.1248393058776855,-28.071895599365234,-18.085859298706055,14.1759033203125
0,455184,-22.850868225097656,-25.0533447265625,-28.326765060424805,44.02616882324219
0,455186,12.109018325805664,20.803897857666016,35.37959289550781,-21.154830932617188
0,455188,-4.751036643981934,17.24340057373047,-6.251147747039795,-25.581899642944336
0,455190,2.2023487091064453,1.1127811670303345,-34.422889709472656,18.832523345947266
0,455192,16.079341888427734,-37.521949768066406,15.789177894592285,-9.544431686401367
0,455194,-25.277894973754883,-8.645813941955566,-12.056965827941895,-23.770071029663086
0,455196,-7.224895477294922,46.36210632324219,2.617314577102661,-19.18303108215332
0,455198,23.16895294189453,-18.64088249206543,15.732621192932129,20.384944915771484
0,455200,1.244160771369934,-30.458040237426758,-16.183914184570312,43.49062728881836
0,455202,2.3897671699523926,36.41387176513672,44.68583297729492,1.956748366355896
0,455204,9.131141662597656,19.154428482055664,20.539888381958008,-60.140220642089844
0,455398,-3.9450201988220215,-8.135659217834473,-71.71097564697266,-33.00654602050781
0,455398,-0.6944530606269836,-14.478710174560547,-21.5035400390625,47.86969757080078
0,455399,0.5316925644874573,-18.40264129638672,53.49580383300781,20.049734115600586
0,455399,-11.294282913208008,0.6471799612045288,12.56569766998291,-5.597470283508301
0,455399,10.154109001159668,30.65993309020996,-22.01887321472168,-9.404132843017578
0,455399,5.867760181427002,-5.014832496643066,-1.3385744094848633,-22.403629302978516
0,455399,-28.699392318725586,-40.403038024902344,-5.405627727508545,13.77152156829834
0,455399,-13.048084259033203,0.777180552482605,-23.78339385986328,38.04768371582031
0,455400,21.9918270111084,10.177289962768555,4.882218360900879,18.2678165435791
0,455400,4.144088268280029,4.319665908813477,17.785537719726562,-14.458037376403809
0,455400,-12.373082160949707,24.355337142944336,-7.0004377365112305,-15.221159934997559
0,455400,11.620743751525879,-8.050168991088867,2.8512308597564697,21.029277801513672
0,455400,6.370908260345459,-25.08973503112793,8.636567115783691,23.4947509765625
0,455400,-5.760554313659668,7.103034973144531,9.340975761413574,-22.764970779418945
0,455401,1.1573200225830078,11.849089622497559,6.338317394256592,-24.86737823486328
0,455401,-1.4551222324371338,17.853347778320312,-6.25447416305542,5.281461715698242
0,455401,-3.9354026317596436,0.3506973385810852,-1.4771127700805664,8.893598556518555
0,455401,0.9143580198287964,-14.77489948272705,-0.4933569133281708,-7.946897506713867
0,455401,-1.3995890617370605,2.669929265975952,0.25946444272994995,-8.405583381652832
0,455401,14.490286827087402,15.7416410446167,-6.871120452880859,-3.4604110717773438
0,455402,17.011886596679688,9.443046569824219,-19.566625595092773,0.9698926210403442
0,455402,-26.343860626220703,-17.92176055908203,18.184648513793945,20.634296417236328
0,455402,-4.385261535644531,-18.41448211669922,40.03554153442383,4.776702880859375
0,455402,26.5809326171875,11.069608688354492,-15.368980407714844,-18.40389633178711
0,455402,-20.334911346435547,-2.6832900047302246,-25.43059730529785,0.38458454608917236
0,455402,-12.516077995300293,-4.89516544342041,8.655755043029785,6.261314392089844
0,455403,28.538082122802734,21.151235580444336,-9.47600269317627,-14.666375160217285
0,455403,-4.587289810180664,-17.539073944091797,7.693230628967285,14.910022735595703
0,455403,-29.421646118164062,0.32413262128829956,18.013341903686523,15.946956634521484
0,455403,28.59282112121582,18.66782569885254,-29.291439056396484,-28.41971778869629
0,455403,18.821088790893555,-26.660852432250977,-9.587918281555176,3.1094179153442383
0,455404,-38.711143493652344,0.45368602871894836,18.26813507080078,6.723727226257324
0,455404,-1.8113521337509155,6.2544121742248535,1.1101797819137573,-21.759140014648438
0,455404,17.710634231567383,1.8457543849945068,0.2870257794857025,0.5157904028892517
0,455404,-1.1650134325027466,17.569252014160156,-0.40418729186058044,8.935321807861328
0,455404,-6.299672603607178,-18.834854125976562,-19.262725830078125,6.2699384689331055
0,455404,-13.817831993103027,4.08684778213501,-0.07751492410898209,-1.5110050439834595
0,455405,4.982508659362793,7.586885929107666,6.5019707679748535,-12.319884300231934
0,455405,9.17396068572998,-27.79035758972168,-14.762965202331543,0.6321766376495361
0,455405,-11.631535530090332,14.438965797424316,-4.8192877769470215,-14.605152130126953
0,455405,1.6986485719680786,2.057568073272705,-1.3572412729263306,-18.086544036865234
0,455405,10.590261459350586,-24.565176010131836,14.767203330993652,5.978482246398926
0,455405,-6.162991523742676,-4.021106719970703,9.057250022888184,4.960659503936768
0,455406,-5.940042495727539,11.130367279052734,0.22868166863918304,7.047865867614746
0,455406,27.030237197875977,38.253658294677734,12.080843925476074,-14.22867488861084
0,455406,11.557771682739258,5.32319450378418,-3.8993046283721924,-15.643423080444336
0,455406,-35.659114837646484,-28.583580017089844,-10.629780769348145,25.704952239990234
0,455406,-9.176858901977539,14.772374153137207,11.555631637573242,28.316268920898438
0,455406,8.819748878479004,19.83922576904297,12.392912864685059,-13.547403335571289
0,455407,8.471510887145996,-29.607364654541016,-9.81823444366455,-16.30010414123535
0,455407,10.152053833007812,-13.747883796691895,11.602880477905273,22.645841598510742
0,455407,-17.498746871948242,25.12779426574707,0.4728153944015503,7.365445137023926
0,455407,-2.2480733394622803,3.729694366455078,-21.299049377441406,-9.54433822631836
0,455407,18.993846893310547,16.336105346679688,16.563858032226562,-2.7538199424743652
0,455407,6.6740593910217285,18.373689651489258,8.127312660217285,2.9242539405822754
0,455408,-2.34867525100708,-28.852779388427734,-11.980795860290527,20.4460506439209
0,455408,15.20679759979248,-12.109853744506836,-6.220142364501953,10.859590530395508
0,455408,11.980055809020996,15.377593994140625,-7.934464931488037,-4.732036590576172
0,455408,-28.46292495727539,-19.784175872802734,19.24330711364746,-2.425031900405884
0,455408,-25.97357940673828,-12.456334114074707,1.7942320108413696,9.386723518371582
0,455408,14.480463027954102,27.073989868164062,-20.748266220092773,-2.949640989303589
0,455409,20.6130428314209,-6.641516208648682,18.94614601135254,2.0337395668029785
0,455409,-2.211029291152954,-17.664880752563477,13.258456230163574,16.32237434387207
0,455409,-11.415493965148926,12.969212532043457,-19.40892791748047,-14.98888874053955
0,455409,-16.514179229736328,-9.011984825134277,-8.207243919372559,-0.19317927956581116
0,455409,3.1067633628845215,-15.650806427001953,14.728713989257812,5.6083245277404785
0,455409,-2.6581292152404785,1.0412390232086182,-7.066428184509277,-14.523331642150879
0,455410,-12.921088218688965,-17.294490814208984,-3.0117719173431396,2.2029290199279785
0,455410,15.725707054138184,0.47863149642944336,-0.5328642725944519,-1.0484298467636108
0,455410,-4.623790740966797,25.245882034301758,-34.048954010009766,-7.458824157714844
0,455410,-21.333194732666016,-8.479504585266113,11.557392120361328,-10.435624122619629
0,455410,18.57592010498047,-11.309067726135254,16.15407943725586,-3.1230697631835938
0,455410,11.517298698425293,-1.9232033491134644,-15.419073104858398,8.244580268859863
0,455411,-24.38188934326172,4.742503643035889,6.96310567855835,-0.5365932583808899
0,455411,4.554765224456787,27.970848083496094,-3.856260061264038,-6.878323078155518
0,455411,19.7283878326416,13.077797889709473,-8.352952003479004,-11.377413749694824
0,455411,-7.012716293334961,-22.41269874572754,1.243679404258728,-1.9619756937026978
0,455411,2.7722887992858887,2.885793685913086,19.587881088256836,9.965258598327637
0,455411,29.541040420532227,21.510364532470703,17.872894287109375,-4.285122394561768
0,455412,30.981281280517578,-12.82799243927002,-27.913463592529297,-5.26084566116333
0,455412,-27.09773063659668,-3.3612220287323,-19.55868911743164,12.561206817626953
0,455412,-64.45872497558594,-12.061540603637695,18.63646125793457,3.007537364959717
0,455412,16.01228904724121,-6.929980278015137,17.38698959350586,2.436171770095825
0,455412,38.31500244140625,2.9336016178131104,-0.16778427362442017,-3.2889750003814697
0,455413,-27.3696346282959,2.211968183517456,0.5306448340415955,-1.7987329959869385
0,455413,3.117802858352661,23.129192352294922,5.518521785736084,4.346144199371338
0,455413,12.471343994140625,-25.226016998291016,-8.400398254394531,7.789403438568115
0,455413,-26.774198532104492,-38.32545471191406,-0.41053950786590576,20.737567901611328
0,455413,7.205804824829102,44.06608963012695,11.851899147033691,-18.607343673706055
0,455413,14.475005149841309,59.22626495361328,-2.95993971824646,-28.437883377075195
0,455413,-11.337631225585938,-16.08536148071289,6.479308128356934,13.17665958404541
0,455414,0.40119096636772156,-26.4283390045166,-0.7386474609375,-0.5439516305923462
0,455414,6.5152668952941895,-9.838481903076172,-51.56205368041992,-13.261423110961914
0,455414,-0.6784181594848633,-9.923206329345703,-6.1293463706970215,22.56943702697754
0,455414,28.288883209228516,22.7005672454834,72.70074462890625,38.987762451171875
0,455414,27.58255958557129,17.264066696166992,4.723623275756836,-26.59701919555664
0,455414,-30.212942123413086,-10.388969421386719,-54.857845306396484,-39.59425354003906
0,455416,-45.16020584106445,-30.315719604492188,-8.696383476257324,37.454524993896484
0,455416,10.762113571166992,-5.804682731628418,28.494272232055664,6.116799354553223
0,455416,18.013776779174805,31.490358352661133,8.142865180969238,-10.775369644165039
0,455416,-5.589617729187012,-13.81672191619873,-3.000572919845581,9.910605430603027
0,455416,3.5770068168640137,-30.632659912109375,13.268601417541504,-12.332767486572266
0,455417,-5.61403751373291,26.165668487548828,-3.484837532043457,-3.1267619132995605
0,455417,-0.5928621888160706,26.502267837524414,-14.497912406921387,6.020329475402832
0,455417,1.1388931274414062,-19.210222244262695,-9.211727142333984,-26.18128204345703
0,455417,7.963681221008301,-16.736398696899414,-6.370822906494141,-7.835621356964111
0,455418,-3.64325213432312,6.654561519622803,15.522541046142578,32.53480529785156
0,455420,-20.711912155151367,-2.2456023693084717,1.2484043836593628,-4.492003440856934
0,455422,0.6540414094924927,-10.671321868896484,-13.592279434204102,-40.33628463745117
0,455424,20.01436424255371,16.557571411132812,9.1846284866333,-33.59074783325195
0,455426,5.340035915374756,15.184569358825684,3.0331926345825195,42.99346923828125
0,455428,-8.513277053833008,-3.5211498737335205,11.96083927154541,64.2453842163086
0,455430,2.7204220294952393,-2.970062017440796,11.223257064819336,-29.376953125
0,455432,-33.62568664550781,-32.02189254760742,15.7577543258667,-23.407794952392578
0,455435,14.459877967834473,-11.605154991149902,-30.49888801574707,21.027315139770508
0,455436,63.75790786743164,51.01564025878906,-56.27316665649414,-19.589839935302734
0,455439,-54.28329849243164,-3.4375860691070557,39.01371765136719,3.1180877685546875
0,455440,-17.05698013305664,-18.036256790161133,25.50817108154297,13.727124214172363
0,455443,62.31375503540039,22.471511840820312,-4.322805881500244,-4.3928070068359375
0,455444,-23.298837661743164,-20.234525680541992,-13.052188873291016,8.383338928222656
0,455447,-13.497735977172852,-6.552666664123535,-11.047609329223633,15.570873260498047
0,455448,7.075643539428711,31.858623504638672,24.73124885559082,-16.064542770385742
0,455449,-0.7885095477104187,3.813509225845337,-39.906307220458984,-55.61589431762695
0,455452,12.59141731262207,-16.551624298095703,-30.701953887939453,51.12699890136719
0,455645,-13.797175407409668,2.7267074584960938,47.85896682739258,43.77295684814453
0,455646,-19.8607177734375,-0.9245771169662476,35.3896484375,-48.688751220703125
0,455646,12.527168273925781,-10.287382125854492,-12.624256134033203,12.405391693115234
0,455646,17.863935470581055,11.57172679901123,-15.266030311584473,14.22836685180664
0,455646,-13.814376831054688,4.663032531738281,13.512925148010254,-14.742770195007324
0,455646,-22.680862426757812,-21.284576416015625,4.98539400100708,0.6463363170623779
0,455646,11.42597484588623,-17.539161682128906,-24.46684455871582,-4.391571044921875
0,455647,31.963144302368164,24.434207916259766,-12.139982223510742,-11.859840393066406
0,455647,-20.9134464263916,16.254276275634766,13.484336853027344,-6.363328456878662
0,455647,-16.324596405029297,-33.84468078613281,3.8199756145477295,4.6393866539001465
0,455647,15.513577461242676,-4.392137050628662,9.778785705566406,-7.380504608154297
0,455647,-7.438337802886963,17.310462951660156,12.769754409790039,4.917675971984863
0,455647,-1.4120815992355347,12.49085807800293,-12.62170696258545,5.798532962799072
0,455648,10.264786720275879,-0.32832804322242737,-17.718732833862305,-10.926084518432617
0,455648,0.20190033316612244,-31.649415969848633,12.278980255126953,21.19440269470215
0,455648,0.8318508863449097,21.410511016845703,13.089213371276855,20.436296463012695
0,455648,1.0551615953445435,33.19765853881836,-27.399145126342773,-15.671913146972656
0,455648,-13.60483455657959,-32.7629280090332,-5.691560745239258,-7.169124603271484
0,455648,-0.5025914311408997,-7.624261379241943,23.131336212158203,9.37756633758545
0,455649,8.60076904296875,10.510210990905762,0.5980556607246399,1.3016693592071533
0,455649,4.256066799163818,4.598984241485596,-0.5067633986473083,-3.0435526371002197
0,455649,2.4692671298980713,11.071969032287598,-12.065921783447266,-20.185819625854492
0,455649,-2.4095444679260254,-8.438908576965332,-13.844807624816895,-9.451643943786621
0,455649,0.7465230822563171,-4.205138683319092,15.817447662353516,12.34812068939209
0,455649,-12.322612762451172,-7.064516067504883,0.9716094136238098,14.189498901367188
0,455650,-10.527382850646973,-0.6661226749420166,-5.083007335662842,11.35841178894043
0,455650,29.499832153320312,9.951784133911133,15.045615196228027,-7.090306758880615
0,455650,10.634299278259277,-3.8133528232574463,-8.496586799621582,-12.693964958190918
0,455650,-24.118667602539062,0.5471868515014648,-13.229229927062988,-14.176534652709961
0,455650,-2.0726523399353027,-1.7546117305755615,21.034399032592773,9.211670875549316
0,455651,-2.897692918777466,-14.329987525939941,8.065812110900879,19.898555755615234
0,455651,-7.484499931335449,3.9632112979888916,-15.963728904724121,-11.646547317504883
0,455651,7.6370110511779785,18.9725341796875,-6.782658576965332,-2.894920825958252
0,455651,7.861561298370361,-0.8479668498039246,1.5412570238113403,5.564393997192383
0,455651,3.1518845558166504,-12.926031112670898,1.062029242515564,-6.2303643226623535
0,455651,5.40141487121582,6.122786045074463,-4.508083820343018,-12.486900329589844
0,455652,-12.383373260498047,0.23876595497131348,0.7026193737983704,-7.07095193862915
0,455652,-2.30890154838562,-8.282249450683594,3.4439799785614014,13.32884407043457
0,455652,9.044485092163086,2.091688632965088,13.668965339660645,4.350633144378662
0,455652,-7.378625392913818,-0.010444779880344868,7.477645397186279,3.1740987300872803
0,455652,2.744004011154175,-5.5471720695495605,-12.890287399291992,-0.8830907940864563
0,455652,5.591569900512695,-18.960737228393555,-13.385217666625977,-6.639050483703613
0,455653,-12.071464538574219,-4.571457386016846,-13.805177688598633,16.937772750854492
0,455653,-8.254420280456543,25.549562454223633,34.492950439453125,-7.128888130187988
0,455653,13.713705062866211,29.692981719970703,38.36453628540039,-24.956411361694336
0,455653,9.446284294128418,-8.295703887939453,-32.7789192199707,32.1657600402832
0,455653,-6.467275619506836,-21.878313064575195,-22.881258010864258,13.64145565032959
0,455653,3.686903715133667,12.08996295928955,15.37964916229248,-27.541820526123047
0,455654,22.96595001220703,14.495280265808105,-17.797204971313477,3.505068063735962
0,455654,-16.519336700439453,-6.3342204093933105,-10.80557632446289,17.137174606323242
0,455654,-15.204184532165527,-11.741398811340332,13.141613960266113,-10.215438842773438
0,455654,-20.132469177246094,9.044110298156738,4.2714691162109375,-12.039607048034668
0,455654,9.705787658691406,3.3778674602508545,11.931154251098633,17.5080623626709
0,455654,65.94515228271484,-9.612751960754395,-22.74036407470703,-14.310293197631836
0,455655,-37.59000015258789,-7.10542631149292,-11.262822151184082,-6.001527786254883
0,455655,-50.0304069519043,3.6433215141296387,42.632408142089844,20.042322158813477
0,455655,17.912456512451172,15.030669212341309,3.195058822631836,-4.222410678863525
0,455655,18.89891242980957,-12.381990432739258,-26.21517562866211,-7.097317695617676
0,455655,15.418278694152832,-14.32988452911377,7.170048236846924,-2.507829189300537
0,455656,-11.78102970123291,16.291675567626953,15.131322860717773,7.3651533126831055
0,455656,-23.914216995239258,9.394165992736816,-1.667785406112671,-2.323605537414551
0,455656,25.92383575439453,-9.665875434875488,-9.64294719696045,-13.936903953552246
0,455656,19.71043586730957,-2.4351065158843994,-2.2641255855560303,11.266983985900879
0,455656,-32.889408111572266,-11.44069766998291,0.2296677529811859,16.014116287231445
0,455656,2.3616437911987305,-12.966525077819824,0.8623603582382202,-16.95856475830078
0,455657,14.195818901062012,6.8598175048828125,-4.120937824249268,-7.735002517700195
0,455657,-7.56940221786499,12.85877513885498,1.0609394311904907,2.286921977996826
0,455657,12.273035049438477,1.8664653301239014,7.833812236785889,-9.461310386657715
0,455657,-4.548305988311768,-15.046331405639648,-3.214879035949707,19.634408950805664
0,455657,-22.21611213684082,16.807411193847656,7.767929553985596,16.132707595825195
0,455657,9.366289138793945,16.019880294799805,9.0785551071167,-12.190802574157715
0,455658,21.724210739135742,-24.99654197692871,-20.20639991760254,-11.425439834594727
0,455658,-5.468168258666992,1.374387264251709,-18.77944564819336,-10.452566146850586
0,455658,-19.308073043823242,-5.638479709625244,9.717552185058594,6.212227821350098
0,455658,-16.55083465576172,0.7275623083114624,16.373046875,27.957101821899414
0,455658,0.6278236508369446,41.024620056152344,-4.552576065063477,5.034128189086914
0,455658,17.31338882446289,-22.023193359375,-8.269923210144043,-9.600775718688965
0,455659,8.94318675994873,-17.575042724609375,20.47010612487793,3.850940227508545
0,455659,3.8414809703826904,22.68791389465332,-1.6892203092575073,-18.20783233642578
0,455659,-4.307381629943848,-13.732698440551758,-19.806730270385742,-11.94459056854248
0,455659,-12.070798873901367,-7.216912269592285,-0.7993578314781189,16.78961753845215
0,455659,7.551680088043213,19.571880340576172,-4.537038803100586,-7.443977355957031
0,455659,17.480194091796875,10.583407402038574,10.11996078491211,-12.981749534606934
0,455660,-8.159682273864746,-28.58001708984375,4.357449531555176,8.84298324584961
0,455660,-12.5262451171875,-5.307143688201904,-15.389145851135254,-7.669184684753418
0,455660,-1.8487977981567383,20.40239715576172,-7.90942907333374,-6.791950225830078
0,455660,-2.933931827545166,-21.214994430541992,7.8239545822143555,10.514156341552734
0,455660,14.653118133544922,7.1788482666015625,6.881771564483643,-11.918313026428223
0,455660,9.611895561218262,20.934268951416016,-4.035791873931885,0.30623069405555725
0,455661,-12.629664421081543,-28.226900100708008,10.919405937194824,15.542254447937012
0,455661,4.156886100769043,2.633702039718628,9.112140655517578,1.0654608011245728
0,455661,8.868867874145508,25.02353858947754,-2.488769292831421,9.463614463806152
0,455661,-0.7096866369247437,-5.9245405197143555,-6.227064609527588,-6.436495304107666
0,455661,-13.082322120666504,-10.409429550170898,6.579590797424316,-0.9476693868637085
0,455661,-10.921366691589355,4.672609329223633,19.802234649658203,15.769036293029785
0,455662,15.061586380004883,10.769658088684082,-7.788616180419922,-17.757299423217773
0,455662,1.438429355621338,-10.133586883544922,-14.832520484924316,5.368218421936035
0,455663,-19.90959930419922,-17.39266014099121,9.99087142944336,39.05868911743164
0,455663,-8.499686241149902,5.220635414123535,-10.301146507263184,-8.063108444213867
0,455663,-0.14290566742420197,8.813287734985352,-14.97382926940918,-13.118693351745605
0,455664,1.2584753036499023,-3.798434257507324,15.44222354888916,0.9741677045822144
0,455664,14.762731552124023,3.5494260787963867,-13.017698287963867,-13.487604141235352
0,455664,14.418645858764648,6.609037399291992,-14.82513427734375,3.584630250930786
0,455664,-4.025023937225342,-2.261342763900757,21.041276931762695,8.631009101867676
0,455664,-10.955086708068848,-9.218682289123535,-8.908533096313477,-11.362959861755371
0,455666,7.73606014251709,-8.438308715820312,-26.128576278686523,-20.593975067138672
0,455666,5.423164367675781,15.344858169555664,27.21122932434082,-7.236955642700195
0,455669,-5.143012523651123,13.76991081237793,11.709831237792969,-10.523550987243652
0,455670,2.8495593070983887,-9.505191802978516,-25.440126419067383,16.328676223754883
0,455673,-7.284037113189697,-7.456942081451416,16.8470458984375,14.316495895385742
0,455674,-4.118518352508545,10.4798583984375,16.45121955871582,-15.779437065124512
0,455677,7.816959857940674,6.200652599334717,-20.534650802612305,7.519289970397949
0,455678,-6.122046947479248,-33.940250396728516,-10.939661979675293,-16.88286590576172
0,455681,0.9568663239479065,-14.498067855834961,32.17408752441406,-2.992398738861084
0,455682,10.828548431396484,25.108610153198242,9.101243019104004,52.17952346801758
0,455683,-27.051166534423828,-0.12468509376049042,-31.53337287902832,27.520601272583008
0,455686,6.3641037940979,5.532024383544922,5.234938621520996,-36.13529968261719
0,455687,41.18597412109375,5.358581066131592,25.57733726501465,-32.20903778076172
0,455690,-14.836893081665039,-8.890552520751953,-1.7259774208068848,17.027446746826172
0,455691,-13.72619342803955,13.22850513458252,-21.41371726989746,1.6061394214630127
0,455694,2.4759466648101807,19.631132125854492,-10.670909881591797,-8.16204833984375
0,455695,-14.967015266418457,-9.558243751525879,4.391555309295654,13.715174674987793
0,455698,2.7155861854553223,-24.993755340576172,10.125561714172363,-3.371901750564575
0,455699,11.812613487243652,20.22173500061035,3.227794885635376,-3.2773115634918213
0,455702,-1.449884057044983,0.8758761882781982,0.996357262134552,-14.521625518798828
0,455703,12.019315719604492,-22.1042537689209,3.134751558303833,-19.6408748626709
0,455706,8.239317893981934,11.886523246765137,-3.920456886291504,23.674047470092773
0,455707,-19.782005310058594,-2.3025684356689453,-5.500624179840088,19.515335083007812
0,455710,-7.060855388641357,-22.897804260253906,-4.209436416625977,-3.8540658950805664
0,455904,15.120113372802734,0.2947797477245331,-4.896454811096191,12.174398422241211
0,455904,3.0188229084014893,32.6346549987793,-18.102251052856445,5.705704689025879
0,455904,-9.410430908203125,-4.917697906494141,-1.1529971361160278,-4.5298171043396
0,455904,-3.7564358711242676,-22.5816650390625,25.479124069213867,4.256263732910156
0,455904,6.726140975952148,11.8958158493042,10.496844291687012,-21.96469497680664
0,455905,9.60457992553711,-3.631795644760132,-7.602724552154541,6.852376461029053
0,455905,-15.499736785888672,-8.481521606445312,-8.50060749053955,20.481748580932617
0,455905,-17.44951057434082,16.534732818603516,-2.5157060623168945,-15.314918518066406
0,455905,16.68819808959961,14.220017433166504,11.671499252319336,-6.411020755767822
0,455905,-2.2980172634124756,-0.37787926197052,1.4801945686340332,-13.142114639282227
0,455905,-16.390291213989258,-20.594886779785156,-9.999743461608887,-11.682010650634766
0,455906,10.130789756774902,-11.849569320678711,9.532027244567871,14.234909057617188
0,455906,5.128414630889893,19.347679138183594,12.793209075927734,6.651515007019043
0,455906,8.523836135864258,18.528236389160156,4.770784854888916,-22.580881118774414
0,455906,12.17051887512207,1.2992695569992065,-11.516664505004883,-8.316551208496094
0,455906,-10.625885963439941,-19.680957794189453,-7.698017597198486,31.75014305114746
0,455907,-11.169609069824219,-8.001039505004883,10.145955085754395,11.453893661499023
0,455907,6.795980930328369,22.849597930908203,0.28976187109947205,-23.85785484313965
0,455907,9.895228385925293,-4.24852991104126,-14.217397689819336,2.953876495361328
0,455907,-6.261726379394531,-9.287457466125488,-2.9859495162963867,6.765679836273193
0,455907,-1.6549150943756104,2.663449287414551,14.153853416442871,-25.66524887084961
0,455907,-5.120392322540283,-24.431011199951172,2.206815481185913,6.559756755828857
0,455908,-6.142793655395508,9.355653762817383,-5.640893936157227,21.860355377197266
0,455908,6.376057147979736,22.701171875,-1.0662447214126587,-18.31473731994629
0,455908,-0.6224812269210815,-17.2643985748291,3.6666173934936523,4.454239845275879
0,455908,1.511028528213501,-5.195685863494873,5.034816265106201,22.786314010620117
0,455908,4.195446491241455,32.57643127441406,-12.576910972595215,-20.302978515625
0,455908,9.042911529541016,14.760879516601562,-2.7807278633117676,-12.223982810974121
0,455909,-9.286383628845215,-32.511436462402344,18.871294021606445,18.776517868041992
0,455909,-5.9498209953308105,-16.78731346130371,6.421934127807617,0.12956193089485168
0,455909,12.766337394714355,11.576000213623047,-15.615849494934082,-2.766233205795288
0,455909,-7.597986698150635,4.831221103668213,-15.26259708404541,6.211433410644531
0,455909,-4.265053749084473,-4.868625164031982,16.103073120117188,3.564188241958618
0,455910,0.7972047328948975,7.220846652984619,12.97509479522705,11.00397777557373
0,455910,-7.411032676696777,17.921554565429688,-10.150737762451172,-7.555495262145996
0,455910,11.764687538146973,-4.5329084396362305,-19.924407958984375,-19.041526794433594
0,455910,10.592605590820312,-32.5102424621582,-16.164979934692383,10.03479290008545
0,455910,-16.95101547241211,-10.964022636413574,21.44929313659668,7.046919345855713
0,455910,-8.732619285583496,17.156776428222656,25.075464248657227,-12.541147232055664
0,455911,5.726724147796631,6.2363762855529785,-11.061226844787598,5.217113971710205
0,455911,12.179486274719238,-5.3364715576171875,-18.303184509277344,10.357417106628418
0,455911,-10.754740715026855,-13.928619384765625,6.79782772064209,0.6738659739494324
0,455911,-14.444714546203613,15.326972007751465,4.601627826690674,-10.401230812072754
0,455911,31.718778610229492,14.752145767211914,-4.080583572387695,-11.18260669708252
0,455911,16.35340690612793,-17.80253791809082,6.590755462646484,13.418574333190918
0,455912,-18.619075775146484,6.411472797393799,-10.156499862670898,-3.2877182960510254
0,455912,-15.318758010864258,6.319146156311035,4.89201021194458,1.4524339437484741
0,455912,4.795083045959473,-17.23961067199707,14.7081298828125,14.381241798400879
0,455912,1.567696213722229,-12.155023574829102,-26.431604385375977,-16.80255699157715
0,455912,-14.687433242797852,20.866315841674805,1.2459877729415894,8.076400756835938
0,455912,2.9710679054260254,18.79276466369629,37.58882141113281,13.555367469787598
0,455913,25.16373634338379,-12.477095603942871,-11.106526374816895,-17.438764572143555
0,455913,2.9392733573913574,3.562704563140869,-26.83618927001953,7.952486038208008
0,455913,-28.32576560974121,-0.4549371004104614,15.667859077453613,7.786260604858398
0,455913,-3.533797025680542,2.6971049308776855,15.227578163146973,-12.936304092407227
0,455913,18.82813835144043,6.488536834716797,-27.428661346435547,-5.064589977264404
0,455913,5.196145534515381,-10.337775230407715,-17.493593215942383,0.30392929911613464
0,455914,-15.370332717895508,-6.695594310760498,9.706889152526855,-2.64851975440979
0,455914,-8.314305305480957,-5.528966903686523,15.215205192565918,-1.4599521160125732
0,455914,18.198760986328125,7.628042221069336,2.5953240394592285,30.580955505371094
0,455914,26.920351028442383,9.228928565979004,-20.38871192932129,-11.061790466308594
0,455914,-11.819303512573242,-0.10786425322294235,13.17912483215332,-42.343292236328125
0,455914,-34.43733596801758,-4.878387928009033,16.37771224975586,17.503646850585938
0,455915,9.509446144104004,-4.912092685699463,-5.500796794891357,-1.3957723379135132
0,455915,1.041346549987793,-8.802377700805664,-2.563584804534912,-1.5198137760162354
0,455915,-7.092624187469482,-0.8199064135551453,-4.906336784362793,24.006603240966797
0,455915,5.045343399047852,8.183018684387207,-9.933642387390137,-14.416361808776855
0,455915,-6.053521156311035,-1.623407006263733,-3.294064521789551,-9.447612762451172
0,455915,24.27314567565918,4.094944000244141,9.765164375305176,8.41720962524414
0,455916,4.467107772827148,-16.589675903320312,8.534831047058105,5.674252986907959
0,455916,-27.98231315612793,-11.564620971679688,8.06441879272461,7.0386643409729
0,455916,15.835759162902832,34.8372802734375,-7.052001953125,-15.962990760803223
0,455916,12.77873706817627,6.327448844909668,-16.113584518432617,-14.582387924194336
0,455916,-22.156578063964844,-30.40631675720215,4.9462571144104,21.561676025390625
0,455916,-13.270228385925293,3.950887680053711,18.60009002685547,10.466455459594727
0,455917,5.268700122833252,32.79057693481445,2.0903046131134033,-15.042643547058105
0,455917,20.612821578979492,-3.80182147026062,-5.4043073654174805,-9.709564208984375
0,455917,7.814313888549805,-17.269298553466797,9.062788963317871,7.049965858459473
0,455917,-9.595215797424316,8.300806045532227,-1.8822892904281616,2.0789546966552734
0,455917,0.22670261561870575,-2.204346179962158,-19.530244827270508,-12.5198392868042
0,455917,-7.549895286560059,-5.474231719970703,4.9682793617248535,12.822365760803223
0,455918,-3.920363187789917,6.826369762420654,3.8768062591552734,18.85579490661621
0,455918,22.906646728515625,-2.0804355144500732,-4.134373188018799,-1.4760956764221191
0,455918,18.031930923461914,-20.91241455078125,10.579571723937988,0.8079442381858826
0,455918,-22.128705978393555,-4.293631553649902,-3.927236557006836,-3.3852031230926514
0,455918,-25.75735855102539,31.96380615234375,-4.491748332977295,1.135411262512207
0,455918,6.924243927001953,-0.13645945489406586,-4.623085021972656,1.8947032690048218
0,455919,-2.5369112491607666,-15.617304801940918,-10.698467254638672,-7.755446434020996
0,455919,4.0285325050354,8.47529125213623,3.3847086429595947,-0.4812200367450714
0,455919,15.921751022338867,-0.40961188077926636,13.973936080932617,-11.514188766479492
0,455919,-15.100822448730469,-1.1137988567352295,9.45046329498291,3.6570518016815186
0,455919,-3.5958597660064697,-5.678874492645264,2.3492438793182373,10.978960037231445
0,455919,18.727548599243164,-7.966574668884277,-8.778305053710938,-21.27984619140625
0,455920,-15.97385025024414,-8.883666038513184,-7.458757400512695,-8.465980529785156
0,455920,-11.517901420593262,10.182931900024414,9.457683563232422,17.129573822021484
0,455920,25.352991104125977,16.442956924438477,-5.806087017059326,2.0600814819335938
0,455920,-4.242498874664307,-8.790419578552246,-7.4073486328125,-3.5275444984436035
0,455922,-18.129180908203125,6.293846607208252,2.4017820358276367,8.618549346923828
0,455922,10.865278244018555,-1.4571760892868042,-4.051746845245361,0.11628010869026184
0,455922,-6.798824310302734,-12.804064750671387,2.9446516036987305,6.198528289794922
0,455922,-7.8761138916015625,20.856163024902344,-2.0742502212524414,-5.692008972167969
0,455922,15.286673545837402,4.408482074737549,5.977548122406006,-10.385226249694824
0,455922,9.904748916625977,-5.993524074554443,14.007473945617676,8.696077346801758
0,455923,4.905572414398193,18.500446319580078,-7.56803035736084,-19.413713455200195
0,455923,-10.807174682617188,-20.158687591552734,-9.525655746459961,7.591956615447998
0,455923,-5.6306633949279785,-26.462112426757812,5.216222286224365,39.48308563232422
0,455924,3.522934913635254,9.280472755432129,4.917351245880127,-11.6443510055542
0,455925,-0.13770681619644165,11.549335479736328,-3.7774813175201416,-16.54106903076172
0,455928,15.761283874511719,-1.1987966299057007,-7.974931240081787,-2.1395978927612305
0,455929,10.31379508972168,3.638409376144409,-11.515230178833008,-4.664768218994141
0,455932,-23.52387809753418,7.420902729034424,-2.7623131275177,-8.391626358032227
0,455933,-29.86005973815918,-23.642690658569336,6.255846977233887,0.7550579309463501
0,455936,3.587717294692993,-18.04105567932129,-5.268214702606201,38.67745590209961
0,455937,13.969169616699219,23.86857795715332,2.0050759315490723,-3.8049497604370117
0,455940,3.9904613494873047,6.403093338012695,13.972436904907227,-43.24385070800781
0,455941,13.077698707580566,-8.547111511230469,33.32218933105469,7.6681294441223145
0,455944,9.610794067382812,19.446046829223633,-4.200089454650879,17.08230209350586
0,455945,-18.98981285095215,-4.261850357055664,-48.910152435302734,-15.389270782470703
0,455948,3.3100805282592773,0.0018697520717978477,1.5988311767578125,-2.917283058166504
0,455949,7.356070518493652,-0.1627693623304367,10.248739242553711,14.309029579162598
0,455952,-17.14358901977539,-11.849370002746582,1.7038527727127075,3.8444764614105225
0,455954,19.004432678222656,14.432050704956055,-10.731770515441895,-7.298202991485596
0,455956,5.248170375823975,4.2213544845581055,1.7297550439834595,24.864505767822266
0,455958,-25.78439712524414,-10.382894515991211,18.258224487304688,35.39183807373047
0,455960,-10.09038257598877,-18.16981315612793,7.434610366821289,-50.068885803222656
0,455962,16.421201705932617,12.265758514404297,17.239540100097656,-53.830806732177734
0,456156,5.865243434906006,4.777942657470703,-45.9549560546875,17.318693161010742
0,456157,-19.416467666625977,-25.01193618774414,-32.31390380859375,32.87847137451172
0,456157,0.06356766819953918,15.711709022521973,56.823814392089844,6.555246829986572
0,456157,7.79965877532959,-8.062607765197754,0.003791205585002899,-11.052000045776367
0,456157,-4.859471321105957,-17.058382034301758,-29.064451217651367,-3.419459104537964
0,456157,3.839573621749878,25.051658630371094,31.3892879486084,12.953872680664062
0,456157,26.764474868774414,-0.3751816749572754,-0.6941694021224976,16.85869789123535
0,456158,3.242950916290283,-4.473964691162109,-35.30109786987305,-1.4710001945495605
0,456158,-15.664812088012695,30.33913803100586,12.147115707397461,-7.769104957580566
0,456158,-4.299356937408447,6.203402042388916,19.838172912597656,-10.095155715942383
0,456158,-2.6041629314422607,-24.569900512695312,-15.13632583618164,9.75851821899414
0,456158,5.284247398376465,-7.584659099578857,7.970138072967529,21.447629928588867
0,456159,3.1736340522766113,7.538239002227783,32.84345245361328,-18.933935165405273
0,456159,-0.7240747213363647,10.215065956115723,4.194198131561279,-25.483476638793945
0,456159,6.233157157897949,6.163936614990234,-8.230941772460938,7.689567565917969
0,456159,17.7100830078125,3.0645313262939453,-5.601078987121582,5.373432159423828
0,456159,-16.342397689819336,0.375681072473526,-3.7151224613189697,-9.72109603881836
0,456159,-12.501227378845215,-0.5013645887374878,-0.6774534583091736,-9.337991714477539
0,456160,11.334444999694824,-9.720142364501953,-16.086679458618164,11.83812427520752
0,456160,-20.100008010864258,-15.677340507507324,-5.027110576629639,-9.155871391296387
0,456160,2.7958407402038574,-2.110241651535034,16.048614501953125,-20.3967342376709
0,456160,20.720386505126953,17.845304489135742,6.609689712524414,19.262126922607422
0,456160,-3.132687568664551,13.072770118713379,-11.202333450317383,2.7937231063842773
0,456160,-10.464141845703125,-18.45865821838379,0.10782815515995026,-1.2932475805282593
0,456161,-9.274862289428711,-16.003034591674805,16.11953353881836,16.541860580444336
0,456161,11.551095008850098,5.100325107574463,-4.0146002769470215,-5.554958820343018
0,456161,15.83141040802002,7.548342704772949,-20.781766891479492,-17.762563705444336
0,456161,-6.74141263961792,-1.8595927953720093,-7.412211894989014,7.384392261505127
0,456161,3.2446305751800537,3.584956645965576,16.167699813842773,19.506277084350586
0,456161,-13.428398132324219,7.040513515472412,17.053447723388672,-6.1963629722595215
0,456162,-14.567625045776367,-21.886232376098633,-10.948019981384277,-5.357126712799072
0,456162,10.591775894165039,-10.736865043640137,-7.252472400665283,11.5211181640625
0,456162,-6.577068328857422,30.17926025390625,14.142019271850586,1.2697933912277222
0,456162,5.907706260681152,1.8908220529556274,-22.038440704345703,-16.055505752563477
0,456162,5.297613620758057,-33.1418571472168,-18.316564559936523,3.7461647987365723
0,456162,-8.206305503845215,-2.328627347946167,20.513498306274414,4.866700649261475
0,456163,-7.12307071685791,24.80406379699707,-14.336845397949219,-20.450979232788086
0,456163,-13.432069778442383,13.91032886505127,-4.219232082366943,12.847801208496094
0,456163,30.380205154418945,-4.502974033355713,25.7957820892334,14.965362548828125
0,456163,19.270383834838867,-10.989426612854004,-15.6080961227417,-13.524948120117188
0,456163,-28.00042724609375,-8.693406105041504,-4.5249714851379395,-3.5553441047668457
0,456163,11.47661018371582,15.155217170715332,7.789841175079346,12.021039962768555
0,456164,-1.3377095460891724,12.369504928588867,-22.671894073486328,5.9307146072387695
0,456164,-25.0133113861084,-12.87632942199707,13.55196762084961,-12.03113842010498
0,456164,15.544159889221191,-4.730406284332275,38.052066802978516,2.0520870685577393
0,456164,-1.05893874168396,10.146645545959473,-9.073216438293457,-5.159060478210449
0,456164,-5.964325428009033,6.849258899688721,-25.43840980529785,-26.70016860961914
0,456164,10.306842803955078,-23.098432540893555,1.6523187160491943,17.761714935302734
0,456165,-16.893003463745117,-10.019858360290527,7.513991355895996,30.642189025878906
0,456165,7.8905439376831055,21.37307357788086,1.3754483461380005,-28.417266845703125
0,456165,22.77402114868164,-8.636983871459961,2.221071720123291,-8.156550407409668
0,456165,-21.541208267211914,-4.357998371124268,10.019822120666504,36.82932662963867
0,456165,3.0622847080230713,21.082157135009766,-3.9183406829833984,-3.0466926097869873
0,456166,29.704267501831055,1.3827570676803589,-14.382384300231934,-18.963699340820312
0,456166,-22.759435653686523,-8.677021980285645,4.1583991050720215,4.026647090911865
0,456166,-24.060026168823242,0.8289933800697327,8.51548957824707,5.480973720550537
0,456166,26.240102767944336,4.4836249351501465,2.263843536376953,-2.596543550491333
0,456166,12.665692329406738,-20.100358963012695,-14.079529762268066,2.784843921661377
0,456166,-9.588492393493652,-11.126404762268066,-2.1913673877716064,-15.707429885864258
0,456167,-1.1754984855651855,29.82741928100586,6.1220526695251465,-5.110020160675049
0,456167,-17.306629180908203,16.592832565307617,-13.759940147399902,31.197471618652344
0,456167,-8.860366821289062,-7.697475433349609,12.915066719055176,1.8618477582931519
0,456167,28.077842712402344,-7.927606582641602,19.752117156982422,-21.900449752807617
0,456167,7.931591033935547,-14.962715148925781,-18.455419540405273,-4.758534908294678
0,456167,-26.045839309692383,-2.70048189163208,-2.594425678253174,11.589681625366211
0,456168,-4.741486549377441,4.909952640533447,12.763276100158691,4.99184513092041
0,456168,5.025908946990967,-5.210842132568359,-6.244212627410889,-3.9737613201141357
0,456168,3.9560546875,20.06709098815918,-1.8308343887329102,-12.818107604980469
0,456168,8.664024353027344,1.7428021430969238,1.0153859853744507,7.896158218383789
0,456168,-5.217299461364746,-20.274717330932617,-4.098296642303467,10.702327728271484
0,456168,15.443123817443848,10.274848937988281,-3.669325590133667,-20.745849609375
0,456169,7.657871246337891,-4.784878730773926,8.626618385314941,-0.7414134740829468
0,456169,-18.77631378173828,-6.96536111831665,5.783326148986816,8.625242233276367
0,456169,9.092350006103516,8.153428077697754,-13.234853744506836,-24.104049682617188
0,456169,4.998438358306885,0.6440377831459045,-5.379354476928711,3.011782169342041
0,456169,-16.7308349609375,5.757765293121338,17.506759643554688,31.24506378173828
0,456169,4.870816230773926,3.9806711673736572,12.599130630493164,-19.64286994934082
0,456170,13.758513450622559,-10.484379768371582,-24.943754196166992,0.6006778478622437
0,456170,-12.436525344848633,-18.175491333007812,-1.4616899490356445,44.95782470703125
0,456170,-11.261062622070312,8.30920696258545,21.15471649169922,-0.7013708353042603
0,456170,-5.18126916885376,18.33175277709961,-7.242288589477539,-35.768619537353516
0,456170,14.508983612060547,-2.3514792919158936,-12.6298828125,-15.276521682739258
0,456170,13.470352172851562,-0.7897839546203613,-14.5219144821167,28.040306091308594
0,456171,-21.062725067138672,1.0749754905700684,17.595788955688477,29.290996551513672
0,456171,-9.257351875305176,-18.016942977905273,19.7825870513916,-13.568305969238281
0,456171,-4.5679168701171875,-3.7233288288116455,-18.108989715576172,-9.63939380645752
0,456171,16.70534896850586,29.572229385375977,-10.368748664855957,-2.237030506134033
0,456171,27.576549530029297,1.562131643295288,-4.496123790740967,-18.633577346801758
0,456171,-16.474807739257812,-26.083616256713867,0.548911452293396,2.8232522010803223
0,456172,-16.654354095458984,1.323892593383789,18.796863555908203,7.344673156738281
0,456172,-4.499016284942627,14.978129386901855,-4.800049304962158,-0.21950754523277283
0,456172,-8.240395545959473,-11.854838371276855,-16.74028205871582,2.814462661743164
0,456172,21.472755432128906,-15.842900276184082,13.126002311706543,-7.616745948791504
0,456172,20.72613525390625,23.054170608520508,7.158989429473877,-11.116022109985352
0,456172,-17.624055862426758,20.44342803955078,-4.612085342407227,9.277183532714844
0,456173,-22.616987228393555,-16.026948928833008,8.280399322509766,11.737883567810059
0,456173,10.455631256103516,-3.0207302570343018,3.865187644958496,-1.8314474821090698
0,456174,3.193085193634033,3.5749943256378174,-12.46003532409668,40.16636657714844
0,456174,-8.535920143127441,-4.161395072937012,3.967804193496704,19.40154266357422
0,456174,27.440031051635742,15.317683219909668,4.932517051696777,-54.28606414794922
0,456175,-7.244330406188965,1.7939883470535278,-16.955692291259766,-20.059707641601562
