Aktueller Finger,timestamp_ms,sensor_0,sensor_1,sensor_2,sensor_3
0,675166,23.7799015045166,8.47471809387207,-66.4027328491211,-60.14356231689453
0,675169,26.314563751220703,47.74547576904297,-3.1113529205322266,-107.41009521484375
0,675170,-26.675928115844727,-36.80793762207031,80.20838165283203,-11.527179718017578
0,675173,1.0138273239135742,-41.08921432495117,40.16596984863281,-89.07696533203125
0,675174,31.210176467895508,26.100929260253906,20.052995681762695,-144.27578735351562
0,675177,19.956335067749023,2.594468355178833,2.1384928226470947,-94.80821990966797
0,675178,16.565425872802734,-4.7948737144470215,-30.059310913085938,-38.56195068359375
0,675181,-16.877622604370117,24.419097900390625,-37.20436096191406,155.26878356933594
0,675191,39.504520416259766,33.17237091064453,17.670928955078125,71.70950317382812
0,675191,41.67904281616211,6.235070705413818,67.12409210205078,-134.72532653808594
0,675191,-82.29793548583984,-27.528711318969727,-28.169078826904297,75.63060760498047
0,675191,-51.568992614746094,-13.326284408569336,-76.5138931274414,193.9298095703125
0,675191,-8.355059623718262,-23.427745819091797,-32.837013244628906,127.58475494384766
0,675193,-37.68876266479492,-24.103160858154297,1.6152026653289795,39.538116455078125
0,675194,-12.947270393371582,-0.7685919404029846,37.080631256103516,-115.5415267944336
0,675195,49.34744644165039,16.17252540588379,29.16417121887207,-156.94570922851562
0,675198,26.422609329223633,18.655757904052734,-30.001293182373047,-22.89177131652832
0,675199,-15.113845825195312,-2.523912191390991,-34.328495025634766,70.7245101928711
0,675202,20.81136703491211,-1.654464840888977,-9.084145545959473,76.84357452392578
0,675203,-16.43429946899414,3.1554465293884277,-6.728803634643555,70.15766906738281
0,675206,-70.42030334472656,13.94620132446289,-5.16238260269165,78.03106689453125
0,675207,-13.844685554504395,-4.200183391571045,-3.744724750518799,74.27337646484375
0,675210,65.09489440917969,-12.96512222290039,73.04878997802734,-139.49127197265625
0,675211,49.83594512939453,21.255271911621094,47.4958610534668,-166.66830444335938
0,675214,74.23985290527344,-4.7162981033325195,-43.3838005065918,-37.839874267578125
0,675215,2.292482852935791,-24.170995712280273,7.681369781494141,-120.20834350585938
0,675240,-164.85777282714844,-6.073026657104492,-15.003518104553223,113.70490264892578
0,675240,12.200350761413574,11.553716659545898,-28.193723678588867,145.43858337402344
0,675240,108.68366241455078,8.404930114746094,44.190975189208984,-232.28079223632812
0,675241,-23.648733139038086,-15.261852264404297,4.491623878479004,-94.44194030761719
0,675241,-41.78017807006836,-2.865915536880493,-31.98105239868164,117.27098846435547
0,675241,-23.21187973022461,3.3640224933624268,-14.89901351928711,108.87063598632812
0,675241,10.24654483795166,-9.923492431640625,-22.069931030273438,151.6561737060547
0,675241,-0.7935215830802917,10.408623695373535,-34.45747375488281,120.59840393066406
0,675242,-24.71912384033203,35.00273132324219,12.442728996276855,28.901437759399414
0,675242,22.028457641601562,13.748984336853027,46.036834716796875,-58.82530975341797
0,675242,37.640071868896484,-22.836685180664062,4.596273422241211,-98.72198486328125
0,675242,-9.342557907104492,0.1636042594909668,22.83145523071289,-110.42404174804688
0,675243,3.2641055583953857,24.47308349609375,43.68318176269531,-56.88249588012695
0,675244,20.98579216003418,-14.677145957946777,3.674753427505493,10.894916534423828
0,675246,-24.86214828491211,-26.27552032470703,-25.142972946166992,58.53404235839844
0,675248,-16.708919525146484,1.533204436302185,-6.819488525390625,48.22495651245117
0,675250,42.982662200927734,10.173574447631836,35.035396575927734,-160.32025146484375
0,675252,59.48350143432617,11.237345695495605,22.577850341796875,-133.7049560546875
0,675254,-10.205389976501465,-14.851828575134277,14.38814926147461,22.479949951171875
0,675256,-23.95589256286621,-38.871883392333984,-15.169689178466797,-64.08032989501953
0,675258,-33.47236633300781,8.174701690673828,-54.73049545288086,84.44670867919922
0,675260,-82.81034088134766,22.262357711791992,-35.104026794433594,175.97251892089844
0,675262,26.892797470092773,16.496498107910156,-11.992870330810547,33.97528839111328
0,675264,28.985198974609375,10.015387535095215,19.41458511352539,59.628448486328125
0,675300,3.2643609046936035,-59.63107681274414,3.096046209335327,-153.83291625976562
0,675300,28.19510269165039,-8.031299591064453,-23.40467071533203,-150.94558715820312
0,675300,-55.02971649169922,45.32798767089844,-15.200371742248535,270.4031982421875
0,675300,-28.264713287353516,-34.33568572998047,-3.7364773750305176,202.1427459716797
0,675300,16.804100036621094,10.744977951049805,11.16195011138916,-7.495877742767334
0,675301,5.284464359283447,53.15583801269531,8.461210250854492,-47.92543411254883
0,675301,3.204699993133545,6.656391143798828,31.089500427246094,-99.02577209472656
0,675301,31.83311653137207,-10.459983825683594,18.735197067260742,-120.13180541992188
0,675301,34.664920806884766,-28.852073669433594,-3.171109437942505,-101.46727752685547
0,675301,-7.7846808433532715,2.8000800609588623,26.28342056274414,-4.790902614593506
0,675301,-3.476091146469116,8.603824615478516,-27.214147567749023,45.74351119995117
0,675302,1.4353272914886475,-8.328852653503418,-56.25734329223633,54.3911247253418
0,675302,-10.727655410766602,-2.6235270500183105,-4.929344654083252,109.38648986816406
0,675302,-5.2507219314575195,-7.677356719970703,8.451010704040527,85.97913360595703
0,675302,14.766968727111816,17.35043716430664,-1.9964791536331177,-1.6171725988388062
0,675302,1.7771470546722412,-0.9343101382255554,-1.1228973865509033,-21.270122528076172
0,675303,8.552498817443848,-9.034209251403809,25.45963478088379,-65.60906982421875
0,675303,32.7575569152832,34.281280517578125,35.74203109741211,-96.19135284423828
0,675304,-48.59705352783203,-5.434437274932861,10.999665260314941,-2.959972381591797
0,675304,-49.18853759765625,-49.65067672729492,-36.869140625,33.03827667236328
0,675305,11.362786293029785,7.375228404998779,-28.86081886291504,13.54256820678711
0,675308,-24.485445022583008,47.92919158935547,32.22053909301758,-36.395137786865234
0,675309,19.27181053161621,-12.008882522583008,40.252113342285156,-130.26766967773438
0,675312,51.231388092041016,-31.989755630493164,20.787067413330078,-104.13276672363281
0,675314,-2.3413009643554688,24.78019142150879,18.002655029296875,-62.15043258666992
0,675316,-0.2995152175426483,-8.403218269348145,-24.288969039916992,-28.282503128051758
0,675318,-5.640008926391602,-38.35548782348633,-74.74014282226562,62.058860778808594
0,675320,-57.167236328125,8.918425559997559,-42.63069534301758,234.24415588378906
0,675322,-17.943479537963867,13.6270112991333,9.407094955444336,178.56773376464844
0,675365,51.53215408325195,27.848876953125,10.242805480957031,51.2646598815918
0,675365,25.08768653869629,18.081771850585938,-18.453371047973633,64.70470428466797
0,675365,-25.020414352416992,-31.044233322143555,-4.46706485748291,-46.88792419433594
0,675365,-33.4287109375,-11.495613098144531,15.186371803283691,26.170135498046875
0,675366,-7.607316493988037,28.933990478515625,-2.4462411403656006,74.47293853759766
0,675366,9.885274887084961,10.385760307312012,-2.7040421962738037,-21.388898849487305
0,675366,12.620162010192871,-18.768922805786133,18.595184326171875,-36.854434967041016
0,675366,36.881465911865234,7.865804672241211,43.881752014160156,-105.72090911865234
0,675366,42.22608184814453,3.4194977283477783,22.399290084838867,-156.58523559570312
0,675366,-4.875814914703369,-30.400428771972656,5.730821132659912,-116.66326141357422
0,675367,-13.64415454864502,2.356550931930542,35.02088928222656,-51.38287353515625
0,675367,-3.138373851776123,10.600603103637695,-8.956552505493164,-25.58512306213379
0,675367,-14.02813720703125,-34.286014556884766,-62.72742462158203,16.209932327270508
0,675367,-7.018121719360352,-8.943772315979004,-8.866559982299805,92.66964721679688
0,675367,-15.559350967407227,23.216035842895508,26.38555335998535,90.63018798828125
0,675367,-8.46142292022705,9.13557243347168,-14.337125778198242,21.59267807006836
0,675368,9.371503829956055,-1.5026992559432983,4.475427627563477,-4.754155158996582
0,675368,-17.21043586730957,-12.82121467590332,36.61116409301758,-20.83993148803711
0,675368,19.32547378540039,11.388830184936523,-14.251026153564453,-57.956539154052734
0,675368,31.23006820678711,5.009774208068848,-9.830476760864258,-55.69215774536133
0,675368,-10.646544456481934,-9.123856544494629,28.683502197265625,-29.952890396118164
0,675370,12.262056350708008,4.89722204208374,-7.491121292114258,-65.46943664550781
0,675370,2.044299840927124,0.17526103556156158,-15.268938064575195,-10.580723762512207
0,675370,-16.7071475982666,13.773676872253418,5.82692813873291,99.4891357421875
0,675371,-9.2584867477417,-20.2666015625,-29.82771110534668,21.411117553710938
0,675374,10.40145492553711,-24.169212341308594,-4.40616512298584,-115.52440643310547
0,675375,88.88644409179688,35.42780303955078,71.67738342285156,-89.22003936767578
0,675378,-42.29222869873047,5.370494842529297,-45.401302337646484,184.33892822265625
0,675379,-148.70748901367188,-2.5724780559539795,-114.07006072998047,242.18701171875
0,675382,21.39445686340332,23.533130645751953,15.00366497039795,71.43062591552734
0,675383,28.348262786865234,-20.66531753540039,34.45798873901367,61.85531997680664
0,675386,5.808812141418457,-5.036032676696777,-14.783682823181152,16.19127082824707
0,675387,12.015411376953125,35.70437240600586,35.16339111328125,-66.40034484863281
0,675390,16.822202682495117,0.8708494901657104,60.761878967285156,-191.85057067871094
0,675392,33.80073165893555,-33.582611083984375,-14.245084762573242,-126.97476959228516
0,675442,-80.55748748779297,-12.494717597961426,-84.8077392578125,284.568359375
0,675443,-25.045188903808594,19.423187255859375,-54.739017486572266,206.49880981445312
0,675443,98.28838348388672,-5.711057186126709,64.48390197753906,-231.9116973876953
0,675443,35.4176139831543,-26.829030990600586,61.99160385131836,-161.74685668945312
0,675443,16.67498779296875,14.042112350463867,0.8434966206550598,-23.46819305419922
0,675443,26.278255462646484,18.685766220092773,4.945199966430664,-46.24089431762695
0,675443,-18.36327362060547,-10.924774169921875,-10.408285140991211,29.700130462646484
0,675444,-47.93180847167969,-6.97743558883667,-23.16464614868164,86.9620590209961
0,675444,-46.514461517333984,3.206068754196167,-7.835845947265625,73.26582336425781
0,675444,-10.97555160522461,13.69932746887207,-8.728631019592285,39.94688415527344
0,675444,-11.000269889831543,15.608386039733887,1.4766274690628052,6.5754594802856445
0,675444,-11.428056716918945,8.08022403717041,28.748727798461914,-31.90431022644043
0,675444,18.848400115966797,3.1218132972717285,4.754850387573242,-54.24056625366211
0,675445,1.9485911130905151,-24.277128219604492,-1.656705379486084,-83.478515625
0,675445,-18.953155517578125,-20.941967010498047,21.938976287841797,-50.79485321044922
0,675445,14.18706226348877,21.304954528808594,7.44289493560791,-4.261557579040527
0,675445,12.143526077270508,-2.6767921447753906,-10.92516803741455,11.048216819763184
0,675445,-12.82559871673584,-14.973319053649902,-17.77487564086914,29.764751434326172
0,675445,-2.3432745933532715,-1.0606951713562012,-11.918692588806152,34.803131103515625
0,675446,-5.175500392913818,4.000209331512451,8.697351455688477,36.30160903930664
0,675446,-9.968790054321289,6.484080791473389,2.296872854232788,7.814597129821777
0,675446,-0.7692614197731018,-15.52641487121582,4.384584903717041,-17.755983352661133
0,675446,23.861482620239258,3.4387145042419434,17.61511993408203,-31.498435974121094
0,675446,26.091142654418945,14.699543952941895,-12.211761474609375,-39.47312927246094
0,675446,6.1236467361450195,-6.85146427154541,-17.923572540283203,-40.590213775634766
0,675448,8.040802955627441,-18.074766159057617,32.03704071044922,-65.48274230957031
0,675448,-2.1661815643310547,-4.3446855545043945,30.302907943725586,-12.36503791809082
0,675448,-10.080315589904785,25.55195426940918,-27.953733444213867,71.53596496582031
0,675449,2.537627935409546,12.890475273132324,-4.666797161102295,-34.93019485473633
0,675452,30.23065185546875,-7.523703098297119,22.050182342529297,-180.2837677001953
0,675453,24.511917114257812,-27.593746185302734,-1.020768165588379,-68.11306762695312
0,675456,11.62321949005127,-2.613004207611084,13.745132446289062,76.84911346435547
0,675457,-22.110746383666992,24.421804428100586,-26.460195541381836,92.76277923583984
0,675460,-74.75399780273438,-1.5455455780029297,-85.49852752685547,251.65440368652344
0,675461,5.0190348625183105,5.607576847076416,-15.998209953308105,186.37538146972656
0,675464,-4.087433815002441,-19.995433807373047,16.596233367919922,-8.182928085327148
0,675465,-64.47909545898438,10.531930923461914,-30.277301788330078,54.45206069946289
0,675468,49.31721878051758,44.614505767822266,35.44174575805664,-86.99323272705078
0,675469,123.45539855957031,-28.356599807739258,68.89466857910156,-185.24281311035156
0,675472,-8.370711326599121,-27.963706970214844,30.72907066345215,-64.73021697998047
0,675473,-114.34719848632812,-8.541993141174316,-6.161022663116455,-55.73345184326172
0,675476,28.918588638305664,13.478346824645996,-36.754642486572266,-49.93876266479492
0,675477,46.96981430053711,35.25663757324219,-17.437345504760742,35.43212890625
0,675541,-84.87031555175781,-23.32223129272461,-22.589632034301758,170.04104614257812
0,675541,-20.887773513793945,-4.347269058227539,1.8301682472229004,31.521604537963867
0,675541,61.04832077026367,4.373016834259033,38.80310821533203,-172.26734924316406
0,675541,13.39986801147461,-16.085113525390625,-5.977436542510986,0.17501869797706604
0,675542,-26.31113052368164,8.062858581542969,-40.45951843261719,135.7659149169922
0,675542,-26.295656204223633,-4.8944244384765625,-9.766514778137207,114.80158996582031
0,675542,-0.07012508809566498,15.847662925720215,-5.298698425292969,89.96119689941406
0,675542,21.951147079467773,13.605491638183594,-3.0240793228149414,34.660484313964844
0,675542,10.965753555297852,-11.120375633239746,34.948699951171875,-20.238204956054688
0,675542,18.79966926574707,7.919240474700928,37.97004699707031,-74.14825439453125
0,675543,30.58087158203125,-3.8109028339385986,20.04203987121582,-128.0063018798828
0,675543,-5.9729323387146,-23.751178741455078,5.945854187011719,-94.3658218383789
0,675543,-15.171854019165039,15.719132423400879,-2.97843861579895,-14.148978233337402
0,675543,8.457493782043457,16.24289321899414,-15.812664031982422,11.155445098876953
0,675543,-16.177392959594727,-10.85483455657959,-26.209932327270508,47.90791320800781
0,675544,-30.69349479675293,-10.320552825927734,-28.77714729309082,69.17314147949219
0,675544,-9.820969581604004,6.968756675720215,0.5901086926460266,54.964481353759766
0,675544,22.259958267211914,17.668502807617188,2.6444427967071533,25.786964416503906
0,675544,4.6406121253967285,-14.88050365447998,-22.100650787353516,-24.77408790588379
0,675544,-17.27897071838379,-0.7643929123878479,15.434547424316406,-57.5482177734375
0,675544,25.221580505371094,11.684828758239746,30.959003448486328,-64.11254119873047
0,675545,17.486175537109375,-25.04549217224121,16.060888290405273,-45.66627883911133
0,675545,5.658201694488525,2.6200311183929443,11.774079322814941,-29.3714656829834
0,675545,9.823288917541504,27.160486221313477,-22.78388023376465,-12.233959197998047
0,675545,-25.139156341552734,-21.2827091217041,-32.322391510009766,48.91151428222656
0,675545,-28.39398956298828,-16.254568099975586,18.557085037231445,66.1684341430664
0,675545,-4.907941818237305,7.756910800933838,-4.147357940673828,17.65943717956543
0,675546,-5.850600242614746,4.933211326599121,-17.004955291748047,6.972581386566162
0,675546,0.5381641983985901,-0.01818101294338703,48.21498107910156,-5.390838623046875
0,675546,34.0106315612793,-2.542097330093384,9.08202838897705,-49.84153747558594
0,675546,14.656903266906738,-13.00489616394043,-32.13182067871094,-44.9450798034668
0,675547,11.21027660369873,-19.074512481689453,36.23946762084961,-91.79454803466797
0,675547,21.761077880859375,36.16389083862305,51.020042419433594,-92.35342407226562
0,675548,-28.550275802612305,24.283100128173828,-18.538917541503906,55.61524200439453
0,675548,-16.321819305419922,-37.050201416015625,-36.366188049316406,69.07865905761719
0,675551,16.259450912475586,8.036477088928223,14.404439926147461,-129.11553955078125
0,675552,5.888205051422119,18.08306884765625,30.107458114624023,-146.30801391601562
0,675555,-1.3638198375701904,-23.27736473083496,9.099088668823242,-2.557051420211792
0,675556,-13.212725639343262,0.483930379152298,-5.220101356506348,-0.1888759583234787
0,675559,-39.10194396972656,-4.962377548217773,-94.38928985595703,232.52456665039062
0,675560,-40.7578125,9.406318664550781,-62.09239196777344,294.83367919921875
0,675561,11.862837791442871,21.108646392822266,59.23794937133789,-0.08698972314596176
0,675564,4.837852954864502,-4.121303081512451,3.931640625,76.36280059814453
0,675565,41.37763214111328,18.803787231445312,-70.50004577636719,128.92564392089844
0,675568,43.83354949951172,-12.953725814819336,8.72203254699707,-160.7720947265625
0,675569,-45.594505310058594,-41.128414154052734,118.32365417480469,-193.4373779296875
0,675572,0.12227262556552887,9.546652793884277,25.836591720581055,-78.13845825195312
0,675573,34.34352493286133,13.328810691833496,-52.09542465209961,-53.90719985961914
0,675576,29.135957717895508,-16.83468246459961,15.712510108947754,16.067176818847656
0,675577,1.363202452659607,16.155881881713867,13.87490177154541,-0.36637941002845764
0,675580,-82.82141876220703,4.539607524871826,-75.79874420166016,98.7355728149414
0,675655,68.65959167480469,-12.485251426696777,64.6556396484375,-117.43267822265625
0,675655,178.95802307128906,40.9011116027832,149.25706481933594,-314.048095703125
0,675655,-92.1478042602539,-4.415681838989258,-91.41780090332031,152.31214904785156
0,675655,-122.12367248535156,-27.44002914428711,-85.28157043457031,227.66615295410156
0,675656,12.436012268066406,1.31767737865448,1.7919440269470215,50.8062629699707
0,675656,-21.366809844970703,-3.492255449295044,-26.980195999145508,114.13568115234375
0,675656,-14.729235649108887,14.30758285522461,2.3932552337646484,57.244327545166016
0,675656,-15.863422393798828,-9.996025085449219,-3.401078462600708,-31.65152359008789
0,675656,-15.322517395019531,-17.349828720092773,6.375087261199951,-53.02482223510742
0,675657,4.301627159118652,18.497480392456055,11.833701133728027,-71.1116714477539
0,675657,-18.67329216003418,-11.599324226379395,-1.9356697797775269,-48.89447784423828
0,675657,-22.373811721801758,-16.91204833984375,-13.302833557128906,-0.38952121138572693
0,675657,0.3894966244697571,17.908260345458984,-18.881181716918945,21.47728729248047
0,675657,-11.588665008544922,0.8054710030555725,9.473777770996094,58.228572845458984
0,675657,25.166044235229492,-2.147402286529541,-14.083858489990234,65.40803527832031
0,675658,37.509883880615234,-9.374476432800293,-28.603261947631836,30.423240661621094
0,675658,-6.571932792663574,10.605259895324707,34.959957122802734,12.709317207336426
0,675658,21.853410720825195,39.08903884887695,14.273049354553223,-16.004762649536133
0,675658,23.290353775024414,-4.299869060516357,-11.16458511352539,-40.2933349609375
0,675658,-5.7655158042907715,-18.654813766479492,20.21411895751953,-40.79243469238281
0,675658,-3.0852370262145996,-5.377249717712402,4.568297863006592,-23.14960289001465
0,675659,-19.372636795043945,-0.09443352371454239,8.50741195678711,-1.015683650970459
0,675659,-0.6034485697746277,-9.846389770507812,-6.184771537780762,-14.32008171081543
0,675659,20.573360443115234,-11.52747631072998,-22.644824981689453,16.96990203857422
0,675659,-0.9175834655761719,19.08453369140625,6.494082927703857,29.680633544921875
0,675659,-9.615269660949707,-4.096374988555908,20.881519317626953,11.161406517028809
0,675659,10.526985168457031,-13.603515625,4.108564853668213,16.839202880859375
0,675660,14.061029434204102,11.416653633117676,-13.039344787597656,-27.198732376098633
0,675660,-9.630183219909668,-10.8114013671875,12.238785743713379,-27.597105026245117
0,675660,-13.563305854797363,3.002316951751709,24.229896545410156,-4.706407070159912
0,675660,7.454705715179443,22.570127487182617,-0.02568577602505684,-34.96674346923828
0,675660,18.552635192871094,-26.488204956054688,-25.714231491088867,-8.687881469726562
0,675661,-13.050922393798828,-10.027816772460938,-14.862689018249512,31.712936401367188
0,675661,-14.9666748046875,23.221912384033203,5.769144535064697,-0.13676764070987701
0,675661,-2.1592490673065186,-9.863351821899414,5.523557662963867,11.602184295654297
0,675661,4.851007461547852,17.779571533203125,-1.6073659658432007,37.839542388916016
0,675661,27.569643020629883,31.407249450683594,-14.692112922668457,4.940300941467285
0,675662,-6.4955549240112305,-13.695773124694824,6.1776556968688965,72.07801818847656
0,675663,-20.15040397644043,-16.79158592224121,9.88593864440918,65.74675750732422
0,675663,11.372215270996094,3.5345380306243896,-13.063857078552246,-86.27693939208984
0,675663,1.137337327003479,-14.180387496948242,3.6122145652770996,-65.60441589355469
0,675664,-28.26642608642578,12.926423072814941,23.087411880493164,97.90856170654297
0,675666,-14.455926895141602,50.52313995361328,17.078216552734375,91.99026489257812
0,675668,37.68230056762695,-5.23262357711792,21.86040496826172,-210.09130859375
0,675670,39.430606842041016,-23.52032470703125,25.5643310546875,-246.74578857421875
0,675672,31.98876953125,-21.75084114074707,-2.525794744491577,-49.23576354980469
0,675674,53.9382209777832,-29.053979873657227,2.1639909744262695,-93.23331451416016
0,675676,-57.51786804199219,3.9742069244384766,1.4224884510040283,-64.97454833984375
0,675678,-115.17623901367188,13.142497062683105,-62.035186767578125,110.25092315673828
0,675680,22.162099838256836,-7.028916835784912,-58.53626251220703,344.7925720214844
0,675682,12.037191390991211,-15.375237464904785,-13.958566665649414,273.47698974609375
0,675684,-41.43672180175781,8.822009086608887,-19.296127319335938,-90.83647918701172
0,675686,17.81067657470703,20.31400489807129,1.5855684280395508,-72.78136444091797
0,675688,54.51029586791992,-2.564133882522583,52.00251007080078,-20.69292640686035
0,675690,36.2226676940918,-3.4854624271392822,35.05500793457031,-127.38414001464844
0,675692,-61.8916130065918,4.524866580963135,53.869815826416016,-101.31023406982422
0,675694,-16.154109954833984,14.895979881286621,100.52677154541016,-30.369909286499023
0,675696,60.36284255981445,3.730164051055908,-90.85186767578125,52.670536041259766
0,675783,-24.99904441833496,-1.6508495807647705,-215.30975341796875,217.4296417236328
0,675783,-11.369924545288086,8.047750473022461,13.207036018371582,131.74197387695312
0,675783,14.4912691116333,-23.94597625732422,134.58213806152344,-215.24386596679688
0,675784,-16.19869613647461,-5.313640594482422,17.054264068603516,-93.11249542236328
0,675784,-9.638236999511719,1.7804416418075562,-50.7034797668457,101.74240112304688
0,675784,-20.4586124420166,-25.702930450439453,-42.8905029296875,102.48577117919922
0,675784,-6.223562717437744,30.320573806762695,-14.64323902130127,140.56422424316406
0,675784,9.949703216552734,44.84268569946289,4.577690601348877,60.52227783203125
0,675785,-19.180429458618164,-30.791412353515625,20.880359649658203,12.269241333007812
0,675785,0.5833302736282349,-33.620704650878906,27.27295684814453,-67.55440521240234
0,675785,39.33060836791992,25.816242218017578,45.79938888549805,-149.739990234375
0,675785,4.979106903076172,11.918959617614746,59.601375579833984,-121.82022857666016
0,675785,8.291394233703613,-21.468271255493164,-4.334403038024902,-110.92972564697266
0,675785,20.457138061523438,-7.878201961517334,-19.663772583007812,-54.41875076293945
0,675786,-3.514122724533081,14.047723770141602,0.13660399615764618,15.352341651916504
0,675786,-8.354925155639648,-3.3038251399993896,-42.3682975769043,43.36179733276367
0,675786,-36.02941131591797,-22.2825927734375,-29.49937629699707,99.54905700683594
0,675786,-21.238893508911133,21.749652862548828,14.617219924926758,60.283634185791016
0,675786,34.76808166503906,13.143387794494629,-2.89078688621521,-23.35367774963379
0,675786,4.256958484649658,-29.196229934692383,13.391427040100098,-46.372406005859375
0,675787,3.9584341049194336,-1.5938870906829834,21.948068618774414,-68.83378601074219
0,675787,39.82180404663086,26.3892879486084,20.756052017211914,-73.42896270751953
0,675787,-5.548808574676514,15.486226081848145,34.093780517578125,-51.18755340576172
0,675787,-4.290035724639893,-19.288490295410156,-29.625158309936523,-23.31578254699707
0,675787,-6.721604347229004,-20.19111442565918,-45.3020133972168,8.633279800415039
0,675787,-14.243274688720703,6.945774078369141,18.054656982421875,49.3406982421875
0,675788,2.3958849906921387,7.40424919128418,17.932252883911133,64.00785827636719
0,675788,-7.996821403503418,-2.3218443393707275,-27.467466354370117,46.32249069213867
0,675788,4.249671459197998,5.377307891845703,-9.631062507629395,21.896324157714844
0,675788,6.160861968994141,14.412860870361328,17.470417022705078,-17.7481689453125
0,675788,13.0001859664917,-8.520880699157715,-6.745364189147949,-27.383005142211914
0,675788,-10.437616348266602,-15.62463092803955,-0.0485457107424736,-47.5814323425293
0,675789,-22.15888786315918,-15.214959144592285,13.336017608642578,-44.892494201660156
0,675789,2.8043212890625,-11.284285545349121,1.939109444618225,38.72882080078125
0,675789,7.537773609161377,19.490036010742188,-8.626304626464844,23.63738441467285
0,675789,9.378076553344727,2.69762921333313,-26.2987117767334,-3.570641279220581
0,675789,-28.784648895263672,-23.199132919311523,-14.549322128295898,52.27007293701172
0,675790,-7.7507171630859375,8.587958335876465,5.63934326171875,49.04491424560547
0,675790,31.522502899169922,25.291664123535156,-9.69334888458252,1.6941139698028564
0,675790,-18.11691665649414,2.9646787643432617,-4.293468475341797,-19.255502700805664
0,675790,-3.294837236404419,-14.242969512939453,18.430463790893555,-6.987541198730469
0,675790,25.013595581054688,0.15777938067913055,16.578763961791992,-9.027091026306152
0,675790,2.926339864730835,23.607398986816406,11.386493682861328,-18.04551887512207
0,675792,12.166804313659668,4.047958850860596,-1.6786025762557983,-51.587158203125
0,675792,8.65057373046875,-13.608698844909668,-1.66642427444458,-39.730342864990234
0,675792,-17.703001022338867,10.231048583984375,-2.3258566856384277,57.1422233581543
0,675792,-11.743887901306152,12.759074211120605,-17.954866409301758,54.063716888427734
0,675792,18.882801055908203,-13.273467063903809,0.9274653792381287,-7.180360317230225
0,675794,3.069596529006958,-2.5212221145629883,11.734378814697266,-63.651065826416016
0,675796,-39.366485595703125,-11.271082878112793,24.85601043701172,-40.21625900268555
0,675798,-36.28355407714844,-34.326393127441406,-3.8313698768615723,123.05241394042969
0,675800,-4.579744815826416,26.295120239257812,-89.50146484375,209.7400665283203
0,675802,44.83628463745117,43.6275749206543,-38.625003814697266,138.6907196044922
0,675804,-3.2860381603240967,-24.234148025512695,19.892026901245117,97.02342987060547
0,675806,-18.36009407043457,-21.167133331298828,14.103415489196777,16.764554977416992
0,675809,71.52470397949219,25.349266052246094,72.70558166503906,-322.4716491699219
0,675810,-45.49995422363281,15.274813652038574,48.27778625488281,-309.041259765625
0,675813,-79.4639892578125,-17.438825607299805,2.470273971557617,56.45288848876953
0,675814,63.057334899902344,-15.176828384399414,5.96886682510376,-61.765811920166016
0,675817,98.07086944580078,-29.999650955200195,-31.12851905822754,-258.0493469238281
0,675818,57.06735610961914,-14.349743843078613,-27.425451278686523,37.84638595581055
0,675821,-104.25284576416016,67.89303588867188,-53.3061408996582,633.972412109375
0,675822,-146.37469482421875,19.054161071777344,-22.989595413208008,376.96697998046875
0,675823,27.552892684936523,-53.92257308959961,63.33888244628906,-433.344970703125
0,675826,29.84398078918457,-5.3182902336120605,25.03087043762207,-319.59381103515625
0,675827,20.858173370361328,32.63646697998047,2.647844076156616,-17.543743133544922
0,675927,76.4584732055664,11.110583305358887,-42.70181655883789,211.7476348876953
0,675927,-24.28341293334961,-18.730514526367188,-56.208187103271484,267.20013427734375
0,675927,-42.55918884277344,-3.1497130393981934,31.28470230102539,-64.1354751586914
0,675927,9.51165771484375,4.4021477699279785,36.12868118286133,-116.51875305175781
0,675928,19.684127807617188,16.472225189208984,14.733221054077148,-94.29804992675781
0,675928,29.89825439453125,15.501893997192383,30.668302536010742,-167.519775390625
0,675928,2.0603277683258057,-37.8067512512207,20.560626983642578,-107.61650848388672
0,675928,-10.492032051086426,-30.659414291381836,-3.5346994400024414,4.041437149047852
0,675928,-10.109498977661133,1.1820610761642456,-15.240313529968262,67.20341491699219
0,675928,-18.47698211669922,23.271974563598633,-9.274659156799316,107.56748962402344
0,675929,0.4031759202480316,25.342636108398438,-9.714491844177246,109.31680297851562
0,675929,-0.49089404940605164,-34.05685806274414,-20.975357055664062,72.1669921875
0,675929,-6.123547554016113,-9.72203540802002,-2.4511590003967285,1.5782428979873657
0,675929,9.522024154663086,32.789947509765625,20.64109230041504,-43.08422088623047
0,675929,-1.339780569076538,1.5474070310592651,18.886371612548828,-54.833011627197266
0,675929,-14.971564292907715,-0.05767510458827019,18.29256248474121,-81.7237548828125
0,675930,17.314613342285156,2.282353401184082,2.722543954849243,-65.05035400390625
0,675930,33.417537689208984,-7.285586833953857,-20.30862045288086,-7.879299163818359
0,675930,-6.474867343902588,-7.196121692657471,-23.66933250427246,34.46812438964844
0,675930,-18.35346794128418,4.9593610763549805,-10.560552597045898,67.3090591430664
0,675930,-0.6703816652297974,0.07270075380802155,-15.989265441894531,57.339263916015625
0,675930,-7.294492244720459,-18.404109954833984,-28.254558563232422,32.93844223022461
0,675931,-23.887605667114258,-20.941137313842773,16.8164005279541,14.682344436645508
0,675931,-5.593457221984863,15.374574661254883,30.237274169921875,-43.76571273803711
0,675931,26.415632247924805,31.257518768310547,-9.18659496307373,-74.64705657958984
0,675931,15.474258422851562,-19.68928337097168,10.258182525634766,-56.522865295410156
0,675931,6.8516106605529785,-0.9905477166175842,23.053382873535156,-29.87714195251465
0,675932,11.787853240966797,8.218389511108398,-23.131135940551758,-12.757244110107422
0,675932,-14.66565227508545,-12.786274909973145,-4.5821990966796875,20.218772888183594
0,675932,-23.180540084838867,20.38226890563965,28.15741539001465,57.78989028930664
0,675932,5.287411689758301,8.131629943847656,-21.36545181274414,40.21272277832031
0,675932,12.393244743347168,-7.8344244956970215,-24.009502410888672,6.4854326248168945
0,675932,-3.370526075363159,-11.255096435546875,28.227848052978516,-8.457724571228027
0,675933,1.5311684608459473,-6.853275775909424,12.986228942871094,-3.865687847137451
0,675933,-3.519322156906128,6.283548831939697,-16.383256912231445,-3.1365768909454346
0,675933,-10.816991806030273,4.0897369384765625,4.393749237060547,-22.59055519104004
0,675933,28.746944427490234,4.512087345123291,18.29853057861328,-24.94651222229004
0,675933,15.542964935302734,-4.368444442749023,6.499611854553223,8.125988006591797
0,675933,-24.59172821044922,3.669766664505005,-10.165043830871582,38.73108673095703
0,675934,-5.309800148010254,0.9838929176330566,-18.594560623168945,21.03225326538086
0,675934,-2.7977137565612793,-4.677001476287842,-13.234370231628418,7.04366397857666
0,675934,-13.309030532836914,7.376002311706543,2.519691228866577,31.87041473388672
0,675934,0.6626677513122559,17.622976303100586,20.718429565429688,-2.5823452472686768
0,675934,9.289809226989746,18.619281768798828,5.236289978027344,-37.97145080566406
0,675934,-15.599600791931152,-22.946874618530273,-23.305944442749023,-32.04227066040039
0,675935,-15.915641784667969,-37.15401840209961,-2.3604228496551514,-21.361425399780273
0,675935,13.34411907196045,2.171492338180542,25.4582576751709,-4.964574813842773
0,675935,21.31546401977539,14.350168228149414,-9.172811508178711,-14.475863456726074
0,675935,8.90382194519043,5.3112406730651855,-12.661333084106445,11.00336742401123
0,675936,67.03665924072266,7.283499240875244,12.029576301574707,65.20228576660156
0,675937,76.12736511230469,-0.7291285991668701,-19.818422317504883,70.22203063964844
0,675937,-55.45132064819336,-11.84277057647705,-15.335597038269043,28.1240234375
0,675937,-51.13813781738281,-18.021862030029297,9.063582420349121,-2.116503953933716
0,675937,7.036365509033203,-12.430511474609375,-8.63782024383545,11.41421127319336
0,675938,-121.43231964111328,11.301431655883789,-36.08945083618164,127.51515197753906
0,675940,-142.19796752929688,25.171125411987305,-24.822956085205078,130.2703094482422
0,675942,45.1750373840332,-6.9037652015686035,-37.66807174682617,-91.31336212158203
0,675944,129.87417602539062,1.5848050117492676,-40.77934265136719,-60.07468795776367
0,675946,-33.60052490234375,23.213857650756836,109.34484100341797,84.79427337646484
0,675948,-120.3449935913086,-25.835010528564453,160.8304443359375,-84.68895721435547
0,675950,140.66134643554688,1.5177754163742065,8.608859062194824,-295.46185302734375
0,675952,78.84461212158203,11.265058517456055,-74.36919403076172,-105.42298889160156
0,675954,16.623035430908203,-18.79576873779297,-24.20417594909668,69.01441955566406
0,675956,117.12700653076172,10.646246910095215,15.191956520080566,-140.89395141601562
0,675958,-170.4760284423828,-9.76681900024414,-19.91388511657715,-44.260841369628906
0,675960,-117.22049713134766,-24.901023864746094,-17.084505081176758,198.39878845214844
0,675962,120.15889739990234,36.295013427734375,-16.092618942260742,259.5390930175781
0,675964,44.83114242553711,28.84726905822754,-36.26240539550781,188.83285522460938
0,675967,-42.42549514770508,-8.631329536437988,40.011016845703125,-102.19414520263672
0,675968,-21.975522994995117,-10.353496551513672,40.09506607055664,-133.59671020507812
0,675971,2.2529456615448,-26.4772891998291,-3.4115219116210938,-147.94610595703125
0,675972,-7.706009864807129,23.102985382080078,18.89739990234375,-283.88525390625
0,675975,1.9003511667251587,-1.0384165048599243,-9.311470985412598,-57.3333854675293
0,675976,25.02411460876465,-60.3711051940918,-16.411706924438477,274.2078552246094
0,676087,67.6785659790039,68.87144470214844,17.374378204345703,478.24029541015625
0,676087,28.526012420654297,90.7282485961914,40.33384704589844,57.24793243408203
0,676087,-27.008533477783203,-70.71002197265625,3.017653703689575,-467.7445068359375
0,676087,-22.034677505493164,-58.14872741699219,-28.298852920532227,-143.82373046875
0,676088,-35.533424377441406,18.952951431274414,-8.088433265686035,84.26509857177734
0,676088,-33.84063720703125,11.255215644836426,-33.70294189453125,22.821998596191406
0,676088,-14.075806617736816,-15.736464500427246,-55.20915603637695,101.88810729980469
0,676088,-40.977569580078125,-14.701587677001953,-15.56510066986084,66.86891174316406
0,676088,-31.450489044189453,23.70811653137207,33.289512634277344,-32.081138610839844
0,676089,43.556915283203125,8.964762687683105,3.591179132461548,-96.60628509521484
0,676089,44.42670822143555,-20.92435646057129,1.200021743774414,-112.02008819580078
0,676089,22.02276039123535,-17.64406394958496,34.991851806640625,-86.60655975341797
0,676089,14.424515724182129,19.833908081054688,15.830265998840332,-65.51284790039062
0,676089,-7.136973857879639,-2.1636734008789062,6.031208515167236,21.030353546142578
0,676089,-1.9154630899429321,-38.421451568603516,-10.209800720214844,111.90750885009766
0,676090,-3.821608781814575,21.625490188598633,-40.53939437866211,100.41509246826172
0,676090,-15.928108215332031,21.928422927856445,-24.879287719726562,109.00792694091797
0,676090,-10.527069091796875,-0.6742652654647827,33.63161087036133,105.66473388671875
0,676090,4.134816646575928,18.546493530273438,25.583463668823242,32.67401885986328
0,676090,21.20262336730957,5.81548547744751,-9.980998039245605,-17.89446258544922
0,676090,23.823373794555664,-19.186065673828125,-0.31576403975486755,-59.12386703491211
0,676091,2.2633259296417236,-10.195462226867676,15.706741333007812,-63.22432327270508
0,676091,2.9434468746185303,17.82567024230957,15.65475082397461,-40.05534362792969
0,676091,10.234827041625977,-6.265964984893799,-10.546297073364258,-13.130494117736816
0,676091,-19.57676124572754,0.1383017897605896,-15.224587440490723,49.31023406982422
0,676091,-16.403493881225586,16.629119873046875,1.9306881427764893,74.9322738647461
0,676091,2.860879898071289,-13.661012649536133,-4.966917514801025,47.637359619140625
0,676092,-21.054677963256836,3.5128443241119385,-5.923868656158447,10.78801155090332
0,676092,-11.331393241882324,22.17797088623047,3.7058794498443604,-16.93992042541504
0,676092,26.25108528137207,-2.8572404384613037,0.34185144305229187,-34.205257415771484
0,676092,9.85891342163086,-15.387215614318848,9.601430892944336,-59.77940368652344
0,676092,-18.56829833984375,-8.669951438903809,13.427167892456055,-72.39923095703125
0,676093,3.3349833488464355,2.9528450965881348,-0.8194552063941956,-57.863250732421875
0,676093,1.8497008085250854,-6.0760016441345215,-10.505172729492188,-26.61805534362793
0,676093,1.1030590534210205,-17.302658081054688,1.7692915201187134,8.675688743591309
0,676093,16.03759002685547,7.249503135681152,-15.561454772949219,11.254927635192871
0,676093,-34.55693435668945,4.469416618347168,-14.820439338684082,31.17723846435547
0,676093,-14.974319458007812,3.924098491668701,13.203585624694824,27.240680694580078
0,676093,29.707033157348633,-8.427762031555176,-5.024792671203613,-30.11125946044922
0,676094,-2.788050889968872,-4.560795307159424,17.254484176635742,-25.39678382873535
0,676094,-0.12569884955883026,18.163921356201172,9.694097518920898,-25.85084342956543
0,676094,15.3351411819458,-19.10665512084961,-17.78848648071289,-13.363519668579102
0,676094,8.674812316894531,9.100820541381836,12.868742942810059,5.249180316925049
0,676094,-17.459651947021484,21.972490310668945,19.767711639404297,2.646305799484253
0,676094,-14.290923118591309,-24.32338523864746,-13.080753326416016,37.68212127685547
0,676095,22.643484115600586,0.07661456614732742,-24.73887062072754,15.596863746643066
0,676095,-9.43189525604248,7.568178653717041,-13.360146522521973,8.690596580505371
0,676095,-30.47797966003418,-2.7804055213928223,6.960805892944336,58.17905044555664
0,676095,20.604551315307617,20.971471786499023,10.156049728393555,36.79010009765625
0,676095,23.895320892333984,-10.617450714111328,-4.585480690002441,-33.2133674621582
0,676096,-9.59977912902832,-29.06480598449707,7.059177398681641,-16.998891830444336
0,676096,-8.1284761428833,9.952433586120605,-15.403056144714355,25.990768432617188
0,676096,-3.5908305644989014,14.191922187805176,-9.75165843963623,-9.002633094787598
0,676096,-3.3490445613861084,-11.546428680419922,21.828962326049805,5.298966884613037
0,676096,10.692174911499023,9.386014938354492,-10.574563026428223,32.94253921508789
0,676098,-8.5766019821167,-1.7512328624725342,-52.68519973754883,60.20077133178711
0,676098,-23.72679328918457,-27.216035842895508,-19.559240341186523,48.6353874206543
0,676098,11.007105827331543,23.658937454223633,26.685606002807617,-34.19491958618164
0,676098,14.42753791809082,17.583158493041992,19.065750122070312,-6.3574934005737305
0,676098,1.73163902759552,4.076895236968994,9.691457748413086,5.554411888122559
0,676098,-19.20060920715332,2.2085092067718506,-11.411499977111816,-33.80025100708008
0,676100,-25.62701988220215,-35.59986114501953,0.6795432567596436,33.360965728759766
0,676102,12.677388191223145,6.337707042694092,-13.467771530151367,152.96595764160156
0,676104,8.724876403808594,40.29103088378906,-17.162322998046875,90.73440551757812
0,676106,14.103171348571777,-9.855539321899414,75.58805847167969,-124.17425537109375
0,676108,39.13823699951172,-3.8699679374694824,56.07680892944336,-149.82290649414062
0,676110,14.495384216308594,-12.304712295532227,-12.065834045410156,-276.2726745605469
0,676112,2.3816699981689453,-16.60159683227539,32.662994384765625,-290.4748840332031
0,676115,34.17383575439453,13.78133487701416,34.828739166259766,219.96861267089844
0,676116,4.6775593757629395,-29.750761032104492,-44.175270080566406,359.4933776855469
0,676119,-107.85846710205078,4.552755832672119,-99.1456069946289,-198.48391723632812
0,676120,-56.10718536376953,47.62019729614258,-37.960872650146484,-378.6009216308594
0,676123,63.37947463989258,22.916624069213867,65.64849853515625,592.2879638671875
0,676124,55.31793212890625,-16.580320358276367,5.257471084594727,643.40966796875
0,676127,-36.473724365234375,-70.35321807861328,-68.4529037475586,-537.0679321289062
0,676128,-52.01240539550781,18.149059295654297,31.79413604736328,-420.91021728515625
0,676129,52.99491882324219,73.07450866699219,74.36418151855469,151.88441467285156
0,676132,10.14173412322998,-4.745840072631836,-3.2754173278808594,82.3089828491211
0,676133,-31.49610137939453,-54.92926788330078,-21.8530216217041,-187.6998748779297
0,676136,15.393787384033203,-43.30348587036133,3.795363187789917,-279.0255432128906
0,676137,12.388373374938965,10.570904731750488,-19.689254760742188,193.00650024414062
0,676259,-5.32056188583374,4.623004913330078,-43.463111877441406,505.8145751953125
0,676259,-1.0972939729690552,9.552587509155273,9.119912147521973,15.807859420776367
0,676259,16.18292236328125,18.32572364807129,28.90010643005371,-325.56787109375
0,676259,-16.08020782470703,-2.75333571434021,-15.13754653930664,0.8575037717819214
0,676260,-21.325374603271484,23.58568000793457,-22.1047306060791,169.1387176513672
0,676260,-1.7018225193023682,16.31985855102539,-14.216036796569824,103.20243072509766
0,676260,-18.315017700195312,-16.807281494140625,-8.064986228942871,100.26500701904297
0,676260,-5.5882134437561035,4.483415126800537,20.985469818115234,39.289669036865234
0,676260,16.365907669067383,22.572839736938477,17.337852478027344,-81.36226654052734
0,676261,22.417438507080078,-18.173189163208008,11.582027435302734,-153.4137420654297
0,676261,11.703251838684082,-10.965271949768066,47.174888610839844,-155.56930541992188
0,676261,-0.18496327102184296,25.20970344543457,30.804889678955078,-130.65248107910156
0,676261,4.928699970245361,-20.01671028137207,-24.108535766601562,-64.48712158203125
0,676261,-0.9809363484382629,-28.861785888671875,-18.216840744018555,27.611345291137695
0,676261,-1.6240922212600708,7.089627265930176,-10.035028457641602,78.8880615234375
0,676262,2.181781053543091,15.501340866088867,-21.471317291259766,71.39447784423828
0,676262,-2.9071872234344482,10.511852264404297,-11.802213668823242,50.69596481323242
0,676262,-16.5537166595459,-3.3518900871276855,-1.8534166812896729,34.921409606933594
0,676262,-6.833451271057129,4.12252140045166,25.315874099731445,-21.5833740234375
0,676262,13.583809852600098,13.88963508605957,6.725847244262695,-74.67971801757812
0,676262,26.78428077697754,-1.2459285259246826,-8.251410484313965,-79.79847717285156
0,676263,12.722146034240723,-13.803363800048828,12.75635051727295,-87.09719848632812
0,676263,-24.31875228881836,-30.54722785949707,-11.177148818969727,-41.705509185791016
0,676263,-12.392903327941895,-7.761242866516113,-12.759138107299805,45.70751190185547
0,676263,3.608250379562378,27.448652267456055,1.56723952293396,59.325767517089844
0,676263,-7.162347316741943,-9.043201446533203,-6.838433265686035,52.94087219238281
0,676264,-19.12911605834961,-21.572839736938477,-7.508868217468262,67.38069915771484
0,676264,7.075496673583984,0.9530245661735535,0.08891753852367401,42.47735595703125
0,676264,49.776065826416016,21.702455520629883,-2.8256020545959473,15.024338722229004
0,676264,12.337241172790527,9.013306617736816,10.521676063537598,-13.447509765625
0,676264,-26.260740280151367,-7.793683052062988,25.317338943481445,-33.35663986206055
0,676264,8.369635581970215,24.190053939819336,2.6552999019622803,-37.263946533203125
0,676265,11.342784881591797,-18.45991325378418,-19.655187606811523,-32.468971252441406
0,676265,-27.211027145385742,-38.33321762084961,-6.0272955894470215,24.215450286865234
0,676265,-23.025651931762695,14.516565322875977,7.791774749755859,56.733097076416016
0,676265,4.576178550720215,8.94516372680664,-4.987886428833008,42.76791000366211
0,676265,1.848483681678772,-0.5848464965820312,-4.204656600952148,47.325252532958984
0,676265,-9.042871475219727,6.902939319610596,18.013158798217773,31.33251953125
0,676266,-7.479616165161133,-6.4174065589904785,22.61488151550293,-0.3400135934352875
0,676266,-0.07147657871246338,-2.0636212825775146,-6.041858196258545,-13.228982925415039
0,676266,-2.9233975410461426,7.487358570098877,-15.102371215820312,-19.883487701416016
0,676266,-4.529873847961426,-2.2946722507476807,4.700390815734863,-5.697624683380127
0,676266,0.5555735230445862,-0.9206132888793945,4.172661781311035,6.6505584716796875
0,676266,-1.5660545825958252,-6.422435760498047,-3.226820230484009,33.26297378540039
0,676267,12.892777442932129,19.563302993774414,3.804748296737671,55.19681167602539
0,676267,13.071290016174316,12.313438415527344,2.6137866973876953,28.525768280029297
0,676267,20.889516830444336,-21.203378677368164,-17.06965446472168,-8.897893905639648
0,676267,2.745396375656128,16.2448787689209,1.2830811738967896,-23.519208908081055
0,676267,-23.49711036682129,27.648508071899414,22.872488021850586,-10.242738723754883
0,676267,23.929471969604492,-14.059653282165527,6.503311634063721,-35.180179595947266
0,676268,17.344881057739258,-23.03093910217285,4.0417375564575195,-80.3095474243164
0,676268,-27.97464370727539,1.8000720739364624,-21.00873565673828,-63.66493225097656
0,676268,-7.72589111328125,-13.02690601348877,-1.706061840057373,-8.165217399597168
0,676268,21.06250762939453,4.073977947235107,27.986618041992188,5.365403652191162
0,676268,1.5285392999649048,23.863155364990234,-13.39576530456543,-26.251073837280273
0,676268,-27.667654037475586,-18.7595157623291,-18.33092498779297,-17.972970962524414
0,676269,-14.361527442932129,-6.1696624755859375,-1.521512746810913,-0.2718137800693512
0,676269,12.673616409301758,9.384122848510742,-18.506174087524414,-10.906087875366211
0,676269,-2.989492177963257,-27.19369125366211,-13.482051849365234,-4.887619495391846
0,676269,-9.571815490722656,-8.414172172546387,11.471652030944824,9.594301223754883
0,676270,27.755748748779297,10.335103034973145,14.15733528137207,-194.60543823242188
0,676271,17.358274459838867,-16.27948570251465,2.053980588912964,-181.8341064453125
0,676271,-16.028085708618164,6.460862159729004,-7.161778450012207,168.92091369628906
0,676271,0.33749133348464966,22.10272789001465,19.096872329711914,67.41958618164062
0,676271,5.260824203491211,21.290760040283203,2.575411319732666,-64.17158508300781
0,676271,4.7610344886779785,1.128705620765686,-17.41220474243164,61.93708801269531
0,676273,33.891849517822266,-12.782925605773926,24.87723159790039,-28.875638961791992
0,676274,-1.8384010791778564,1.0230910778045654,-6.632383823394775,-63.47054672241211
0,676277,-78.19121551513672,-20.007545471191406,-44.02778625488281,238.50025939941406
0,676278,-44.670631408691406,-3.883019208908081,-8.420804023742676,254.12261962890625
0,676279,27.085519790649414,17.258085250854492,-13.903207778930664,36.370880126953125
0,676282,-5.246541976928711,40.19080352783203,-16.56038475036621,170.22064208984375
0,676283,-14.854193687438965,9.066740989685059,-9.682794570922852,116.64403533935547
0,676286,34.11480712890625,-39.79069900512695,7.824547290802002,-174.0746612548828
0,676287,16.848512649536133,-0.6870896220207214,60.024967193603516,-143.4669189453125
0,676290,9.4515380859375,-2.389151096343994,57.69565963745117,-141.6852569580078
0,676291,32.997562408447266,5.668392181396484,30.952199935913086,-170.21990966796875
0,676294,-11.741849899291992,-7.270163536071777,-20.98949432373047,-100.58578491210938
0,676295,3.3356752395629883,-25.968202590942383,-28.012126922607422,-92.25324249267578
0,676298,11.973644256591797,23.45257568359375,-36.2794303894043,187.9746856689453
0,676299,-59.79607009887695,14.482416152954102,-65.32219696044922,230.6592254638672
0,676302,-22.399608612060547,-25.316612243652344,10.119906425476074,117.89189910888672
0,676303,31.779869079589844,-10.259134292602539,45.52947235107422,120.71698760986328
0,676306,22.213043212890625,43.44370651245117,61.376991271972656,-287.2373352050781
0,676307,-20.966964721679688,4.751262187957764,5.77556848526001,-313.0708312988281
0,676310,-9.570952415466309,-50.879966735839844,-109.20625305175781,98.9895248413086
0,676311,93.23918151855469,-2.6486732959747314,-33.12855529785156,143.92892456054688
0,676314,42.42372131347656,46.77880859375,86.4557876586914,-11.395736694335938
0,676446,-137.46551513671875,28.421749114990234,4.68908166885376,236.93814086914062
0,676446,-53.213844299316406,-9.379278182983398,-57.659950256347656,238.7095184326172
0,676446,81.88233947753906,-13.02474594116211,47.45172882080078,-371.1663513183594
0,676446,-0.1443934440612793,-11.630221366882324,38.614990234375,-251.3759765625
0,676447,-5.563422203063965,2.291961431503296,-23.128828048706055,74.8760986328125
0,676447,4.448867321014404,-25.742162704467773,-5.3811869621276855,60.42608642578125
0,676447,-37.92097473144531,-26.11216163635254,-2.0829925537109375,102.93571472167969
0,676447,-13.033175468444824,39.379554748535156,-11.844983100891113,53.6260871887207
0,676447,-2.8588132858276367,4.843289852142334,0.8862573504447937,20.079275131225586
0,676447,15.74550724029541,-26.129709243774414,15.41853141784668,-47.15299606323242
0,676448,46.73523712158203,16.112775802612305,17.545778274536133,-118.59716796875
0,676448,13.611405372619629,9.282772064208984,30.63058853149414,-91.4851303100586
0,676448,0.829378068447113,-5.513952255249023,7.340901851654053,-57.768402099609375
0,676448,7.154494285583496,-4.750024318695068,-12.572514533996582,-50.491493225097656
0,676448,-21.17111587524414,-21.339685440063477,-3.643162488937378,13.375895500183105
0,676448,2.895327568054199,4.567024230957031,-21.632362365722656,89.76738739013672
0,676449,-1.2423832416534424,31.72895050048828,-26.661399841308594,99.24347686767578
0,676449,-38.50086212158203,-9.23830795288086,-5.1401472091674805,77.02159118652344
0,676449,1.594610571861267,-16.23727798461914,-2.1130526065826416,40.741065979003906
0,676449,20.527252197265625,24.67840576171875,-1.354204773902893,-20.91147804260254
0,676449,0.2660562992095947,7.92776346206665,11.46333122253418,-57.91992950439453
0,676450,-7.535588264465332,-8.980055809020996,5.604194641113281,-53.568702697753906
0,676450,27.619853973388672,12.281102180480957,-0.10977152734994888,-32.88956069946289
0,676450,26.75359344482422,5.259501934051514,15.126452445983887,-29.262176513671875
0,676450,-18.811473846435547,-5.393197536468506,-13.25240707397461,-7.2627668380737305
0,676450,-16.380666732788086,-12.950448989868164,-22.4178524017334,49.6479377746582
0,676450,-17.70816993713379,-25.215072631835938,11.950817108154297,52.60717010498047
0,676451,-6.4259538650512695,-2.109909772872925,-8.69707202911377,37.16773223876953
0,676451,12.972376823425293,18.752565383911133,-9.637378692626953,21.157062530517578
0,676451,0.8186765909194946,5.005121231079102,7.80147123336792,-25.690919876098633
0,676451,-14.86812686920166,-12.39279842376709,7.111673355102539,-35.95754623413086
0,676451,-1.6879618167877197,-17.85657501220703,13.901803016662598,-26.292739868164062
0,676451,29.57113265991211,4.988793849945068,-5.782583713531494,-41.6155891418457
0,676452,-0.5881794095039368,17.665435791015625,-0.5894694924354553,-21.04340362548828
0,676452,-10.201184272766113,-6.590714454650879,10.27098274230957,33.32345962524414
0,676452,29.91672134399414,2.6048636436462402,-23.625778198242188,23.479087829589844
0,676452,-13.04350757598877,6.30741024017334,-6.183354377746582,22.120759963989258
0,676452,-27.96807861328125,-27.607229232788086,10.720955848693848,40.88386917114258
0,676452,19.49640655517578,12.849127769470215,-8.68202018737793,-0.859612762928009
0,676453,2.0578625202178955,21.965770721435547,6.3040690422058105,-9.706563949584961
0,676453,-18.72345733642578,-49.86042022705078,11.753206253051758,-8.693460464477539
0,676453,6.293874263763428,-22.946496963500977,-3.9647669792175293,-33.975830078125
0,676453,12.594785690307617,25.99648666381836,3.933457612991333,-23.312454223632812
0,676453,7.865261077880859,10.636188507080078,31.007526397705078,6.873003959655762
0,676453,21.06073570251465,25.206998825073242,11.667655944824219,5.195747375488281
0,676454,19.58001708984375,12.383934020996094,-21.22979164123535,12.18726634979248
0,676454,0.5334123373031616,-7.603531837463379,-4.948757171630859,32.887542724609375
0,676454,-11.629188537597656,25.123252868652344,-2.5908915996551514,17.653888702392578
0,676454,-10.14258098602295,4.183989524841309,-15.842208862304688,7.8484883308410645
0,676454,-7.704077243804932,-25.111135482788086,-6.102250099182129,-1.2663110494613647
0,676454,-0.11313335597515106,7.717874050140381,2.2158350944519043,-7.214779376983643
0,676455,7.203562259674072,18.270160675048828,8.162874221801758,-36.07682800292969
0,676455,-12.275012969970703,-14.611085891723633,-0.7656946182250977,-16.075515747070312
0,676455,-14.868149757385254,-1.7157841920852661,-9.408832550048828,28.6085147857666
0,676455,18.779869079589844,12.21013069152832,-13.131267547607422,-24.392425537109375
0,676455,-11.970562934875488,-37.67961502075195,-23.9193115234375,-6.450675964355469
0,676455,-28.193944931030273,-23.56291389465332,14.436686515808105,52.42183303833008
0,676456,24.01676368713379,27.270959854125977,34.472816467285156,13.965835571289062
0,676456,9.13690185546875,-11.878304481506348,-16.881500244140625,-11.38368034362793
0,676456,-14.594365119934082,-10.81013011932373,-21.352346420288086,4.030651092529297
0,676456,5.960762977600098,41.33708190917969,10.930758476257324,9.271029472351074
0,676456,-1.478820562362671,0.04177940636873245,15.956976890563965,3.9400229454040527
0,676457,-12.781237602233887,-38.964656829833984,5.662750244140625,-15.267396926879883
0,676457,-18.03919792175293,0.1903984695672989,-19.786720275878906,4.362240314483643
0,676457,-22.091978073120117,31.816768646240234,-15.819439888000488,6.658365249633789
0,676457,-14.149761199951172,9.503570556640625,7.484591007232666,-8.248703956604004
0,676458,-11.936675071716309,4.5553812980651855,12.175769805908203,113.91796112060547
0,676458,19.103364944458008,23.892471313476562,0.7326600551605225,80.56883239746094
0,676459,-0.1546163707971573,-18.438093185424805,-14.521224021911621,-103.60267639160156
0,676459,-17.969709396362305,-24.67123794555664,13.960285186767578,-39.734073638916016
0,676459,24.460105895996094,23.26558494567871,7.029445171356201,26.448286056518555
0,676459,-9.946144104003906,-4.55118465423584,-18.321163177490234,-29.921035766601562
0,676460,10.952007293701172,-15.534258842468262,40.54426574707031,12.142943382263184
0,676462,-11.180929183959961,3.7160916328430176,-15.113665580749512,109.56300354003906
0,676464,-90.8365249633789,19.11431884765625,-46.38619613647461,119.57936096191406
0,676466,38.36933898925781,17.171035766601562,100.99022674560547,-68.37141418457031
0,676469,117.53431701660156,-33.20120620727539,51.5379753112793,-353.3306579589844
0,676470,91.36835479736328,-7.306407451629639,-85.23898315429688,-217.1699981689453
0,676473,6.776507377624512,3.0218451023101807,-1.8751908540725708,43.13970184326172
0,676474,-80.41803741455078,-6.884437084197998,65.96768951416016,-16.71480369567871
0,676477,-36.06289291381836,-13.117125511169434,-57.537391662597656,89.82011413574219
0,676478,-21.835559844970703,-18.256437301635742,-97.68850708007812,193.7767333984375
0,676481,41.9692497253418,19.267072677612305,52.30447769165039,111.86698150634766
0,676482,4.8152875900268555,13.557068824768066,71.2011489868164,72.79027557373047
0,676485,-78.03199005126953,11.845548629760742,-107.52114868164062,60.70520782470703
0,676486,44.63279342651367,7.169641017913818,-50.59233474731445,-28.180418014526367
0,676489,45.574710845947266,-31.032066345214844,136.0679931640625,-240.1084747314453
0,676490,-28.45686149597168,-32.682952880859375,56.424015045166016,-149.61111450195312
0,676493,-35.41600799560547,28.667802810668945,-13.778922080993652,68.87630462646484
0,676494,22.317108154296875,45.157955169677734,-1.266546368598938,-26.039140701293945
0,676497,41.83991241455078,-26.43253517150879,-97.76815795898438,-21.75713348388672
0,676498,-55.071044921875,-33.566890716552734,-87.47924041748047,122.52667999267578
0,676499,85.78700256347656,34.619110107421875,65.08149719238281,102.29380798339844
0,676502,0.8249664902687073,-2.372627019882202,46.89540481567383,68.43111419677734
0,676503,-184.5108184814453,-15.637459754943848,-50.2964973449707,61.061737060546875
0,676646,78.35340118408203,26.036745071411133,-10.492070198059082,-50.73735046386719
0,676646,71.58853912353516,-5.333045959472656,41.34417724609375,-8.120081901550293
0,676646,-71.50084686279297,14.425873756408691,5.0700578689575195,103.99690246582031
0,676646,-1.2049598693847656,20.934240341186523,-17.749792098999023,25.618040084838867
0,676647,9.884763717651367,-26.52975082397461,3.6546669006347656,-33.203678131103516
0,676647,0.4954249858856201,-21.27079963684082,44.77417755126953,-72.13929748535156
0,676647,38.134613037109375,13.052206993103027,43.491024017333984,-140.8905029296875
0,676647,60.27228546142578,15.280969619750977,3.4889297485351562,-144.9108123779297
0,676647,-0.3595307469367981,-21.85650062561035,8.390543937683105,-91.00570678710938
0,676647,-36.82073211669922,-19.412845611572266,-19.520593643188477,-20.701379776000977
0,676648,4.4649786949157715,17.82097625732422,-26.09189224243164,33.82642364501953
0,676648,19.95984649658203,-1.1440430879592896,7.682403564453125,74.47086334228516
0,676648,-25.97734832763672,-28.778223037719727,-29.65826416015625,101.38063049316406
0,676648,-22.06447410583496,5.194760322570801,-24.257654190063477,73.61686706542969
0,676648,25.437070846557617,21.083337783813477,27.847064971923828,15.345085144042969
0,676648,18.61927604675293,2.6717255115509033,3.4938342571258545,-30.460195541381836
0,676649,-17.92992401123047,-3.6189780235290527,-6.6701273918151855,-68.77113342285156
0,676649,-15.047529220581055,-7.024606227874756,29.131343841552734,-48.308502197265625
0,676649,26.568151473999023,13.061131477355957,26.86666488647461,-19.836795806884766
0,676649,0.20124046504497528,13.860540390014648,-15.521978378295898,-35.40831756591797
0,676649,-39.004940032958984,-18.588077545166016,-29.91896629333496,18.79954719543457
0,676649,-21.375913619995117,-11.171429634094238,-8.470269203186035,85.99750518798828
0,676650,-15.657584190368652,22.91499900817871,-2.5761232376098633,62.9221305847168
0,676650,-9.5792236328125,7.256496906280518,-9.279664039611816,18.861968994140625
0,676650,-12.90384292602539,-13.336000442504883,-11.828775405883789,12.576797485351562
0,676650,-5.6473822593688965,-1.9918769598007202,8.017855644226074,-17.880828857421875
0,676650,28.19049835205078,-8.036046981811523,18.526914596557617,-53.445926666259766
0,676651,4.9818115234375,9.140154838562012,14.020458221435547,-33.396339416503906
0,676651,-7.61890983581543,14.761969566345215,10.368688583374023,-33.12761306762695
0,676651,44.23181915283203,-24.953664779663086,-29.842710494995117,-26.731660842895508
0,676651,9.78492259979248,-3.4101669788360596,-17.1607723236084,23.737064361572266
0,676651,-35.405982971191406,18.602272033691406,2.2299795150756836,55.86496353149414
0,676651,-9.217741012573242,-5.514566421508789,-17.174266815185547,34.346412658691406
0,676652,10.587064743041992,11.765944480895996,16.013721466064453,3.891087293624878
0,676652,23.12692642211914,-0.3024127781391144,-5.561607837677002,6.761038303375244
0,676652,-6.135350704193115,-18.275829315185547,-12.836200714111328,0.2529831528663635
0,676652,2.360729694366455,10.718792915344238,42.059329986572266,-32.86837387084961
0,676652,31.140724182128906,7.904458522796631,24.700815200805664,-20.75177574157715
0,676652,2.803086280822754,-2.466620445251465,-7.961768627166748,8.873496055603027
0,676653,-5.063211917877197,-8.049033164978027,-15.743515014648438,-10.900117874145508
0,676653,-7.278713703155518,-16.5518856048584,-21.12553596496582,1.0499464273452759
0,676653,-21.086009979248047,-2.653456687927246,6.930386543273926,30.177032470703125
0,676653,2.7723424434661865,21.849855422973633,23.359025955200195,15.252362251281738
0,676653,10.585777282714844,4.128175258636475,-8.481114387512207,2.113699197769165
0,676653,-14.503355979919434,-23.582094192504883,-16.083660125732422,0.4603281021118164
0,676654,-7.390724182128906,12.05579948425293,3.448803186416626,10.820693969726562
0,676654,16.13141441345215,30.89585304260254,21.742881774902344,-4.121076583862305
0,676654,10.218924522399902,-22.227420806884766,8.666576385498047,-47.70654296875
0,676654,-15.600308418273926,-22.589921951293945,-20.98295021057129,1.3061418533325195
0,676654,0.5087670087814331,26.0636043548584,-17.73101234436035,29.00714683532715
0,676654,5.6607584953308105,-16.602933883666992,-2.9112250804901123,-25.07503890991211
0,676655,-23.59576988220215,-25.62859344482422,-7.61946439743042,7.98338508605957
0,676655,-2.282723903656006,14.448613166809082,-13.996563911437988,40.97243118286133
0,676655,9.471673965454102,-0.3814905285835266,13.223078727722168,25.394367218017578
0,676655,-10.889999389648438,13.897371292114258,4.126644134521484,9.103857040405273
0,676655,-2.372141122817993,10.721226692199707,-14.78919506072998,-11.308723449707031
0,676655,7.897979736328125,-5.599900245666504,12.062232971191406,13.847979545593262
0,676656,-4.499967575073242,15.014097213745117,11.41059398651123,6.0582804679870605
0,676656,-22.688871383666992,-1.7958664894104004,3.4919381141662598,-22.297361373901367
0,676656,8.997970581054688,-11.797378540039062,1.6309765577316284,4.6244120597839355
0,676656,38.83955001831055,16.855140686035156,-11.619384765625,7.23035192489624
0,676656,-12.156639099121094,4.757472515106201,-8.002704620361328,-9.155272483825684
0,676656,-19.3406982421875,-19.96405601501465,11.487473487854004,-3.568913459777832
0,676657,19.648569107055664,-13.066361427307129,1.2665083408355713,-0.9916917681694031
0,676657,0.9572209715843201,-2.1735329627990723,-13.300228118896484,10.454228401184082
0,676657,1.5037013292312622,18.832216262817383,16.780012130737305,4.904797077178955
0,676657,11.130657196044922,1.898341178894043,-3.4989066123962402,-16.60932159423828
0,676657,-30.366811752319336,-27.659130096435547,-27.523611068725586,-9.389293670654297
0,676657,-13.335844993591309,1.3257993459701538,16.292709350585938,10.825973510742188
0,676658,35.5096549987793,17.745845794677734,12.759926795959473,5.375293254852295
0,676658,12.322649002075195,11.787742614746094,-8.563478469848633,9.365083694458008
0,676659,-25.23647689819336,9.089178085327148,12.921998023986816,77.77179718017578
0,676659,-28.189538955688477,7.036921501159668,17.968547821044922,37.404239654541016
0,676659,14.163269996643066,6.757983684539795,4.417481899261475,-71.84562683105469
0,676660,16.2282657623291,-2.336779832839966,-8.979975700378418,-33.81163787841797
0,676660,-17.412870407104492,-11.075935363769531,-11.404263496398926,18.392229080200195
0,676660,1.1003968715667725,-11.51000690460205,-6.571269512176514,-6.457902431488037
0,676661,-24.294445037841797,17.295307159423828,19.351036071777344,35.10821533203125
0,676661,-20.76848793029785,14.524908065795898,38.69005584716797,8.818777084350586
0,676664,72.95381927490234,-55.06236267089844,-95.0511703491211,32.30400466918945
0,676665,53.2900276184082,-21.765422821044922,-79.95928192138672,50.3927116394043
0,676668,5.607494831085205,43.24062728881836,170.85610961914062,-259.5888671875
0,676669,10.553746223449707,-18.179058074951172,91.50784301757812,-216.86700439453125
0,676672,-31.937984466552734,-15.652057647705078,-78.65837097167969,-47.93349075317383
0,676673,-16.110416412353516,-11.085597038269043,-21.300045013427734,-105.6380844116211
0,676676,16.715688705444336,-21.320032119750977,-19.571367263793945,167.09854125976562
0,676677,-19.258405685424805,48.243309020996094,-36.42632293701172,279.15618896484375
0,676680,-47.814510345458984,14.370388984680176,-34.90808868408203,105.59595489501953
0,676681,-11.393152236938477,-33.97978210449219,-12.235885620117188,62.576332092285156
0,676684,18.477603912353516,25.163585662841797,5.081157684326172,39.88390350341797
0,676686,-16.136821746826172,37.93497848510742,14.623090744018555,-40.15651321411133
0,676688,-0.40134772658348083,-26.979711532592773,99.0111312866211,-184.73947143554688
0,676690,37.146121978759766,1.6091400384902954,65.10152435302734,-118.22659301757812
0,676692,56.55799102783203,15.116144180297852,-85.3589859008789,8.58749008178711
0,676694,15.617151260375977,-22.708480834960938,-60.47349548339844,-69.53877258300781
0,676696,-78.4731674194336,1.722416639328003,24.985750198364258,63.50592041015625
0,676698,-12.171934127807617,-10.748836517333984,-14.316869735717773,166.9073028564453
0,676700,9.72085189819336,6.789291858673096,-2.649958372116089,62.935909271240234
0,676702,-55.89571762084961,28.782154083251953,25.546279907226562,21.561735153198242
0,676704,25.431184768676758,0.4264940023422241,-34.558963775634766,6.237349033355713
0,676706,40.05149459838867,-7.960788249969482,-16.081966400146484,-3.4703257083892822
0,676859,147.08245849609375,-3.100215435028076,184.04795837402344,-146.22447204589844
0,676860,161.34100341796875,17.19898796081543,109.43152618408203,-40.28544616699219
0,676860,-117.7464370727539,-6.426732540130615,-171.53594970703125,236.09036254882812
0,676860,-83.89972686767578,-20.412391662597656,-58.423770904541016,62.964237213134766
0,676860,44.670249938964844,12.327101707458496,60.95707321166992,-144.50807189941406
0,676860,-12.526620864868164,3.7752010822296143,-23.96859359741211,-121.93634033203125
0,676860,-41.63691329956055,-8.058309555053711,-18.598323822021484,-85.6746826171875
0,676861,-53.255558013916016,-26.524080276489258,-17.523571014404297,-55.016876220703125
0,676861,-61.84492492675781,-31.318424224853516,-52.77778625488281,14.737186431884766
0,676861,-84.36451721191406,17.114395141601562,-54.97461700439453,90.47610473632812
0,676861,-89.33134460449219,16.30261993408203,-51.77302551269531,97.67619323730469
0,676861,-31.620834350585938,0.5276511907577515,-45.8077392578125,92.4096908569336
0,676861,5.92290735244751,14.055695533752441,-22.325088500976562,88.2856674194336
0,676862,-13.839045524597168,-4.818014144897461,23.316997528076172,13.7766695022583
0,676862,29.476104736328125,-13.399794578552246,45.9333381652832,-92.82840728759766
0,676862,80.19529724121094,0.5105816721916199,44.71905517578125,-109.63093566894531
0,676862,34.123111724853516,-5.221369743347168,52.01939392089844,-80.96949005126953
0,676862,23.65381622314453,-5.076343536376953,36.618289947509766,-57.62101745605469
0,676862,49.49935531616211,6.8454813957214355,-8.741616249084473,-0.703133761882782
0,676863,-10.852871894836426,4.5374321937561035,-6.511780261993408,37.06370544433594
0,676863,-41.9859504699707,-7.956444263458252,13.000173568725586,44.600486755371094
0,676863,-11.094947814941406,-8.29041576385498,-15.848554611206055,63.1181640625
0,676863,1.9940105676651,8.361456871032715,-6.164664268493652,67.3113021850586
0,676863,15.987305641174316,3.2738826274871826,20.60936737060547,8.823278427124023
0,676864,-1.0595849752426147,4.81003475189209,25.972684860229492,-50.451873779296875
0,676864,31.60494041442871,8.011798858642578,34.61249542236328,-50.98665237426758
0,676864,57.17599105834961,-0.8058030009269714,10.463736534118652,-30.7043399810791
0,676864,4.850680828094482,22.02853012084961,-16.141416549682617,-32.65519714355469
0,676864,6.985769271850586,8.070180892944336,-0.36371493339538574,-28.41983985900879
0,676864,-2.1364521980285645,-23.815576553344727,0.4601753056049347,18.3238468170166
0,676865,-29.554712295532227,10.471372604370117,-6.055140018463135,63.864620208740234
0,676865,14.26919937133789,28.923131942749023,-3.599630832672119,36.39945983886719
0,676865,11.600420951843262,-1.434593677520752,-20.165996551513672,-7.423191547393799
0,676865,-36.314701080322266,3.800063133239746,3.579403877258301,6.174777507781982
0,676865,4.248314380645752,5.404569625854492,30.81755828857422,-18.200441360473633
0,676865,23.27764320373535,-12.077333450317383,12.94421100616455,-43.04771041870117
0,676866,1.2145977020263672,9.292390823364258,2.5755856037139893,-22.656574249267578
0,676866,17.010522842407227,-14.646944999694824,6.7868475914001465,-35.22037124633789
0,676866,-19.81357765197754,-24.833202362060547,-11.087142944335938,-34.8787956237793
0,676866,-39.165470123291016,-10.41528034210205,-43.41968536376953,17.77288246154785
0,676866,-4.968173980712891,-19.351289749145508,-15.873896598815918,63.610870361328125
0,676866,-7.464529514312744,15.91714096069336,6.462194442749023,26.296892166137695
0,676867,1.288082242012024,13.490263938903809,-14.52949333190918,-28.009830474853516
0,676867,17.714292526245117,-17.49144744873047,0.7525259852409363,-3.1974148750305176
0,676867,19.962215423583984,-23.515323638916016,7.20175313949585,-0.39303964376449585
0,676867,17.787405014038086,4.755144119262695,3.8421974182128906,-32.154972076416016
0,676867,18.805118560791016,34.67387008666992,6.3820695877075195,-19.64573097229004
0,676867,14.185744285583496,9.688385009765625,-11.301170349121094,-1.526459813117981
0,676868,18.912708282470703,-27.49573516845703,-21.29683494567871,-1.2626824378967285
0,676868,3.7474441528320312,-6.359243392944336,-14.780692100524902,15.530841827392578
0,676868,-40.338417053222656,15.815155982971191,11.6765718460083,31.882646560668945
0,676868,8.512507438659668,-6.143064975738525,10.337187767028809,17.83721160888672
0,676868,22.217397689819336,0.29849502444267273,-19.15815544128418,-5.721832752227783
0,676868,-63.445011138916016,-2.639639377593994,7.118113994598389,15.785223007202148
0,676869,-32.29520797729492,-6.954516410827637,19.055246353149414,13.050542831420898
0,676869,22.58896255493164,2.5820140838623047,13.410802841186523,-15.577141761779785
0,676869,-21.56346321105957,2.1575610637664795,12.788626670837402,11.699108123779297
0,676869,-6.3725433349609375,11.296974182128906,-2.999112367630005,-4.112317085266113
0,676869,23.542142868041992,4.723282814025879,8.499859809875488,-30.692392349243164
0,676870,-14.24746036529541,-10.697358131408691,0.2239469587802887,9.806352615356445
0,676870,-21.219711303710938,5.430755615234375,-0.4715668261051178,23.098302841186523
0,676870,-1.3794420957565308,9.290690422058105,12.81667423248291,-7.150906085968018
0,676870,3.040472984313965,-26.99518394470215,5.521901607513428,-8.854619979858398
0,676870,21.681066513061523,11.65511703491211,-10.326370239257812,-5.291685104370117
0,676870,14.121636390686035,34.071475982666016,-1.5695531368255615,-10.239629745483398
0,676871,-10.529854774475098,-16.689693450927734,0.30014413595199585,-5.653932094573975
0,676871,-2.865851879119873,-4.268741607666016,-29.05581283569336,1.0165430307388306
0,676871,-5.170291423797607,2.6109659671783447,5.359926700592041,-6.508510589599609
0,676871,2.0294578075408936,-18.771533966064453,8.182687759399414,-17.264347076416016
0,676871,6.8338751792907715,5.311492443084717,-40.33534622192383,5.896977424621582
0,676871,-19.532758712768555,9.959628105163574,-7.18113899230957,1.638975977897644
0,676872,-19.727203369140625,-15.281420707702637,7.01455545425415,-7.228239059448242
0,676872,8.14215087890625,2.1702942848205566,-2.404092788696289,21.00680160522461
0,676872,26.040084838867188,6.558460235595703,25.513507843017578,-9.23811149597168
0,676872,22.168832778930664,-13.419912338256836,2.783574104309082,-25.181148529052734
0,676872,-0.7374318242073059,2.4139480590820312,-7.297867774963379,24.034269332885742
0,676872,4.394039630889893,19.009689331054688,4.383703231811523,13.242982864379883
0,676874,49.16330337524414,3.2315244674682617,-6.42768669128418,-26.837621688842773
0,676874,14.044295310974121,-19.225584030151367,4.626676082611084,25.76570701599121
0,676874,-46.380184173583984,6.958643913269043,17.08994483947754,72.32427978515625
0,676874,-6.381281852722168,26.828500747680664,-1.0150010585784912,14.414963722229004
0,676874,-0.83912593126297,5.485691547393799,-6.209386825561523,-1.1153719425201416
0,676875,-19.718103408813477,3.712986946105957,10.006539344787598,16.273967742919922
0,676875,-2.1093246936798096,-20.03274917602539,-16.379854202270508,1.9144750833511353
0,676876,-36.767982482910156,-11.384984016418457,-49.77313995361328,42.65212631225586
0,676877,-39.66057586669922,20.42378044128418,-38.66331100463867,101.57498168945312
0,676880,-69.90188598632812,12.38866901397705,64.3871078491211,146.37744140625
0,676881,-28.677133560180664,-17.772632598876953,17.125690460205078,44.00459289550781
0,676884,186.42416381835938,-17.790952682495117,-102.81703186035156,-27.852333068847656
0,676885,82.6275405883789,11.929286003112793,26.46737289428711,-12.094586372375488
0,676888,-131.4793243408203,1.7971718311309814,112.00006866455078,-324.7671813964844
0,676889,-9.570833206176758,6.670563697814941,28.637052536010742,-311.3182678222656
0,676892,144.69119262695312,-20.643754959106445,-23.465490341186523,5.303400039672852
0,676893,33.65476989746094,-49.64583206176758,17.880807876586914,-36.392601013183594
0,676896,-134.2055206298828,8.349855422973633,-9.116758346557617,97.25556945800781
0,676897,-13.973295211791992,57.19491195678711,-40.36330032348633,211.01229858398438
0,676900,9.597101211547852,14.037992477416992,5.087095260620117,119.36840057373047
0,676901,-54.54983901977539,-49.884681701660156,-30.367443084716797,51.44011306762695
0,676904,111.84705352783203,-19.912477493286133,-51.00238037109375,4.3101725578308105
0,676905,5.732371807098389,47.93617248535156,42.9996452331543,-19.200119018554688
0,676908,-129.18356323242188,28.265213012695312,125.2108154296875,-185.01962280273438
0,676909,25.63935089111328,-15.821070671081543,-15.635183334350586,-79.11337280273438
0,676912,43.51753234863281,-13.809300422668457,-128.5720672607422,21.290102005004883
0,676914,30.706388473510742,-16.332256317138672,43.43616485595703,-112.47230529785156
0,676916,114.20906066894531,-1.9814759492874146,55.737770080566406,66.45954895019531
0,676918,-76.97675323486328,36.617916107177734,-77.30863952636719,182.14964294433594
0,676920,-213.26048278808594,-11.370708465576172,-27.601966857910156,28.571044921875
0,676922,61.12307357788086,-28.30084228515625,34.945648193359375,20.565658569335938
0,677086,113.40071105957031,57.69181442260742,44.02986526489258,1.3131746053695679
0,677086,-9.396878242492676,25.736656188964844,0.8584060668945312,-75.67278289794922
0,677086,-38.74751281738281,-34.584228515625,-45.99660110473633,76.693359375
0,677086,-31.612117767333984,-14.496501922607422,-12.825128555297852,139.0306854248047
0,677087,17.61341094970703,9.42486572265625,-9.886180877685547,9.244498252868652
0,677087,9.047282218933105,-10.359452247619629,-7.160539627075195,-52.54109191894531
0,677087,-8.859514236450195,-17.725872039794922,31.60200309753418,-101.74945068359375
0,677087,22.752586364746094,11.74195384979248,41.87138366699219,-152.9061279296875
0,677087,40.83116149902344,-24.028345108032227,9.307539939880371,-126.59896087646484
0,677087,-9.588302612304688,-33.62553024291992,-23.39862632751465,-72.193359375
0,677088,-20.44757652282715,10.099664688110352,11.636634826660156,-7.868156433105469
0,677088,2.845313310623169,3.810603618621826,18.988971710205078,70.93476104736328
0,677088,7.416309356689453,9.137957572937012,-38.91068649291992,114.2047119140625
0,677088,18.712995529174805,17.2244873046875,-24.29831314086914,90.93348693847656
0,677088,1.2305537462234497,-21.190832138061523,1.217918872833252,47.272178649902344
0,677089,7.420042037963867,-10.597818374633789,-1.5050692558288574,19.812685012817383
0,677089,31.178544998168945,32.396263122558594,36.466552734375,-36.584983825683594
0,677089,20.04220962524414,24.818893432617188,20.36369514465332,-88.22960662841797
0,677089,-0.2660069763660431,-4.516019344329834,-5.45853853225708,-76.88944244384766
0,677089,-11.155919075012207,-7.184568881988525,21.608217239379883,-31.587560653686523
0,677089,-15.925610542297363,-8.514705657958984,-3.075336456298828,27.928232192993164
0,677090,-45.62017059326172,6.295515537261963,-28.287147521972656,62.904747009277344
0,677090,-30.2436580657959,29.028202056884766,-0.3292020559310913,48.828697204589844
0,677090,-4.588047981262207,-4.416351795196533,-7.023768901824951,52.62668228149414
0,677090,-28.359222412109375,-18.091938018798828,-22.17489242553711,58.63070297241211
0,677090,-14.599932670593262,9.467972755432129,11.440229415893555,-2.404186248779297
0,677090,11.994636535644531,4.874539375305176,32.821781158447266,-64.48320770263672
0,677091,11.58763599395752,-11.563493728637695,4.0627617835998535,-35.95244216918945
0,677091,5.502017974853516,-6.810325622558594,-4.882071018218994,-27.184656143188477
0,677091,-5.303431510925293,-14.987764358520508,3.3442139625549316,-48.636104583740234
0,677091,2.7433481216430664,-20.883996963500977,-18.518367767333984,-13.483803749084473
0,677091,13.85724925994873,-11.008150100708008,-13.527846336364746,15.361595153808594
0,677091,-10.816475868225098,15.010705947875977,16.851675033569336,25.03824234008789
0,677092,-13.494099617004395,24.19324493408203,7.90290641784668,41.969879150390625
0,677092,26.520004272460938,-6.052115440368652,-4.804830074310303,42.43556213378906
0,677092,11.200274467468262,-2.062147855758667,16.26388168334961,7.851320743560791
0,677092,-3.0136334896087646,23.12210464477539,6.697365760803223,-35.665672302246094
0,677092,28.254009246826172,22.3900203704834,-15.722563743591309,-45.54708480834961
0,677092,0.5758004784584045,-6.03896427154541,-4.300185203552246,-32.29454803466797
0,677093,-22.463722229003906,-18.669931411743164,9.194354057312012,-5.836482524871826
0,677093,25.082843780517578,2.254940986633301,-0.752656102180481,14.888856887817383
0,677093,25.500167846679688,3.5451905727386475,-26.288665771484375,14.625200271606445
0,677093,-13.288818359375,-18.969837188720703,-19.310815811157227,36.67234802246094
0,677093,8.737135887145996,-4.704917907714844,6.531818866729736,49.59356689453125
0,677093,21.453777313232422,6.699582099914551,-6.0583014488220215,13.318954467773438
0,677094,1.8453114032745361,4.008698463439941,-32.23963928222656,-10.551838874816895
0,677094,-11.498491287231445,-8.440940856933594,-11.369133949279785,5.061774730682373
0,677094,-35.03630447387695,-17.776185989379883,20.16489601135254,12.364879608154297
0,677094,-22.6224422454834,15.110031127929688,15.682764053344727,-29.33072280883789
0,677094,9.188776016235352,-10.309160232543945,-14.485161781311035,-36.957672119140625
0,677094,-15.480542182922363,-11.248085021972656,5.660316467285156,23.60679817199707
0,677095,-26.420204162597656,32.654293060302734,8.577853202819824,24.020750045776367
0,677095,-6.114749908447266,-6.889443874359131,-44.20000076293945,3.788317918777466
0,677095,-16.637493133544922,-28.745878219604492,15.190784454345703,17.326072692871094
0,677095,7.335363864898682,18.195302963256836,33.13317108154297,-2.7882368564605713
0,677095,22.9483585357666,26.693992614746094,-28.066865921020508,-4.5534281730651855
0,677095,-16.7449951171875,-3.925313949584961,6.325222015380859,20.963584899902344
0,677096,8.425002098083496,-10.152528762817383,18.611848831176758,-16.715187072753906
0,677096,24.679807662963867,-14.73790168762207,-3.7631642818450928,-32.79962921142578
0,677096,-17.882619857788086,2.945173501968384,6.486913681030273,-5.739402770996094
0,677096,11.199530601501465,19.972900390625,-8.407866477966309,-9.56765365600586
0,677096,20.563518524169922,0.4673360288143158,-8.404646873474121,13.817688941955566
0,677097,-24.090784072875977,-6.396759510040283,27.03730583190918,23.874814987182617
0,677097,10.457305908203125,-1.7893491983413696,-6.148730278015137,-1.8711185455322266
0,677097,29.35565185546875,-4.336536884307861,-22.977264404296875,19.82305335998535
0,677097,-11.647189140319824,12.685050964355469,29.99433135986328,21.81902313232422
0,677097,2.5006167888641357,30.8785343170166,11.368069648742676,-10.516218185424805
0,677097,6.242330074310303,-25.693334579467773,-14.182143211364746,-6.165560245513916
0,677098,-8.783839225769043,-31.259876251220703,-3.878962516784668,-11.693774223327637
0,677098,3.0777814388275146,28.30927276611328,-10.60688304901123,-16.072975158691406
0,677098,-2.8823533058166504,2.345345973968506,-4.2275800704956055,1.9136565923690796
0,677098,-1.2664679288864136,-34.55727767944336,17.26464080810547,24.332843780517578
0,677098,6.993348598480225,0.7378301620483398,19.734905242919922,25.29970359802246
0,677098,2.2349343299865723,10.90120792388916,-8.374366760253906,-3.1648027896881104
0,677099,2.5317485332489014,-8.903125762939453,-0.2656031847000122,1.1966036558151245
0,677099,11.944572448730469,24.60738754272461,6.309710502624512,-11.422544479370117
0,677099,8.79245376586914,10.264524459838867,-12.982219696044922,-22.726421356201172
0,677099,-13.668386459350586,-34.04948043823242,-0.8203041553497314,13.547209739685059
0,677099,-1.254215955734253,8.817628860473633,-0.8429447412490845,-2.642106533050537
0,677099,17.554338455200195,40.900508880615234,-5.067354202270508,-14.97799301147461
0,677100,-8.246430397033691,0.5015863180160522,7.600765705108643,-4.641524791717529
0,677100,-15.276644706726074,-22.182857513427734,-2.1326608657836914,-14.599180221557617
0,677101,-46.113990783691406,0.9170174598693848,-16.35874366760254,41.94049835205078
0,677101,-45.25868225097656,-12.697826385498047,-14.433613777160645,56.65048599243164
0,677101,17.513797760009766,-19.991159439086914,7.1407270431518555,-36.7657585144043
0,677102,9.071075439453125,6.5807390213012695,6.2056193351745605,-36.21192169189453
0,677102,-10.811887741088867,3.103536367416382,-7.815517902374268,19.695026397705078
0,677102,19.16611099243164,9.077827453613281,9.713565826416016,-10.578707695007324
0,677102,28.979572296142578,0.8212891221046448,5.6990203857421875,-28.523595809936523
0,677103,3.601285219192505,1.7979867458343506,20.095861434936523,33.51792907714844
0,677103,0.29951950907707214,26.351953506469727,11.207961082458496,8.282341003417969
0,677106,-7.419640064239502,13.866484642028809,105.36637878417969,-176.48927307128906
0,677108,0.42797592282295227,-7.606685161590576,115.50881958007812,-169.01416015625
0,677110,78.61883544921875,-32.873905181884766,-149.8920440673828,-47.07865524291992
0,677112,60.20207977294922,-16.913957595825195,-104.92353057861328,-45.44890594482422
0,677114,-9.731525421142578,20.418581008911133,151.16819763183594,27.992109298706055
0,677116,-14.92028522491455,17.606002807617188,29.6175594329834,96.93385314941406
0,677118,-132.8391876220703,-4.407663822174072,-231.52908325195312,190.20697021484375
0,677120,-77.28700256347656,-11.550603866577148,-104.29473114013672,188.47042846679688
0,677122,93.2416763305664,5.750820636749268,101.78730010986328,105.59757232666016
0,677124,-11.655377388000488,-19.70090103149414,36.107547760009766,75.89324951171875
0,677126,16.508073806762695,20.53471565246582,81.6200180053711,-128.48239135742188
0,677128,111.7697982788086,11.063034057617188,44.41443634033203,-214.28298950195312
0,677130,-67.39094543457031,-55.416507720947266,-156.93299865722656,-111.6011734008789
0,677132,-109.39088439941406,8.327890396118164,17.069475173950195,-34.561309814453125
0,677134,86.83018493652344,26.346532821655273,117.23917388916016,8.207173347473145
0,677136,42.13943099975586,2.1840579509735107,-55.16877365112305,23.18292999267578
0,677138,-125.14840698242188,-27.2626953125,-32.43639373779297,170.93389892578125
0,677140,-24.741262435913086,-23.454172134399414,24.146215438842773,138.87103271484375
0,677142,92.59624481201172,27.365793228149414,-55.46693420410156,3.898115634918213
0,677144,29.752424240112305,30.981264114379883,-44.910884857177734,28.916610717773438
0,677147,59.01927185058594,12.345525741577148,112.24877166748047,-113.31753540039062
0,677148,-18.432218551635742,17.955312728881836,89.38912200927734,-134.58790588378906
0,677151,-95.65882873535156,-1.5552914142608643,-96.75434875488281,-44.68442916870117
1,678609,41.77184295654297,-42.23298263549805,-48.575340270996094,-31.916996002197266
1,678612,-16.018117904663086,-12.934270858764648,69.30111694335938,18.712196350097656
1,678613,11.193031311035156,27.686290740966797,4.82878303527832,-5.839832305908203
1,678616,75.75283813476562,-9.84997844696045,-43.62777328491211,102.35363006591797
1,678617,-32.51964569091797,-25.362905502319336,-4.934020519256592,104.29212951660156
1,678620,-99.70728302001953,23.783950805664062,5.1021575927734375,-19.107154846191406
1,678621,-49.797935485839844,22.758089065551758,-35.63890838623047,67.41140747070312
1,678631,106.4501953125,-18.284936904907227,82.32039642333984,-371.1307678222656
1,678632,64.07971954345703,-30.91321563720703,91.84101104736328,-350.4726867675781
1,678632,-74.68352508544922,20.38111114501953,-107.81906127929688,486.2897033691406
1,678632,-32.933326721191406,14.885299682617188,-63.35624313354492,282.2248840332031
1,678632,20.19989585876465,-5.9302592277526855,53.21126937866211,-139.0166778564453
1,678633,-0.6083725690841675,-2.3165297508239746,-8.132125854492188,-43.87944030761719
1,678636,-7.213768005371094,-13.390457153320312,-61.16658020019531,62.25514602661133
1,678637,28.390012741088867,14.294729232788086,7.8562798500061035,50.65452194213867
1,678640,6.6603899002075195,-14.268813133239746,37.704986572265625,-7.064580917358398
1,678641,-31.021728515625,-6.419727802276611,-22.929189682006836,112.46263122558594
1,678644,49.69948959350586,24.8171443939209,-15.307271003723145,-51.4019660949707
1,678645,12.972203254699707,-5.622494220733643,34.22318649291992,-150.70713806152344
1,678648,-91.86299896240234,-1.1708406209945679,2.900263786315918,10.084512710571289
1,678649,5.540021896362305,19.86391830444336,-3.5757908821105957,-17.390840530395508
1,678652,62.328670501708984,-13.027813911437988,57.86533737182617,-94.1478042602539
1,678654,105.13508605957031,-31.95711326599121,25.297208786010742,-65.98725891113281
1,678677,-15.710169792175293,35.29731369018555,-64.15149688720703,123.8520278930664
1,678677,-176.7791290283203,30.400297164916992,-17.323932647705078,16.938003540039062
1,678677,38.888832092285156,-49.26399612426758,39.44071578979492,-211.00791931152344
1,678677,53.6397590637207,-15.889156341552734,-28.670440673828125,23.685670852661133
1,678677,-54.753334045410156,29.97185707092285,-49.292606353759766,203.92898559570312
1,678677,-7.990843296051025,-22.04607391357422,-33.12434768676758,162.97157287597656
1,678678,-4.859331130981445,-9.761661529541016,-13.641109466552734,133.61097717285156
1,678678,4.249899387359619,47.782440185546875,28.693246841430664,32.163047790527344
1,678678,-0.28871816396713257,-10.081634521484375,24.463455200195312,-93.21019744873047
1,678678,16.548721313476562,-23.80491828918457,29.27179527282715,-129.11465454101562
1,678678,22.333261489868164,26.38004493713379,61.97488021850586,-124.94668579101562
1,678680,-0.4063664972782135,11.917861938476562,20.61648178100586,-68.36099243164062
1,678680,15.641992568969727,-12.383793830871582,-32.07649612426758,-9.705365180969238
1,678682,6.9150824546813965,-23.270648956298828,-8.941679000854492,13.202553749084473
1,678684,-4.636135101318359,19.187000274658203,14.284807205200195,21.680076599121094
1,678687,44.961273193359375,1.2551082372665405,20.33906364440918,-116.2589111328125
1,678688,19.775285720825195,-35.0963020324707,-4.264408111572266,-67.88257598876953
1,678691,-55.91868209838867,20.03156852722168,18.652833938598633,42.304603576660156
1,678692,-35.56353759765625,20.471410751342773,66.47000122070312,-40.52069854736328
1,678695,6.17360782623291,-22.06892204284668,-99.86018371582031,105.23806762695312
1,678696,-3.241626262664795,-5.1175618171691895,-130.1829376220703,149.88043212890625
1,678699,-1.1051584482192993,17.93697166442871,57.21309280395508,16.655811309814453
1,678700,17.29195213317871,-13.885688781738281,24.283599853515625,51.29474639892578
1,678701,15.588871002197266,10.365208625793457,-42.3126106262207,80.55289459228516
1,678816,-63.36098861694336,-19.11425018310547,-31.303720474243164,170.27767944335938
1,678816,-22.53126335144043,-10.276566505432129,-35.038089752197266,119.08753967285156
1,678816,66.50570678710938,15.497570037841797,64.20012664794922,-137.68194580078125
1,678817,52.02607727050781,6.340703010559082,42.38566207885742,-157.5477294921875
1,678817,23.84488868713379,-30.786958694458008,-19.72390365600586,-93.26288604736328
1,678817,-19.597314834594727,-11.883153915405273,-19.999839782714844,-23.79469108581543
1,678817,-40.14950942993164,25.779417037963867,-21.14643096923828,75.5093765258789
1,678817,-2.4904093742370605,-0.27700719237327576,-32.00654983520508,112.75144958496094
1,678817,7.6841511726379395,12.390971183776855,-30.70547866821289,107.99898529052734
1,678818,-6.3850812911987305,27.61271858215332,-18.774660110473633,60.49458312988281
1,678818,-0.6672990322113037,-8.525140762329102,-14.176339149475098,15.734601020812988
1,678818,4.874286651611328,-16.503429412841797,39.923431396484375,-23.723073959350586
1,678818,1.9636518955230713,-0.5669499039649963,44.50727462768555,-102.18611907958984
1,678818,34.98461151123047,-17.837051391601562,5.0018720626831055,-90.46880340576172
1,678818,18.172285079956055,6.1604766845703125,21.163375854492188,-23.123737335205078
1,678819,-29.684284210205078,48.8057746887207,5.545953273773193,-48.794158935546875
1,678819,-24.427671432495117,-19.27820587158203,-21.300294876098633,-2.316187858581543
1,678819,-14.344670295715332,-37.047515869140625,-25.204113006591797,107.41617584228516
1,678819,-1.5491551160812378,-4.646409034729004,-6.743163585662842,92.05558776855469
1,678819,0.9978922009468079,17.48838996887207,11.712286949157715,45.84273147583008
1,678820,7.3037495613098145,34.623775482177734,-9.35577392578125,16.83412742614746
1,678820,22.152671813964844,-22.505413055419922,-14.964879989624023,-27.243595123291016
1,678820,-2.8102691173553467,-6.966268539428711,14.333621978759766,-63.69283676147461
1,678820,5.658014297485352,32.4553337097168,41.66423797607422,-58.336605072021484
1,678821,47.02103805541992,-16.71576690673828,45.92132568359375,10.239694595336914
1,678821,36.96078872680664,-28.51247215270996,31.300296783447266,7.744894504547119
1,678822,-9.239775657653809,-3.3367018699645996,-28.203454971313477,-35.459205627441406
1,678824,-58.813575744628906,-6.849932670593262,-14.861773490905762,-114.92337799072266
1,678826,-37.113529205322266,10.721756935119629,38.17413330078125,-138.00137329101562
1,678828,-11.610746383666992,4.962172031402588,-20.39769172668457,-33.85203170776367
1,678830,-6.4138007164001465,-31.769832611083984,-34.8494987487793,-35.83944320678711
1,678832,40.87364196777344,7.480775833129883,26.695449829101562,10.12921142578125
1,678834,-5.977320194244385,24.55620765686035,-2.3869540691375732,144.945556640625
1,678836,-46.76480484008789,-7.834043979644775,-90.96511840820312,231.833984375
1,678838,-5.647708415985107,16.813446044921875,-25.661937713623047,110.84434509277344
1,678840,-19.823564529418945,24.643781661987305,35.19661331176758,14.85200023651123
1,678842,6.707258224487305,4.523247241973877,-4.977300643920898,85.74674987792969
1,678844,108.48433685302734,-19.16250228881836,17.846189498901367,-139.88345336914062
1,678846,43.67422866821289,-16.535255432128906,27.384580612182617,-209.82852172851562
1,678847,-76.7195053100586,24.169668197631836,0.24497678875923157,41.060176849365234
1,678906,-19.406301498413086,-2.3949625492095947,-12.686606407165527,171.80795288085938
1,678906,29.393388748168945,-7.46590518951416,14.815530776977539,85.80101013183594
1,678906,-2.4736733436584473,17.904850006103516,14.80403995513916,-174.75184631347656
1,678906,-6.898260116577148,-11.612480163574219,4.747396945953369,-178.27394104003906
1,678906,5.909511566162109,-12.74000072479248,20.492713928222656,-54.7733039855957
1,678906,-14.382607460021973,-3.2915139198303223,-14.386113166809082,-25.564586639404297
1,678907,-30.355003356933594,-15.533814430236816,-31.976598739624023,50.4632568359375
1,678907,0.9187568426132202,-2.1221392154693604,-10.537091255187988,93.41561126708984
1,678907,20.14967155456543,12.162999153137207,-5.041924476623535,97.4443130493164
1,678907,-19.534549713134766,13.192169189453125,-19.524511337280273,56.789676666259766
1,678907,-9.049981117248535,-9.09193229675293,1.2659540176391602,0.533791184425354
1,678907,32.12191390991211,-20.145286560058594,53.298316955566406,-17.482345581054688
1,678908,-5.5756964683532715,-2.3386714458465576,-1.2982343435287476,-74.12759399414062
1,678908,-8.508490562438965,6.12534761428833,-16.34196662902832,-81.80887603759766
1,678908,20.791275024414062,11.676177978515625,31.29953956604004,-28.231748580932617
1,678908,11.308289527893066,0.974299967288971,-16.9755859375,-29.9112491607666
1,678908,-18.048595428466797,-17.426504135131836,-11.511563301086426,30.712875366210938
1,678908,-30.740825653076172,5.682126522064209,13.740330696105957,89.93434143066406
1,678909,8.999237060546875,5.599876403808594,-30.544925689697266,36.11870193481445
1,678909,18.295637130737305,-4.262139797210693,-20.898563385009766,17.184629440307617
1,678909,-5.1853437423706055,17.604333877563477,26.906740188598633,30.23957633972168
1,678909,9.531071662902832,-7.997592926025391,4.74350118637085,-21.287504196166992
1,678909,19.698110580444336,-1.2108960151672363,-18.515954971313477,-64.96676635742188
1,678909,-1.4308346509933472,12.097601890563965,4.927412509918213,-60.631141662597656
1,678910,-6.1526265144348145,-18.12083625793457,-4.271288871765137,-30.3629150390625
1,678910,-25.057781219482422,-17.407554626464844,-2.7295584678649902,13.776690483093262
1,678910,2.669205904006958,8.260649681091309,14.920719146728516,51.08304977416992
1,678910,45.71686935424805,26.07904052734375,-34.867713928222656,39.634498596191406
1,678910,-18.54507064819336,14.648307800292969,-16.937482833862305,9.581170082092285
1,678912,-5.69846773147583,0.496214359998703,40.965572357177734,43.94511032104492
1,678912,12.098047256469727,-7.629675388336182,-7.379297256469727,37.92995834350586
1,678912,-35.45936584472656,4.719979286193848,-8.988235473632812,-22.922775268554688
1,678913,3.6603732109069824,-0.2299928367137909,15.524406433105469,31.97051429748535
1,678916,-55.09493637084961,-41.35045623779297,-63.866188049316406,177.5736541748047
1,678917,-46.52128219604492,9.527722358703613,-45.81486129760742,117.16063690185547
1,678920,62.88812255859375,56.09614181518555,53.43721008300781,12.539810180664062
1,678921,-17.540878295898438,-21.110595703125,40.166236877441406,22.7581787109375
1,678924,66.42296600341797,-37.010066986083984,54.77080535888672,-192.13223266601562
1,678925,92.26311492919922,27.481800079345703,37.20161819458008,-252.53726196289062
1,678928,-103.07847595214844,25.31722640991211,-20.01809310913086,-122.96928405761719
1,678929,-28.389041900634766,-36.30767059326172,-14.80234432220459,-115.44161224365234
1,678932,43.58332061767578,-51.32402038574219,-5.741776466369629,7.033544063568115
1,678933,-30.277141571044922,-4.488927841186523,47.35472106933594,120.76496124267578
1,678996,7.310786724090576,43.256500244140625,-37.88256072998047,201.83303833007812
1,678997,51.67149353027344,43.444786071777344,-83.4023666381836,72.228515625
1,678997,-1.3668714761734009,-5.258386135101318,49.729957580566406,-172.3839874267578
1,678997,-21.388227462768555,-37.83605194091797,-5.506007671356201,-36.696563720703125
1,678997,-22.1727352142334,-18.229211807250977,-43.616676330566406,145.50767517089844
1,678997,-30.434829711914062,23.84393882751465,14.195479393005371,125.5710220336914
1,678997,3.269383668899536,14.1176176071167,-8.496575355529785,50.46896743774414
1,678998,10.257706642150879,-2.9753687381744385,0.4764867126941681,0.9534227252006531
1,678998,22.33560562133789,-3.2572669982910156,20.699567794799805,-54.05199432373047
1,678998,31.511253356933594,2.954773426055908,19.713851928710938,-117.73411560058594
1,678998,-9.351920127868652,5.354307174682617,11.314278602600098,-100.45112609863281
1,678998,-27.299217224121094,-34.08279800415039,16.857580184936523,-71.56932067871094
1,678998,-22.181339263916016,-1.157755970954895,8.935515403747559,-29.786012649536133
1,678999,-6.330179214477539,29.383132934570312,-22.963268280029297,27.817506790161133
1,678999,5.560327529907227,-14.006150245666504,-36.25054931640625,64.99109649658203
1,678999,-9.695982933044434,-7.73847770690918,-15.600310325622559,93.25241088867188
1,678999,14.822077751159668,13.46584415435791,2.5692648887634277,56.32195281982422
1,678999,12.870722770690918,12.536069869995117,4.33612585067749,21.090232849121094
1,679000,-10.479436874389648,12.016169548034668,16.082643508911133,2.712036371231079
1,679000,22.61487579345703,10.011824607849121,17.3699951171875,-68.47035217285156
1,679000,17.884361267089844,-2.9726269245147705,16.579326629638672,-73.89803314208984
1,679000,-8.05347728729248,-12.01700210571289,1.186803936958313,-30.006864547729492
1,679000,0.2706332802772522,-8.750533103942871,8.480207443237305,-12.535780906677246
1,679000,-3.019779920578003,2.8601415157318115,3.7631678581237793,17.764141082763672
1,679001,-7.29042387008667,16.647262573242188,-17.681995391845703,33.8076171875
1,679001,12.393926620483398,-6.237478733062744,5.40898323059082,24.557483673095703
1,679001,-3.0292372703552246,-27.389108657836914,-2.8004651069641113,36.34765625
1,679001,-3.9483866691589355,9.289266586303711,-18.891502380371094,23.007600784301758
1,679001,18.17725944519043,20.585453033447266,9.309547424316406,-34.90067672729492
1,679001,-4.079119682312012,-14.124410629272461,11.529596328735352,-53.696311950683594
1,679002,-7.199676513671875,-13.357855796813965,-16.24736976623535,-41.97549057006836
1,679003,16.77046012878418,1.9952083826065063,18.724000930786133,-67.30715942382812
1,679003,21.278669357299805,-2.0749471187591553,30.47545051574707,-58.215091705322266
1,679003,-18.758913040161133,-5.725964069366455,-10.786992073059082,30.326717376708984
1,679005,10.300220489501953,1.1254023313522339,2.5806949138641357,-9.006865501403809
1,679006,25.956256866455078,21.222814559936523,4.463484764099121,-80.5016860961914
1,679007,-50.44975662231445,-16.70660400390625,-4.912942409515381,-5.974859714508057
1,679010,-77.25150299072266,-45.017086029052734,-8.440184593200684,-79.37505340576172
1,679011,-42.92219924926758,31.001554489135742,-16.640090942382812,-63.37700271606445
1,679014,46.00188446044922,17.0920467376709,-89.73490142822266,285.0558776855469
1,679015,61.12263870239258,-30.730369567871094,-92.16663360595703,252.1903839111328
1,679018,-28.980934143066406,27.34248924255371,83.43843841552734,19.677370071411133
1,679019,-36.06582260131836,33.49126434326172,76.68136596679688,73.88882446289062
1,679022,56.04668426513672,-18.69477081298828,-6.515041828155518,27.964689254760742
1,679023,51.126129150390625,-12.714639663696289,24.619112014770508,-105.19256591796875
1,679026,-25.38761329650879,14.996150970458984,69.92137908935547,-197.70867919921875
1,679027,-53.66218566894531,3.8264927864074707,15.720006942749023,-99.79694366455078
1,679030,10.749131202697754,-17.722461700439453,-133.4785919189453,8.675033569335938
1,679031,68.45463562011719,-18.485965728759766,-44.49415588378906,-74.44495391845703
1,679034,37.18570327758789,13.084853172302246,79.93409729003906,95.05579376220703
1,679035,-16.85087776184082,29.53147315979004,37.452354431152344,182.2899169921875
1,679111,-3.7964744567871094,-9.986461639404297,75.66849517822266,-289.99420166015625
1,679111,23.764625549316406,-35.7033805847168,27.892040252685547,-302.2499084472656
1,679111,-61.7301025390625,-6.185940265655518,-107.23339080810547,233.6629638671875
1,679111,-37.485084533691406,17.842884063720703,-51.68806457519531,195.00030517578125
1,679111,26.68480110168457,8.703094482421875,18.600162506103516,52.45789337158203
1,679111,-11.505064010620117,-1.7857733964920044,8.48377513885498,97.99002838134766
1,679112,-7.287915229797363,6.482784748077393,24.673734664916992,39.11562728881836
1,679112,13.100769996643066,23.10545539855957,12.32895278930664,3.2430176734924316
1,679112,-18.232952117919922,-11.835152626037598,-19.397478103637695,-48.56947326660156
1,679112,-40.861083984375,-15.866780281066895,-3.739982843399048,-55.374210357666016
1,679112,-16.8326473236084,17.332355499267578,-0.025403257459402084,-26.529010772705078
1,679113,-3.461057424545288,-13.257996559143066,-39.17481994628906,5.0133056640625
1,679113,4.019357681274414,0.20457418262958527,-27.064422607421875,45.79740905761719
1,679113,14.249656677246094,16.51178550720215,-2.8091728687286377,41.26911163330078
1,679113,-0.7278727293014526,-17.70058250427246,-13.170825004577637,33.15863800048828
1,679113,3.097970485687256,-23.195585250854492,1.8471368551254272,29.054655075073242
1,679113,22.989383697509766,-5.46668815612793,12.665691375732422,-3.1278278827667236
1,679114,1.019087553024292,22.406702041625977,10.088587760925293,-24.475805282592773
1,679114,6.731496334075928,14.906214714050293,9.40799617767334,-54.57923126220703
1,679114,19.575607299804688,-14.296348571777344,-16.992820739746094,-43.045562744140625
1,679114,-31.660669326782227,-22.690786361694336,-15.92747974395752,-26.098472595214844
1,679114,-28.66238021850586,-17.019996643066406,2.6382172107696533,-28.519559860229492
1,679114,23.538330078125,10.930689811706543,-8.865795135498047,31.078794479370117
1,679115,18.436891555786133,23.365020751953125,9.48125171661377,47.99380111694336
1,679115,4.458947658538818,8.963282585144043,16.315261840820312,13.367827415466309
1,679115,12.114089012145996,8.734230041503906,5.280801773071289,28.782188415527344
1,679115,18.503318786621094,21.881118774414062,27.599544525146484,32.15301513671875
1,679115,2.342729091644287,-3.4531917572021484,16.680654525756836,-12.633753776550293
1,679115,-1.3880897760391235,-22.42537498474121,8.141817092895508,-34.7096061706543
1,679116,11.647001266479492,12.990225791931152,8.02585506439209,-37.41262435913086
1,679116,-8.060322761535645,8.466711044311523,-25.74666976928711,-18.659530639648438
1,679116,-21.17682647705078,-7.925438404083252,-14.390472412109375,14.38485336303711
1,679116,-9.777355194091797,-4.578639030456543,6.975194454193115,2.906303644180298
1,679116,-2.043656349182129,-6.167238235473633,-25.53459930419922,-6.751175880432129
1,679117,3.283092737197876,-2.041576862335205,-18.93617820739746,38.07577133178711
1,679117,13.796927452087402,-12.456034660339355,7.0785932540893555,29.324975967407227
1,679117,10.928565979003906,0.03927028924226761,-5.743961334228516,-16.132099151611328
1,679118,12.92143440246582,8.026708602905273,-37.72998046875,27.24329948425293
1,679118,12.551366806030273,-5.073726177215576,-14.001769065856934,20.073612213134766
1,679118,-13.622054100036621,18.055805206298828,57.0667610168457,-41.73033142089844
1,679119,-7.6764960289001465,7.257400989532471,39.176612854003906,-28.92963409423828
1,679120,13.333907127380371,-9.649373054504395,28.357046127319336,40.853370666503906
1,679121,-17.913545608520508,3.436476707458496,33.94000244140625,43.92937088012695
1,679124,-42.20386505126953,-6.088150501251221,31.580738067626953,-162.927001953125
1,679125,28.885330200195312,5.578793525695801,50.103031158447266,-209.3583526611328
1,679128,70.57628631591797,-3.5725080966949463,67.0156478881836,-70.34459686279297
1,679129,0.5240082144737244,-14.253721237182617,33.612850189208984,-77.10591125488281
1,679132,-54.090423583984375,-3.307288646697998,-108.86550903320312,-8.13020133972168
1,679133,-27.26287841796875,1.7877389192581177,-112.41233825683594,180.04380798339844
1,679136,9.140768051147461,23.05652618408203,-15.395977020263672,279.310791015625
1,679137,-21.06231117248535,-5.8936920166015625,-29.554210662841797,102.2786636352539
1,679140,-59.41436004638672,-23.151947021484375,-66.01496124267578,12.569615364074707
1,679141,0.35788556933403015,-6.4010772705078125,-64.4560317993164,99.35675048828125
1,679144,58.37482833862305,-19.615707397460938,18.025585174560547,-122.96102142333984
1,679145,-2.3242299556732178,37.13890838623047,82.80245208740234,-183.9064178466797
1,679148,-16.660202026367188,54.56112289428711,92.28038024902344,-40.251644134521484
1,679149,49.47496795654297,-32.788841247558594,58.475955963134766,-73.19114685058594
1,679152,33.113948822021484,-39.65989303588867,-31.1650333404541,-14.380305290222168
1,679239,-52.00849914550781,25.620025634765625,-111.00383758544922,341.29766845703125
1,679239,-32.829769134521484,27.55237579345703,-65.04537200927734,243.14625549316406
1,679239,45.29511642456055,-23.65519905090332,93.64424133300781,-347.5320739746094
1,679239,18.56247901916504,-18.601747512817383,53.87239074707031,-185.6632080078125
1,679240,-4.704957962036133,2.0599446296691895,-70.70758056640625,121.87281799316406
1,679240,-3.109084129333496,2.67341947555542,-56.350162506103516,78.41212463378906
1,679240,-35.7498779296875,3.20534348487854,-15.608758926391602,121.52618408203125
1,679240,-16.545448303222656,0.9034337401390076,-2.19269061088562,68.71720123291016
1,679240,-7.943614959716797,-9.791109085083008,22.532215118408203,-16.02462387084961
1,679240,-23.279029846191406,-2.47784423828125,34.01092529296875,-78.76176452636719
1,679241,38.84541702270508,5.001487731933594,31.11087989807129,-138.0024871826172
1,679241,43.17695999145508,-19.528371810913086,50.33034896850586,-135.9158172607422
1,679241,-19.963998794555664,2.5222151279449463,45.902042388916016,-82.45893096923828
1,679241,10.480269432067871,27.000064849853516,9.740897178649902,-24.084806442260742
1,679241,20.010969161987305,-1.2045767307281494,-18.305007934570312,33.55775833129883
1,679241,-21.386432647705078,-16.929162979125977,-21.738882064819336,83.34747314453125
1,679242,-6.674096584320068,0.10303869098424911,-47.66902542114258,73.04145050048828
1,679242,-7.232475280761719,6.688299655914307,-24.213586807250977,39.30348205566406
1,679242,-19.502532958984375,-4.117577075958252,26.692228317260742,27.933731079101562
1,679242,-4.628703594207764,7.092319965362549,13.864580154418945,-28.60373878479004
1,679242,14.06768798828125,17.989097595214844,23.76169204711914,-81.82801818847656
1,679243,19.33667755126953,-12.241393089294434,28.712724685668945,-68.2278823852539
1,679243,0.16326388716697693,-16.007638931274414,-0.4339108467102051,-41.28892135620117
1,679243,-6.133426189422607,22.578754425048828,4.262521266937256,9.628674507141113
1,679243,15.996074676513672,22.007671356201172,-11.897163391113281,51.46399688720703
1,679243,28.659170150756836,1.1530938148498535,-41.58536148071289,37.17287826538086
1,679243,-0.23759719729423523,-13.553465843200684,-19.264101028442383,38.42859649658203
1,679244,-6.562865257263184,-10.218047142028809,-10.145421981811523,36.30502700805664
1,679244,7.410271644592285,16.55768585205078,-1.0092613697052002,6.3559956550598145
1,679244,-12.749637603759766,3.672210216522217,28.033723831176758,-4.769355773925781
1,679244,-5.848695278167725,-4.291916370391846,15.437079429626465,-31.73379135131836
1,679244,14.889076232910156,-3.656503677368164,-1.2371940612792969,-63.9615478515625
1,679244,5.28558874130249,-10.93200397491455,1.8139201402664185,-43.67764663696289
1,679245,-19.795339584350586,6.807779312133789,-0.1616934984922409,7.868900775909424
1,679245,-16.93598175048828,4.358401298522949,2.4610207080841064,24.470861434936523
1,679245,13.55012035369873,0.5146939158439636,-6.772461891174316,35.38263702392578
1,679245,-16.816513061523438,-14.382475852966309,-11.978921890258789,44.34397506713867
1,679245,-24.324655532836914,-5.574203968048096,-10.551140785217285,10.239421844482422
1,679245,26.915424346923828,14.059006690979004,-9.146982192993164,-15.571365356445312
1,679246,8.69578742980957,-1.4321471452713013,-5.243103981018066,-9.388326644897461
1,679246,-8.811269760131836,-5.880054950714111,-6.7760539054870605,-2.5273149013519287
1,679246,1.3742843866348267,-22.662532806396484,20.654706954956055,-30.599830627441406
1,679246,-9.246084213256836,-7.921009063720703,25.362266540527344,-12.456829071044922
1,679247,13.897698402404785,22.477815628051758,28.404951095581055,-58.12649154663086
1,679248,12.269410133361816,-18.64467430114746,7.617426872253418,-92.94791412353516
1,679248,-14.718387603759766,-30.49968147277832,-39.61943435668945,82.38316345214844
1,679248,-10.002049446105957,17.018611907958984,1.9776225090026855,88.8687515258789
1,679248,-6.003311634063721,8.99732780456543,6.888265132904053,-21.47336196899414
1,679249,22.459529876708984,-6.980416297912598,-26.421031951904297,-57.33177947998047
1,679252,4.594578266143799,10.114884376525879,-50.12446594238281,-4.847210884094238
1,679253,-23.73653793334961,10.958233833312988,-63.351566314697266,165.85415649414062
1,679256,-2.1998167037963867,5.305600166320801,-17.10173797607422,213.23617553710938
1,679257,-9.642623901367188,-3.399449586868286,9.460683822631836,100.22579956054688
1,679260,-39.342567443847656,8.116965293884277,-34.5592155456543,49.4317626953125
1,679261,-37.393524169921875,37.47371292114258,-10.48446273803711,0.239423468708992
1,679264,137.2310333251953,9.524053573608398,189.1133270263672,-292.4549255371094
1,679266,67.74576568603516,-16.399723052978516,187.09901428222656,-249.39773559570312
1,679268,-124.2580795288086,-33.609580993652344,-75.33779907226562,5.393622875213623
1,679270,45.96119689941406,-14.372078895568848,-107.91156768798828,-110.45773315429688
1,679272,32.48219680786133,31.246423721313477,3.9341373443603516,8.459959030151367
1,679274,-100.42899322509766,-1.830599069595337,17.740238189697266,167.78411865234375
1,679276,-18.10451316833496,-28.45305633544922,-71.28475189208984,114.11637115478516
1,679278,72.68082427978516,-14.054450035095215,-113.5625991821289,72.01675415039062
1,679280,-23.328035354614258,33.104637145996094,-1.1149872541427612,42.98759460449219
1,679282,-98.786376953125,10.147919654846191,42.9702262878418,83.94523620605469
1,679284,38.289302825927734,-7.095710277557373,98.48906707763672,-182.63333129882812
1,679382,32.02545166015625,12.875927925109863,-10.905020713806152,-34.847225189208984
1,679383,-31.60663414001465,-24.05269432067871,-141.57241821289062,305.885009765625
1,679383,31.731552124023438,-3.7070608139038086,49.15578842163086,-55.89033508300781
1,679383,35.7994270324707,19.588932037353516,106.3146743774414,-167.32736206054688
1,679383,11.126126289367676,3.947841167449951,51.98119354248047,-67.55301666259766
1,679383,30.196109771728516,-5.8549418449401855,35.45292663574219,-141.9265899658203
1,679383,20.835519790649414,-7.736637115478516,-6.781711578369141,-94.94514465332031
1,679384,-11.014362335205078,1.946794033050537,-1.5856564044952393,-30.320087432861328
1,679384,3.613459587097168,10.985227584838867,-17.155635833740234,16.149709701538086
1,679384,-6.6115007400512695,-14.02894115447998,-66.75992584228516,77.21549224853516
1,679384,-40.28065490722656,-8.857770919799805,-50.176116943359375,100.92180633544922
1,679384,-24.913156509399414,23.619577407836914,4.858111381530762,57.099266052246094
1,679384,18.547176361083984,3.3176488876342773,10.676005363464355,-3.8674702644348145
1,679385,-1.451926589012146,-6.446029186248779,24.896291732788086,-26.652637481689453
1,679385,-43.31223678588867,-4.544056415557861,47.670799255371094,-41.62854766845703
1,679385,9.483033180236816,3.0499374866485596,27.6590633392334,-56.38926696777344
1,679385,34.18854904174805,4.635371208190918,-8.20848560333252,-40.92081069946289
1,679385,21.295621871948242,-10.004565238952637,-29.98509979248047,-5.400588035583496
1,679386,13.986056327819824,-1.1863044500350952,-0.6378441452980042,25.026317596435547
1,679386,6.67514181137085,0.17629893124103546,2.322859048843384,62.76615905761719
1,679386,4.708899021148682,-15.191206932067871,-40.50267028808594,67.6280517578125
1,679386,-27.542417526245117,-4.303194999694824,-12.404172897338867,22.613672256469727
1,679386,-29.42375373840332,10.736351013183594,31.395536422729492,11.501738548278809
1,679386,-4.2704949378967285,8.797555923461914,16.995874404907227,-11.729472160339355
1,679387,3.6418051719665527,17.3896541595459,2.177915573120117,-42.94474411010742
1,679387,9.131243705749512,-11.550917625427246,0.44326671957969666,-52.066959381103516
1,679387,21.503768920898438,-22.4184513092041,-3.904629707336426,-28.03980827331543
1,679387,-6.165140628814697,5.870863437652588,16.20015525817871,24.987098693847656
1,679387,-7.59846305847168,8.232805252075195,10.387957572937012,26.81344985961914
1,679387,-2.77339506149292,10.94620132446289,-40.25450134277344,27.6397647857666
1,679388,-18.076265335083008,-3.4903690814971924,-38.52763366699219,22.365537643432617
1,679388,15.90590763092041,-4.7259931564331055,5.5521240234375,19.003921508789062
1,679388,1.6119154691696167,1.1882075071334839,24.265317916870117,-9.183490753173828
1,679388,-12.731278419494629,-3.1703217029571533,8.628494262695312,-36.50544738769531
1,679388,5.331545352935791,5.093358993530273,-1.1553233861923218,-16.558515548706055
1,679389,7.082849025726318,4.780600547790527,6.090732574462891,-40.69675064086914
1,679389,-2.058689832687378,-15.830038070678711,-6.4413580894470215,-28.52180290222168
1,679389,-8.66917610168457,-26.684782028198242,-13.180253028869629,20.407846450805664
1,679389,-1.0399086475372314,9.458086967468262,-5.5999932289123535,16.516773223876953
1,679389,-7.035258769989014,19.66366958618164,-10.182552337646484,15.160394668579102
1,679389,-1.3484467267990112,-10.728161811828613,-18.138290405273438,17.8742618560791
1,679390,16.30019760131836,-1.2181957960128784,-0.4043363332748413,7.015066146850586
1,679390,6.750391960144043,8.688974380493164,26.902297973632812,18.532352447509766
1,679390,-14.39517879486084,-2.2869415283203125,3.8265817165374756,12.784324645996094
1,679390,4.627155303955078,2.7941484451293945,-19.56330680847168,-23.82579231262207
1,679390,21.009357452392578,-1.0901248455047607,13.320695877075195,-27.286598205566406
1,679390,-10.795952796936035,-6.2359137535095215,24.968881607055664,6.758183479309082
1,679391,-18.42665672302246,-0.08175566792488098,-1.8744300603866577,30.130859375
1,679391,-12.024884223937988,1.4361114501953125,-20.382564544677734,-6.657140254974365
1,679392,-4.828258514404297,-6.110191345214844,-101.52478790283203,69.55192565917969
1,679392,28.863895416259766,0.35094907879829407,-65.94769287109375,125.67097473144531
1,679392,9.099261283874512,-3.7891297340393066,88.09591674804688,-33.06401062011719
1,679393,-11.13380241394043,13.393170356750488,29.57471466064453,-37.06669616699219
1,679393,9.704507827758789,26.611642837524414,-26.89480972290039,16.309345245361328
1,679394,-43.65962600708008,-18.683509826660156,-66.93421173095703,28.97774314880371
1,679395,-37.9874153137207,-2.1624598503112793,-39.75739669799805,102.18159484863281
1,679398,12.827686309814453,5.55495548248291,93.57298278808594,111.66835021972656
1,679399,-22.842599868774414,-0.15760153532028198,42.35206985473633,55.65264129638672
1,679402,42.58552551269531,45.48719787597656,87.44218444824219,-143.650146484375
1,679403,75.93853759765625,9.083595275878906,129.96815490722656,-248.2983856201172
1,679406,-1.664623498916626,-32.52532196044922,35.47694396972656,-223.223388671875
1,679407,-1.7074944972991943,5.456282615661621,16.513416290283203,-125.62310028076172
1,679410,8.455520629882812,-37.39010238647461,-101.12071228027344,28.771265029907227
1,679411,11.575857162475586,-34.750511169433594,-175.1575927734375,10.212661743164062
1,679414,-10.499812126159668,47.66419982910156,-23.670806884765625,204.27017211914062
1,679415,-65.80366516113281,-23.92348289489746,54.12825012207031,270.7437438964844
1,679418,-6.562324047088623,-20.822891235351562,34.722320556640625,-57.63126754760742
1,679419,63.6153450012207,55.475067138671875,4.911841869354248,-52.9577751159668
1,679422,7.8326616287231445,6.3250041007995605,-87.83631134033203,39.114593505859375
1,679424,-57.4818115234375,-24.900794982910156,-30.433120727539062,-79.43187713623047
1,679426,-73.61813354492188,-3.0255417823791504,103.28983306884766,-122.6622085571289
1,679428,-0.12134918570518494,36.38594055175781,85.35598754882812,-54.60282897949219
1,679430,114.36188507080078,-8.81612491607666,29.8441162109375,-35.9712028503418
1,679432,47.43424987792969,-59.92232894897461,-34.039703369140625,-34.554359436035156
1,679543,-59.07726287841797,35.33739471435547,-130.5201873779297,367.9136657714844
1,679543,2.0966687202453613,54.306819915771484,-35.138065338134766,261.0690002441406
1,679543,26.432334899902344,-40.757781982421875,112.39423370361328,-403.531982421875
1,679543,0.19019261002540588,-40.04317855834961,-6.055965423583984,-189.19454956054688
1,679543,-5.923086643218994,14.995512962341309,-72.20045471191406,133.96432495117188
1,679544,-26.0740909576416,-4.9771928787231445,-3.984002113342285,81.94388580322266
1,679544,-20.706335067749023,-14.825288772583008,-0.43000152707099915,101.89506530761719
1,679544,6.698550224304199,33.845069885253906,3.449010133743286,33.46253204345703
1,679544,0.9796621203422546,22.31428337097168,32.23087692260742,-38.34565734863281
1,679544,-27.425556182861328,-3.936445474624634,39.860286712646484,-85.6020736694336
1,679544,-11.388543128967285,-9.392099380493164,34.73417663574219,-133.5854034423828
1,679545,8.645669937133789,-2.3015005588531494,20.71044158935547,-115.0375747680664
1,679545,16.771053314208984,14.084405899047852,-9.855571746826172,-58.49563217163086
1,679545,27.523714065551758,-2.713707447052002,-40.747825622558594,7.5198798179626465
1,679545,-13.022347450256348,-18.397493362426758,-39.45445251464844,74.58988189697266
1,679545,-29.271221160888672,6.456636428833008,-9.157415390014648,93.43199920654297
1,679545,5.451582908630371,8.132119178771973,-18.89158821105957,90.80520629882812
1,679546,-11.446747779846191,-29.250743865966797,-18.913061141967773,58.827518463134766
1,679546,-9.025955200195312,-3.482917070388794,25.814115524291992,-5.192594528198242
1,679546,37.12441635131836,11.41550064086914,49.077125549316406,-53.12036895751953
1,679546,26.0450439453125,-6.918549537658691,33.06175994873047,-60.59218215942383
1,679546,-5.818289756774902,0.491641104221344,27.968721389770508,-67.22083282470703
1,679546,16.77330207824707,0.5733378529548645,3.3197004795074463,-56.18315887451172
1,679547,15.680014610290527,3.711452007293701,-19.748395919799805,31.828720092773438
1,679547,-12.589425086975098,-16.342187881469727,-17.548622131347656,61.66054916381836
1,679547,3.1260745525360107,-4.4793877601623535,-9.147346496582031,40.84571075439453
1,679547,3.9799134731292725,35.14240264892578,-3.708986759185791,63.21261978149414
1,679547,-14.434733390808105,-2.849386215209961,-20.28639793395996,41.2989616394043
