Aktueller Finger,timestamp_ms,sensor_0,sensor_1,sensor_2,sensor_3
0,488298,97.830810546875,31.569122314453125,28.993391036987305,-2.7352945804595947
0,488299,23.093002319335938,-17.324060440063477,31.903335571289062,-24.069841384887695
0,488302,-36.658843994140625,-48.673988342285156,-18.104473114013672,-19.02298927307129
0,488303,8.755077362060547,47.29997634887695,-6.842463970184326,7.325537204742432
0,488306,-34.697601318359375,22.832096099853516,-2.6072723865509033,1.6761842966079712
0,488307,-55.76581954956055,-29.339290618896484,-39.627681732177734,-23.597442626953125
0,488310,68.89608001708984,7.94003438949585,26.520151138305664,24.23867416381836
0,488311,97.60165405273438,-21.62165069580078,20.924360275268555,31.41440200805664
0,488314,-91.07414245605469,2.2620532512664795,-31.964088439941406,-25.556020736694336
0,488318,-120.65108489990234,0.8817968964576721,-0.01167772151529789,-26.638193130493164
0,488318,65.5521240234375,-19.57878875732422,-2.2544021606445312,16.696691513061523
0,488320,95.87813568115234,28.485586166381836,-17.318185806274414,17.942462921142578
0,488321,-7.933657169342041,35.443138122558594,27.432552337646484,-45.953277587890625
0,488324,-11.889209747314453,0.47596463561058044,16.63120460510254,13.722430229187012
0,488325,-31.085845947265625,-34.110870361328125,-35.542842864990234,78.01996612548828
0,488328,-37.45673370361328,-13.10344409942627,23.422365188598633,-57.193363189697266
0,488329,108.1490478515625,20.622072219848633,54.45448303222656,-31.07125473022461
0,488332,27.783401489257812,-2.997516393661499,-35.91244125366211,44.198917388916016
0,488333,-113.54171752929688,-8.456937789916992,-42.28356170654297,-25.14598846435547
0,488336,-1.0513783693313599,19.524415969848633,28.475505828857422,-6.571000099182129
0,488337,56.19011306762695,-8.73965072631836,20.301435470581055,8.277710914611816
0,488340,2.622846841812134,-10.4142427444458,-9.858320236206055,7.3343119621276855
0,488341,-41.22541427612305,16.021568298339844,-3.1175169944763184,15.825447082519531
0,488596,-4.282893657684326,-2.690720319747925,-10.389052391052246,-55.339874267578125
0,488597,-17.228498458862305,-20.0291690826416,-22.279478073120117,-4.828369617462158
0,488600,-51.383140563964844,-4.24138069152832,8.762638092041016,74.56415557861328
0,488601,62.323020935058594,45.46115493774414,38.5638427734375,38.349002838134766
0,488604,65.51300048828125,-7.797784328460693,-9.442895889282227,-17.69339942932129
0,488605,-16.068178176879883,-17.821401596069336,-30.447376251220703,-71.03282165527344
0,490735,-64.3781509399414,39.853607177734375,18.746824264526367,-23.18168830871582
0,490735,3.590498685836792,-37.102848052978516,-12.730032920837402,30.804561614990234
0,490738,92.79064178466797,-54.90911865234375,-24.528011322021484,23.055463790893555
0,490739,-26.21928596496582,21.82924461364746,27.78888511657715,17.600400924682617
0,490742,-15.838846206665039,42.797088623046875,23.80640983581543,1.5705186128616333
0,490743,-2.126176595687866,-27.659629821777344,-0.2891819477081299,-55.39873123168945
0,490746,-85.50477600097656,-115.36030578613281,-1.9495617151260376,-0.6994648575782776
0,490747,67.1470947265625,43.558040618896484,-12.043905258178711,52.71942138671875
0,490750,85.3047103881836,186.25694274902344,-25.7229061126709,-9.013123512268066
0,490751,-96.09050750732422,-25.919784545898438,8.611403465270996,-12.965328216552734
0,490754,-65.49964904785156,-97.9953842163086,0.8906399607658386,-42.907161712646484
0,490755,46.4619026184082,27.63739585876465,-2.2726986408233643,-8.654731750488281
0,490758,44.51578140258789,6.525027751922607,23.610088348388672,51.394195556640625
0,490759,12.988533020019531,-5.393002033233643,8.833194732666016,18.7742919921875
0,490762,-7.339694976806641,7.149962902069092,-28.925064086914062,-6.2965006828308105
0,490763,-57.39624786376953,-6.372524738311768,-21.587139129638672,-22.317325592041016
0,490766,-12.735981941223145,13.298776626586914,42.40656280517578,-5.92867374420166
0,490767,94.6175308227539,5.996732234954834,2.6155943870544434,18.53402328491211
0,490770,21.786951065063477,-17.767940521240234,-16.578189849853516,-7.448590278625488
0,490771,-87.6004409790039,-28.533306121826172,32.43750762939453,-32.39583206176758
0,490774,-47.78074645996094,7.596956253051758,-1.223313570022583,19.442895889282227
0,490775,58.333431243896484,23.09247398376465,-3.560812473297119,47.566829681396484
0,490778,42.3826904296875,-19.204492568969727,-9.586468696594238,-6.774003505706787
0,490779,-47.1029167175293,-15.051528930664062,-20.224870681762695,-6.615983009338379
0,490782,15.160140991210938,19.164918899536133,13.934535026550293,6.355785846710205
0,490783,2.3876988887786865,17.755197525024414,-10.899283409118652,-22.500728607177734
0,490786,-44.20469665527344,-1.5741525888442993,5.0461931228637695,-15.112342834472656
0,490787,64.9205322265625,2.72440242767334,18.12422752380371,-6.086774826049805
0,490790,12.420754432678223,-51.44474792480469,-35.04460525512695,4.505059719085693
0,490791,-67.36549377441406,-26.779541015625,-41.6145133972168,-6.282715797424316
0,490794,24.239118576049805,90.34835052490234,35.88685607910156,-27.944761276245117
0,490795,36.78932571411133,8.466238975524902,47.30754089355469,19.96695899963379
0,490798,-7.5956645011901855,-36.46913146972656,-17.813291549682617,34.713539123535156
0,490799,-15.840651512145996,29.07222557067871,8.758031845092773,11.331859588623047
0,490802,24.704416275024414,-17.104562759399414,-11.244490623474121,-23.162841796875
0,490804,-24.606779098510742,-33.8974494934082,-40.56751251220703,-25.6710147857666
0,490806,-59.944976806640625,21.62119483947754,33.49356460571289,57.83864212036133
0,490808,85.30272674560547,-4.193194389343262,9.635564804077148,10.02704906463623
0,490810,16.555118560791016,-45.58607864379883,-30.629375457763672,-53.9935417175293
0,490812,-104.77168273925781,22.961467742919922,23.113351821899414,25.475479125976562
0,490813,23.497657775878906,27.126476287841797,11.284132957458496,8.780306816101074
0,490816,77.47136688232422,-19.46360206604004,-14.978719711303711,-36.3609619140625
0,490817,-31.073537826538086,22.430356979370117,-6.518957138061523,1.6430684328079224
0,490820,-46.95097351074219,14.222569465637207,3.786285400390625,25.49291229248047
0,490821,27.215045928955078,-18.517763137817383,23.731914520263672,9.857462882995605
0,490824,-15.67116928100586,15.349675178527832,0.6378970742225647,-11.744999885559082
0,490825,-36.81495666503906,5.186031818389893,-27.68303108215332,-28.12570571899414
0,490828,78.72579956054688,7.349100112915039,4.819994926452637,8.438776016235352
0,490829,75.46354675292969,1.4270985126495361,7.821458339691162,52.228904724121094
0,490832,-79.43973541259766,-25.941333770751953,0.877934992313385,-42.20082092285156
0,490833,-67.10694885253906,-2.3305282592773438,21.285160064697266,-24.47854232788086
0,490836,34.13320541381836,-7.782583236694336,-16.897777557373047,61.22325897216797
0,490837,28.912553787231445,-15.908706665039062,-12.609498023986816,-21.31285858154297
0,490840,14.135713577270508,6.559049606323242,1.7724686861038208,-43.21461868286133
0,490841,-27.66059684753418,31.564266204833984,-7.236813545227051,14.138945579528809
0,490844,-36.9525260925293,-12.318818092346191,4.169553756713867,23.918983459472656
0,490845,-21.303804397583008,-24.23859214782715,-29.767881393432617,-26.47760772705078
0,490848,77.14562225341797,27.690492630004883,39.74015426635742,4.564472198486328
0,490849,84.78907012939453,20.148040771484375,48.51329803466797,43.44344711303711
0,490852,-125.32189178466797,-18.169397354125977,-67.24880981445312,-25.878070831298828
0,490853,-34.76633071899414,-0.4337775409221649,2.020805597305298,-23.97336196899414
0,490856,97.38549041748047,12.001978874206543,28.97264862060547,3.9314322471618652
0,490857,-25.511363983154297,-20.18727684020996,-29.435762405395508,23.364248275756836
0,490860,-12.94786548614502,-11.111427307128906,-5.7297892570495605,20.72310447692871
0,490861,34.97236633300781,9.913777351379395,-2.0944628715515137,-11.444755554199219
0,490864,-63.29536819458008,3.6679484844207764,6.795313835144043,-38.283538818359375
0,490865,-51.79521179199219,-12.116941452026367,46.64421081542969,-22.74332618713379
0,490868,114.62116241455078,25.523197174072266,14.73034954071045,42.44182586669922
0,490869,89.6163330078125,35.427978515625,-35.08401870727539,39.17339324951172
0,490872,-121.3330078125,-51.460113525390625,-42.34532928466797,-32.561790466308594
0,490873,-90.2739486694336,-41.72053909301758,-3.991271734237671,-17.072864532470703
0,490876,76.45238494873047,20.63106346130371,55.610679626464844,35.1904296875
0,490877,29.290586471557617,2.6691184043884277,-17.58108139038086,-67.24566650390625
0,490880,-0.7428366541862488,49.79121017456055,-11.141955375671387,15.341636657714844
0,490881,-0.9336770176887512,14.930193901062012,34.565181732177734,108.84070587158203
0,490884,-67.59480285644531,-50.188232421875,-64.88314819335938,-80.36480712890625
0,490885,-24.214548110961914,14.359475135803223,-18.331436157226562,-30.248394012451172
0,490888,95.71279907226562,-4.201953887939453,69.1151351928711,53.90792465209961
0,490889,71.2442626953125,-5.654179096221924,22.038745880126953,-35.647560119628906
0,490892,-101.57028198242188,-12.56297779083252,-37.678836822509766,8.244590759277344
0,490893,-66.22813415527344,-26.406404495239258,-20.93351936340332,28.961843490600586
0,490896,75.20337677001953,56.03022003173828,54.02665328979492,-16.65426254272461
0,490897,38.34763717651367,21.66458511352539,1.7039523124694824,-30.856861114501953
0,490899,-29.486106872558594,-46.45186996459961,-54.41295623779297,-16.103160858154297
0,490902,-19.889307022094727,-27.92380714416504,23.487857818603516,47.388145446777344
0,490903,-26.64278793334961,-19.909460067749023,17.911035537719727,42.78989791870117
0,490906,-20.54987907409668,54.69749069213867,-24.063066482543945,-29.046140670776367
0,490907,88.9684066772461,59.01693344116211,5.323981761932373,-48.926307678222656
0,490910,40.13056945800781,-64.1474838256836,-0.5567893385887146,14.818029403686523
0,490911,-78.25760650634766,-19.152637481689453,-18.38011360168457,10.15030574798584
0,490914,-36.016300201416016,47.63135528564453,-0.6071868538856506,-15.48721694946289
0,490915,17.72216033935547,-11.996847152709961,3.077298879623413,18.007680892944336
0,490918,60.44424819946289,-8.099042892456055,12.511614799499512,-12.441962242126465
0,490919,5.10953950881958,9.8816556930542,23.520612716674805,-2.000854253768921
0,490922,-27.733287811279297,-12.388291358947754,-22.49127960205078,33.31687545776367
0,490923,-4.232146263122559,-1.8894981145858765,-3.033768892288208,7.991316318511963
0,490926,-66.61196899414062,-38.73469924926758,-3.8510043621063232,-40.29680633544922
0,490927,44.049072265625,15.140594482421875,-12.589649200439453,-26.830224990844727
0,490930,94.42536163330078,69.13130187988281,29.07914161682129,37.85475540161133
0,490931,-78.0201416015625,-26.34454917907715,-22.46158790588379,29.358943939208984
0,490934,-59.03944778442383,-27.276092529296875,14.96572494506836,-11.33878231048584
0,490935,48.08515167236328,-10.097342491149902,42.920021057128906,-10.990671157836914
0,490938,25.796964645385742,14.162933349609375,-29.83116340637207,-6.553619861602783
0,490939,-2.152771472930908,39.15510940551758,-17.020774841308594,-6.74708366394043
0,490942,27.916744232177734,-4.64950704574585,25.66560173034668,-7.89013671875
0,490943,-49.31133270263672,-34.09175109863281,9.132929801940918,1.2432409524917603
0,490946,-78.7645263671875,-25.878162384033203,-38.40522384643555,26.249311447143555
0,490947,86.9402847290039,28.34803009033203,0.37680962681770325,17.532447814941406
0,490950,48.283687591552734,22.68254852294922,39.47687911987305,-17.602766036987305
0,490951,-82.06957244873047,-23.88663673400879,-16.9047908782959,-18.4558162689209
0,490954,-27.28628921508789,-4.748617649078369,-38.1562385559082,12.530050277709961
0,490955,67.00711822509766,34.758636474609375,11.979426383972168,6.4429497718811035
0,490958,38.203800201416016,13.34266471862793,7.750001430511475,-6.556692123413086
0,490959,-44.84584426879883,-39.30184555053711,-17.543235778808594,-7.482274532318115
0,490962,3.618711233139038,-51.36858367919922,6.138304233551025,-14.911815643310547
0,490963,-15.220720291137695,-1.4469727277755737,-7.606142520904541,-9.270703315734863
0,490966,-39.59691619873047,79.69873046875,1.7681376934051514,-8.397061347961426
0,490967,69.94522857666016,43.83237838745117,26.171300888061523,4.852337837219238
0,490970,51.29001235961914,-64.3761978149414,-2.656553030014038,33.5909538269043
0,490971,-53.91667175292969,-44.5037727355957,-9.228669166564941,7.3943681716918945
0,490974,-68.61358642578125,39.247928619384766,16.799854278564453,35.13814163208008
0,490975,34.82662582397461,13.152718544006348,-6.699193000793457,13.973769187927246
0,490978,60.6514778137207,-29.58181381225586,-7.601525783538818,-78.38943481445312
0,490979,-39.88452911376953,15.026688575744629,14.018206596374512,-52.5566291809082
0,490982,25.131681442260742,18.720172882080078,-11.98631763458252,29.951427459716797
0,490983,7.918635845184326,-0.6714004874229431,12.13648509979248,87.22249603271484
0,490986,-108.53335571289062,-15.398016929626465,-13.447676658630371,9.304269790649414
0,490987,72.86653900146484,9.740665435791016,-3.38091778755188,-32.69935607910156
0,490990,64.33878326416016,13.266758918762207,38.27519226074219,-23.810869216918945
0,490991,-116.895751953125,-34.96475601196289,-33.47652816772461,-24.0008487701416
0,490994,-0.7645891904830933,-5.210467338562012,-5.181709289550781,3.330766201019287
0,490995,61.03688049316406,-8.475008010864258,12.708367347717285,4.2456159591674805
0,490998,13.060667991638184,23.541358947753906,3.371310234069824,38.0390510559082
0,490999,-1.7831335067749023,22.011934280395508,13.10295295715332,26.803884506225586
0,491002,12.869019508361816,-35.54372787475586,-35.23181915283203,-21.8577823638916
0,491003,-25.076841354370117,8.858539581298828,-16.643901824951172,-10.137295722961426
0,491007,-11.406353950500488,-4.303594589233398,17.442663192749023,15.177045822143555
0,491007,56.268497467041016,-13.754812240600586,26.20153045654297,-11.587275505065918
0,491010,-46.424530029296875,53.270206451416016,8.338319778442383,-139.23822021484375
0,491011,-54.182228088378906,12.256441116333008,-24.566211700439453,-65.17262268066406
0,491014,21.145620346069336,-32.78553771972656,-5.672685623168945,230.44906616210938
0,491015,7.128118991851807,-24.04336929321289,-0.5124609470367432,94.8154067993164
0,491018,8.14360237121582,-40.9658203125,-6.050327301025391,-115.37295532226562
0,491019,42.15129852294922,32.21577072143555,33.908966064453125,-8.101964950561523
0,491022,3.7465906143188477,49.10120391845703,-16.54945945739746,-41.780303955078125
0,491023,-62.57048034667969,-24.500900268554688,-47.32540512084961,-45.06103515625
0,491026,-23.067459106445312,3.4192018508911133,42.128509521484375,70.74024963378906
0,491027,61.30849075317383,8.84477424621582,25.67281723022461,35.82280349731445
0,491030,47.76359939575195,-41.200599670410156,-9.49015998840332,-17.15898895263672
0,491031,-62.81400680541992,-6.062624931335449,-10.826067924499512,-23.511014938354492
0,491034,-50.01244354248047,46.53089904785156,-24.35445785522461,-30.98436737060547
0,491035,47.70668029785156,24.915822982788086,0.2890987694263458,3.262643575668335
0,491038,32.4797477722168,-21.36895751953125,6.7128400802612305,71.4997787475586
0,491039,-34.11339569091797,-4.8411054611206055,15.342759132385254,33.63976287841797
0,491042,10.846355438232422,13.676522254943848,24.378984451293945,-77.03036499023438
0,491043,-2.783573865890503,-31.70329475402832,-6.633305072784424,-62.15835189819336
0,491046,-74.55511474609375,-7.912041187286377,-20.838998794555664,12.135100364685059
0,491047,81.75524139404297,40.236228942871094,2.015265464782715,32.990806579589844
0,491050,78.20149230957031,-21.662343978881836,-32.904296875,84.09398651123047
0,491051,-110.71533966064453,-77.95490264892578,-36.12163162231445,-31.80072593688965
0,491054,-22.522785186767578,38.078556060791016,90.81322479248047,-121.00194549560547
0,491055,93.78472137451172,96.58318328857422,88.9157485961914,96.74080657958984
0,491058,-8.385896682739258,-10.306617736816406,-62.097721099853516,65.5212631225586
0,491059,-55.69048309326172,48.059783935546875,-55.81203842163086,-46.61634063720703
0,491062,82.02287292480469,-72.10309600830078,-6.837717533111572,-8.325992584228516
0,491063,-0.018583444878458977,-180.80479431152344,-25.624666213989258,-58.338836669921875
0,491066,-178.5721435546875,93.00273895263672,8.428667068481445,-76.88801574707031
0,491067,36.66836166381836,81.3440170288086,20.156700134277344,76.84276580810547
0,491070,152.49058532714844,-10.358139991760254,33.66822052001953,192.57081604003906
0,491071,-40.725616455078125,60.45888137817383,49.64865493774414,-1.9881820678710938
0,491074,-66.16987609863281,-40.34184265136719,-22.409231185913086,-178.52801513671875
0,491075,29.19725227355957,-72.076416015625,-99.6456069946289,-52.30645751953125
0,491078,-23.410106658935547,-24.049007415771484,-74.60834503173828,46.038856506347656
0,491079,-35.09131622314453,7.458108901977539,92.35777282714844,-17.74785614013672
0,491082,98.15731048583984,104.943115234375,136.23912048339844,32.176490783691406
0,491083,-9.112471580505371,25.818918228149414,-42.3575553894043,54.74752426147461
0,491086,-74.26949310302734,-42.64003372192383,-50.105384826660156,-2.7531325817108154
0,491087,109.1968765258789,20.574155807495117,24.01620864868164,54.285343170166016
0,491090,-18.23912239074707,-52.7913932800293,-84.22506713867188,-60.165462493896484
0,491091,-108.46826171875,-48.225826263427734,-44.13127517700195,-125.7422866821289
0,491094,71.72624206542969,46.688446044921875,87.54312896728516,87.31542205810547
0,491095,32.96360778808594,-25.135122299194336,-18.820770263671875,37.64210510253906
0,491098,-39.27037048339844,-30.205156326293945,-34.636661529541016,-8.121070861816406
0,491099,-29.305234909057617,29.571659088134766,58.24982833862305,68.99540710449219
0,491102,56.559879302978516,35.914215087890625,124.43388366699219,-118.10517883300781
0,491103,60.105960845947266,55.925148010253906,61.22960662841797,-59.44446563720703
0,491106,-126.85922241210938,-16.90509033203125,-226.93692016601562,148.43756103515625
0,491107,-14.313542366027832,-30.87984848022461,-109.24839782714844,8.239279747009277
0,491110,74.78665161132812,-19.755218505859375,129.18115234375,-127.14704895019531
0,491111,-51.606746673583984,-22.73829460144043,28.248300552368164,24.643001556396484
0,491114,-13.475140571594238,66.63423156738281,22.839717864990234,122.86483001708984
0,491115,62.0294189453125,19.189741134643555,-0.861227810382843,-28.251361846923828
0,491118,20.52689552307129,-30.76058006286621,-46.39287185668945,-142.68092346191406
0,491119,-58.5462646484375,2.4621944427490234,25.116165161132812,-90.1161880493164
0,491122,0.10608735680580139,-83.14322662353516,-58.15260696411133,100.9258041381836
0,491123,-24.597265243530273,-76.44346618652344,-93.44023132324219,102.82351684570312
0,491126,-8.547203063964844,29.27034568786621,104.48487854003906,45.010154724121094
0,491128,195.67359924316406,140.0001983642578,208.2212677001953,163.12429809570312
0,491130,10.482765197753906,78.04405975341797,-27.716121673583984,-177.96348571777344
0,491131,-217.94088745117188,-124.58372497558594,-211.54164123535156,-426.1991271972656
0,491134,-52.00776290893555,-24.873369216918945,6.178636074066162,222.13377380371094
0,491135,82.71504211425781,81.76598358154297,57.3146858215332,357.06988525390625
0,491138,78.97613525390625,5.34352970123291,7.978663921356201,-116.08417510986328
0,491139,-23.02289390563965,-27.32038116455078,60.521263122558594,41.894500732421875
0,491142,-45.70494079589844,-30.854785919189453,-50.776248931884766,93.57999420166016
0,491143,-24.648452758789062,-49.05754470825195,-67.15221405029297,-320.41986083984375
0,491146,-2.4385595321655273,21.145612716674805,82.04798126220703,-142.95782470703125
0,491147,89.56929016113281,40.836029052734375,28.910490036010742,281.2989196777344
0,491150,-27.642152786254883,-65.32762145996094,-120.43499755859375,-2.9359352588653564
0,491151,-65.67027282714844,9.484127044677734,18.716585159301758,-131.5088653564453
0,491154,36.32844924926758,70.60966491699219,99.4852294921875,108.39048767089844
0,491155,35.39919662475586,20.568561553955078,-52.8427848815918,47.01301574707031
0,491158,60.09794616699219,-0.47383105754852295,14.49638843536377,-101.89236450195312
0,491159,-25.39508819580078,-23.520362854003906,53.65861511230469,-94.07025146484375
0,491162,-75.7646484375,17.599590301513672,-106.74433898925781,45.850318908691406
0,491163,-17.025978088378906,-9.557361602783203,-45.57695388793945,30.64691162109375
0,491166,21.720746994018555,-34.280635833740234,92.3812484741211,-63.95697021484375
0,491167,89.39152526855469,28.448036193847656,48.43509292602539,161.45596313476562
0,491170,-5.071393966674805,-50.19581604003906,-59.24043273925781,115.20037841796875
0,491171,-108.6209945678711,-37.973060607910156,-32.14645767211914,-227.26522827148438
0,491174,18.063756942749023,47.57476806640625,61.05265808105469,126.88957977294922
0,491175,69.9052734375,-1.8625699281692505,68.83918762207031,218.06976318359375
0,491178,-59.2650260925293,10.370209693908691,-44.872562408447266,-366.81646728515625
0,491179,-34.948875427246094,39.31807327270508,-89.75489807128906,-235.5769500732422
0,491182,53.18394470214844,-30.44017219543457,-32.542972564697266,364.8580322265625
0,491183,-41.25666046142578,-54.95786666870117,-27.504642486572266,232.09007263183594
0,491186,-26.739843368530273,88.99310302734375,98.28630065917969,-215.19369506835938
0,491187,90.58743286132812,62.29848098754883,92.59537506103516,-70.62323760986328
0,491190,48.009090423583984,-68.34774780273438,-79.1694564819336,-83.74668884277344
0,491191,-76.69808959960938,-63.3306884765625,-44.379173278808594,-232.01214599609375
0,491194,-51.60475158691406,-41.564701080322266,44.10919952392578,478.55908203125
0,491195,59.727787017822266,18.647918701171875,-15.699162483215332,697.3945922851562
0,491198,13.38737678527832,23.62027931213379,-40.79362487792969,-771.33642578125
0,491199,-30.08074188232422,41.5362434387207,18.594615936279297,-959.3358154296875
0,491202,38.57795715332031,65.7025375366211,28.577251434326172,555.6609497070312
0,491203,22.303625106811523,4.6387224197387695,70.52210235595703,541.8453979492188
0,491206,-60.52154541015625,-33.136451721191406,31.464313507080078,-89.24313354492188
0,491207,10.029203414916992,-1.7613592147827148,-74.14044952392578,-64.87677764892578
0,491210,27.51320457458496,-35.480690002441406,-74.73843383789062,-103.9557876586914
0,491211,-48.265750885009766,-48.92621612548828,25.710134506225586,-96.02464294433594
0,491214,-21.576169967651367,37.048675537109375,-7.75640869140625,53.82640838623047
0,491215,18.74357795715332,11.70803451538086,-42.69503402709961,118.68353271484375
0,491218,33.794864654541016,-19.398529052734375,80.2358627319336,73.90457916259766
0,491219,-15.267743110656738,-3.173612117767334,15.095200538635254,-63.81560134887695
0,491222,-2.2511839866638184,17.386049270629883,-5.06857967376709,6.385625839233398
0,491223,-1.8832272291183472,12.007763862609863,2.4284613132476807,31.153526306152344
0,491226,-57.71955490112305,-87.7612075805664,-77.49479675292969,-215.0806121826172
0,491227,78.43516540527344,-11.336355209350586,34.099491119384766,35.55198287963867
0,491230,67.0254898071289,92.05687713623047,42.066890716552734,404.3473205566406
0,491231,-115.10821533203125,7.888839244842529,-42.95115280151367,-118.97247314453125
0,491234,-19.558000564575195,16.111265182495117,40.34423828125,-519.60791015625
0,491235,113.6513671875,20.607620239257812,51.31237030029297,73.84661865234375
0,491238,19.174922943115234,-33.71757888793945,-29.140213012695312,143.0397186279297
0,491239,-75.83373260498047,19.320133209228516,-42.86845779418945,-44.83740997314453
0,491242,6.360281467437744,24.011455535888672,-22.309738159179688,335.0519714355469
0,491243,8.934922218322754,-53.42090606689453,8.1416597366333,262.5703125
0,491246,-34.41020965576172,-69.26753234863281,25.341588973999023,-253.3042755126953
0,491247,45.986854553222656,5.630320072174072,-18.89388656616211,-299.32647705078125
0,491250,-2.257550001144409,67.5537338256836,-24.963293075561523,-7.802148342132568
0,491251,-48.1506462097168,29.956071853637695,27.323646545410156,84.55271911621094
0,491254,14.038555145263672,16.257917404174805,53.68018341064453,105.6940689086914
0,491255,30.19763946533203,-4.206002235412598,-8.318565368652344,166.29415893554688
0,491258,-24.874692916870117,-82.47225189208984,-38.103641510009766,-24.3775634765625
0,491259,-30.477312088012695,-64.90506744384766,3.7365779876708984,-345.0201110839844
0,491262,29.4486141204834,20.712398529052734,-33.15296936035156,101.77307891845703
0,491264,-30.133358001708984,25.078824996948242,-11.857770919799805,347.608154296875
0,491266,5.653850555419922,84.7908935546875,35.96707534790039,-536.2322998046875
0,491267,83.7154769897461,64.98052978515625,14.882568359375,-407.0130310058594
0,491270,-54.53468322753906,-98.39946746826172,-0.6135426759719849,652.294189453125
0,491271,-37.19279861450195,-34.779727935791016,26.019128799438477,330.77838134765625
0,491274,58.722721099853516,73.29649353027344,32.36985778808594,-378.3242492675781
0,491275,-18.752412796020508,-6.112731456756592,-62.932064056396484,-183.03030395507812
0,491278,-55.77090835571289,-51.711849212646484,-70.33885955810547,28.134366989135742
0,491279,29.081790924072266,10.670642852783203,47.8425407409668,84.52281188964844
0,491282,113.45487976074219,32.967247009277344,23.703664779663086,294.291259765625
0,491283,-80.11033630371094,-19.515453338623047,-73.44767761230469,109.80623626708984
0,491286,-117.6978988647461,-32.2864990234375,18.571392059326172,-382.351806640625
0,491287,145.86807250976562,38.822566986083984,161.97885131835938,-105.11392211914062
0,491290,50.710609436035156,-14.015728950500488,-13.75527286529541,198.36703491210938
0,491291,-100.88423156738281,-57.05207061767578,-130.0398712158203,-46.241058349609375
0,491294,-5.956446170806885,101.99874877929688,61.46824264526367,179.39158630371094
0,491295,4.300940990447998,31.431509017944336,-31.063573837280273,-446.08587646484375
0,491298,-18.509639739990234,-128.96681213378906,-104.94319152832031,-324.6387939453125
0,491299,41.37248611450195,-2.57201886177063,73.9065170288086,897.157470703125
0,491302,15.145289421081543,-8.946341514587402,21.23074722290039,573.4921264648438
0,491303,-62.85829162597656,-78.88416290283203,-41.799190521240234,-94.28990173339844
0,491306,-0.1954043209552765,152.6126708984375,53.735595703125,-1042.3140869140625
0,491307,57.91886520385742,165.88345336914062,37.39850616455078,-476.57672119140625
0,491310,26.861534118652344,-95.8037338256836,9.012316703796387,788.9195556640625
0,491311,-26.287704467773438,-86.25086212158203,21.920507431030273,220.05960083007812
0,491314,-43.043601989746094,6.709284782409668,-63.23561477661133,-212.72410583496094
0,491315,51.14374923706055,-9.349689483642578,-60.46745300292969,-288.4648742675781
0,491318,31.40418815612793,42.209896087646484,49.033870697021484,-286.9387512207031
0,491319,-70.15193176269531,9.26320743560791,59.4534912109375,278.6705627441406
0,491322,-9.035490036010742,-71.51243591308594,-18.432655334472656,717.6138916015625
0,491323,6.628265380859375,6.813816070556641,-38.84673309326172,-51.18335723876953
0,491326,-23.789966583251953,19.039142608642578,-4.059931755065918,-674.451416015625
0,491327,32.645042419433594,-34.164833068847656,-29.556371688842773,45.47581481933594
0,491330,24.952999114990234,4.522032260894775,-26.880043029785156,350.66851806640625
0,491331,-30.69499969482422,9.4612455368042,32.639488220214844,34.67030715942383
0,491334,-25.433670043945312,24.667217254638672,42.366153717041016,4.179361820220947
0,491335,47.48301315307617,19.31745147705078,-1.311781406402588,-96.52667999267578
0,491338,22.78200912475586,-25.102962493896484,7.087759494781494,27.81682586669922
0,491339,-55.58861541748047,18.81239891052246,23.941484451293945,15.71345043182373
0,491342,34.06206130981445,44.38579177856445,-36.35083770751953,-309.09759521484375
0,491343,-14.675561904907227,-14.021924018859863,-38.71271514892578,-37.48430633544922
0,491346,-57.12904357910156,-40.29047393798828,74.73641204833984,235.81008911132812
0,491347,112.2472915649414,-0.5809435248374939,60.18561935424805,73.79013061523438
0,491350,18.740427017211914,15.325704574584961,-94.29096221923828,-21.400531768798828
0,491351,-109.07123565673828,-30.481531143188477,-75.0659408569336,51.46868896484375
0,491354,-35.50982666015625,-65.139892578125,34.11446762084961,-30.175552368164062
0,491355,70.16790771484375,8.920854568481445,34.34395217895508,-215.2874298095703
0,491358,58.99153518676758,57.7324333190918,-35.3622932434082,-30.32839012145996
0,491359,-33.78527069091797,12.377762794494629,17.299663543701172,191.7644500732422
0,491362,25.754486083984375,21.575830459594727,63.99711990356445,-117.7909164428711
0,491363,-25.512710571289062,50.41340637207031,-33.855709075927734,-123.84115600585938
0,491366,-59.85280990600586,-28.385984420776367,-45.41084289550781,165.3730010986328
0,491367,91.47144317626953,-58.1458740234375,50.16321563720703,-8.539271354675293
0,491370,1.6777522563934326,1.2454677820205688,26.253767013549805,241.28736877441406
0,491371,-129.75088500976562,-1.7879209518432617,-120.40705108642578,161.2262725830078
0,491374,-2.897204637527466,-11.784135818481445,-16.772857666015625,66.07544708251953
0,491375,90.41252136230469,7.791354179382324,92.06494903564453,214.50050354003906
0,491378,-0.09335702657699585,3.2657973766326904,9.473226547241211,-868.4742431640625
0,491379,-29.66358757019043,24.78375816345215,16.500648498535156,-466.8760681152344
0,491382,62.75520324707031,42.260257720947266,57.3066520690918,696.2135009765625
0,491383,-28.548017501831055,-25.8270263671875,-16.052715301513672,46.468326568603516
0,491386,-69.61196899414062,-20.7894229888916,-68.25956726074219,-175.49905395507812
0,491387,67.25405883789062,-29.245153427124023,8.672893524169922,155.39480590820312
0,491390,-25.375913619995117,-38.13721466064453,-34.74040603637695,-38.314666748046875
0,491391,-2.2522425651550293,104.9239273071289,52.42483139038086,178.51296997070312
0,491394,-12.972233772277832,-14.266141891479492,17.404905319213867,-417.7556457519531
0,491395,-84.38072204589844,-121.61543273925781,-136.02305603027344,-409.02032470703125
0,491398,143.833251953125,97.03064727783203,109.95084381103516,1095.0916748046875
0,491399,79.54727172851562,76.88632202148438,119.03250885009766,121.53435516357422
0,491402,-112.75652313232422,-76.35281372070312,-119.84781646728516,-595.2440795898438
0,491404,-59.09137725830078,-34.103424072265625,-87.54951477050781,302.1171875
0,491406,61.94516372680664,21.532711029052734,52.57991409301758,-138.69985961914062
0,491408,63.661949157714844,1.2401602268218994,29.251070022583008,-505.4501037597656
0,491410,-76.61302185058594,-16.876083374023438,-39.63630676269531,141.56141662597656
0,491412,-53.91386032104492,2.0636982917785645,-3.295257329940796,382.526123046875
0,491414,66.87335968017578,66.44690704345703,66.41720581054688,-2.6406242847442627
0,491416,-17.923316955566406,12.555865287780762,17.134971618652344,-108.6927261352539
0,491418,-36.14643859863281,-77.41883850097656,-70.55856323242188,-45.6971549987793
0,491420,69.99673461914062,18.673851013183594,11.216888427734375,32.721920013427734
0,491421,-4.324641227722168,26.928428649902344,44.59880065917969,44.203922271728516
0,491424,-60.97719192504883,-23.264062881469727,-28.347761154174805,-48.502464294433594
0,491425,-51.96250915527344,2.3464126586914062,-42.74797821044922,-54.68541717529297
0,491428,96.9755630493164,-17.017593383789062,2.027268409729004,29.314746856689453
0,491429,145.57679748535156,-10.24783992767334,49.35051727294922,109.83982849121094
0,491432,-141.63461303710938,2.3268442153930664,-30.05005645751953,-7.128194332122803
0,491433,-76.83206176757812,12.042583465576172,-63.42864227294922,-146.76246643066406
0,491436,136.3777618408203,19.447494506835938,104.79808044433594,41.60307312011719
0,491437,19.239627838134766,7.325534820556641,91.43141174316406,115.98709869384766
0,491440,-66.99382781982422,-16.387310028076172,-98.65450286865234,-86.6138916015625
0,491441,-44.06258010864258,-11.782362937927246,-51.369239807128906,-36.17329788208008
0,491444,-27.13296890258789,0.021783150732517242,20.970287322998047,65.68143463134766
0,491445,-13.327553749084473,16.90116310119629,-20.664541244506836,-34.76383590698242
0,491448,87.46141815185547,37.09606170654297,42.205589294433594,-46.0507698059082
0,491449,81.38916778564453,-19.53582763671875,47.419219970703125,100.48176574707031
0,491452,-115.87578582763672,-76.9977035522461,-57.087432861328125,6.858022212982178
0,491453,2.751873016357422,26.38430404663086,-10.169655799865723,-104.2691650390625
0,491456,68.73997497558594,86.38322448730469,36.59455490112305,30.778217315673828
0,491457,-79.46037292480469,-78.72472381591797,-37.54054641723633,51.97343063354492
0,491460,20.585771560668945,-50.10041046142578,-18.778602600097656,-33.349613189697266
0,491461,14.83167839050293,66.972900390625,31.62264633178711,-15.61996078491211
0,491464,-69.3948745727539,-10.005742073059082,22.904685974121094,-3.1364083290100098
0,491465,-32.9594612121582,-2.1031105518341064,-13.903772354125977,-29.8335018157959
0,491468,106.6884536743164,65.6443099975586,-62.735023498535156,11.932657241821289
0,491469,115.38550567626953,-12.683016777038574,-50.551239013671875,7.544214725494385
0,491472,-120.79397583007812,-48.17411422729492,146.5243682861328,76.3624496459961
0,491473,-98.43780517578125,-2.7836503982543945,137.51797485351562,58.572208404541016
0,491476,79.58139038085938,12.364646911621094,-142.8849639892578,-102.87638854980469
0,491477,54.76898193359375,2.0002493858337402,-129.1704559326172,-24.646408081054688
0,491480,0.3169597387313843,1.0482548475265503,34.93931198120117,52.32231521606445
0,491481,-25.821218490600586,8.938750267028809,77.22449493408203,-12.833873748779297
0,491484,-66.77843475341797,-26.005399703979492,-4.581851482391357,-40.772216796875
0,491485,-45.829681396484375,-14.423164367675781,-32.165260314941406,-24.18628692626953
0,491488,86.08747100830078,-2.4400532245635986,31.40629768371582,52.56968688964844
0,491489,100.66365814208984,4.244592189788818,-9.772717475891113,68.4917221069336
0,491492,-98.06044006347656,32.45991897583008,-32.96018981933594,-27.20940589904785
0,491493,-66.85467529296875,14.162271499633789,12.493059158325195,-88.70049285888672
0,491496,63.4359016418457,-15.642316818237305,18.096302032470703,-101.04743194580078
0,491497,-3.7024333477020264,-1.827682614326477,-2.030421018600464,61.69526290893555
0,491500,27.770048141479492,7.335991382598877,10.67457103729248,217.71665954589844
0,491501,30.066709518432617,2.384828567504883,-6.128959655761719,-24.8013973236084
0,491504,-73.11827087402344,-18.093387603759766,-20.602758407592773,-155.1399383544922
0,491505,-21.48191261291504,-30.722007751464844,32.88231658935547,-8.474857330322266
0,491508,82.03590393066406,40.060298919677734,19.236068725585938,43.01198196411133
0,491509,36.374061584472656,20.019786834716797,-16.19910430908203,35.26178741455078
0,491512,-114.02898406982422,-46.21774673461914,-23.266511917114258,-43.96088790893555
0,491513,-53.1583137512207,16.802597045898438,-27.570425033569336,-39.29981231689453
0,491516,108.47792053222656,25.142475128173828,0.5044935941696167,66.07196807861328
0,491517,36.45732116699219,-27.059402465820312,17.569568634033203,8.85576343536377
0,491520,-43.221466064453125,-12.258338928222656,15.357575416564941,-53.83284378051758
0,491521,12.28984260559082,26.728736877441406,-0.677907407283783,32.06119918823242
0,491524,-9.78166389465332,19.244962692260742,-5.156369209289551,79.51264190673828
0,491525,-58.13508987426758,-15.144916534423828,0.9127016067504883,-17.93853759765625
0,491528,51.07538986206055,-9.349899291992188,7.851428031921387,-67.46195983886719
0,491529,84.1756591796875,-8.00584888458252,11.72846794128418,15.564739227294922
0,491532,-82.30363464355469,-3.164165496826172,-13.580881118774414,17.076448440551758
0,491533,-61.015647888183594,5.5542449951171875,2.5020220279693604,-16.120952606201172
0,491536,59.74901580810547,3.144638776779175,12.294933319091797,-31.64305305480957
0,491537,13.155319213867188,26.33586883544922,-30.818252563476562,-31.308828353881836
0,491540,-0.4118591547012329,-15.3402681350708,30.545881271362305,97.52151489257812
0,491541,43.17147445678711,-6.034629821777344,-0.024755951017141342,63.618019104003906
0,491544,-53.657997131347656,-5.238615989685059,-62.411766052246094,-138.5574493408203
0,491545,-109.26895141601562,-35.212276458740234,43.96181106567383,-59.672245025634766
0,491548,93.03687286376953,44.677528381347656,86.13671875,115.23825073242188
0,491549,91.45649719238281,-18.26559829711914,-27.901905059814453,0.18051032721996307
0,491552,-110.33412170410156,-27.425994873046875,-118.61986541748047,-121.40264892578125
0,491553,-49.96776580810547,66.28974914550781,13.863229751586914,28.092952728271484
0,491556,79.03608703613281,19.323474884033203,56.145381927490234,138.2364501953125
0,491557,42.711273193359375,-19.8121280670166,-15.356474876403809,22.18585968017578
0,491560,-22.515867233276367,-42.324005126953125,4.720434665679932,-88.66947174072266
0,491561,3.008275032043457,-23.288803100585938,-23.73809814453125,-50.1865348815918
0,491564,-21.028188705444336,29.623493194580078,0.427592009305954,55.48870849609375
0,491565,-63.589027404785156,13.053388595581055,31.170352935791016,41.061649322509766
0,491568,67.29117584228516,16.430858612060547,-0.11364997923374176,-26.106616973876953
0,491569,75.85693359375,-9.221964836120605,-11.636344909667969,-0.22099220752716064
0,491572,-95.55184936523438,-37.526939392089844,-21.25220489501953,24.644968032836914
0,491573,-44.655574798583984,18.162067413330078,29.601022720336914,48.02212905883789
0,491576,52.5052604675293,1.478432297706604,29.098651885986328,-45.93318557739258
0,491577,12.97476863861084,-1.9353411197662354,-19.962135314941406,-100.5085220336914
0,491580,0.2780410647392273,-7.384622573852539,-5.792253017425537,-13.377314567565918
0,491581,3.061586856842041,-49.96501159667969,-1.3689689636230469,-31.455204010009766
0,491586,58.748416900634766,42.434059143066406,10.234101295471191,38.53755187988281
0,491587,14.717912673950195,39.835994720458984,-10.557861328125,94.4957046508789
0,491588,-76.83435821533203,-24.495285034179688,-30.043880462646484,-49.83516311645508
0,491589,-7.5092010498046875,22.354305267333984,28.077173233032227,-32.59239959716797
0,491592,-52.81377029418945,0.8705204129219055,9.622570991516113,48.56836700439453
0,491593,-35.773040771484375,4.288750171661377,-25.4023494720459,17.172958374023438
0,491596,87.81536865234375,26.691194534301758,15.648214340209961,0.3841007947921753
0,491597,21.570621490478516,-35.08628845214844,12.206182479858398,-0.38201552629470825
0,491600,-11.427567481994629,-48.27525329589844,-12.22553539276123,29.30898666381836
0,491601,6.235443592071533,31.150846481323242,7.104825973510742,-1.8764158487319946
0,491604,-45.794227600097656,35.17075729370117,3.9792540073394775,-42.71900939941406
0,491605,-41.43450164794922,-6.7419304847717285,-40.65914535522461,-23.894115447998047
0,491608,82.6321029663086,8.419325828552246,-11.897354125976562,57.27370071411133
0,491609,91.14915466308594,-40.38449478149414,-2.9959652423858643,0.09847981482744217
0,491612,-124.57393646240234,-69.9144287109375,8.98694133758545,-57.280303955078125
0,491613,-79.26854705810547,19.049522399902344,35.34190368652344,43.00117111206055
0,491616,131.74127197265625,66.1270980834961,5.614705562591553,-43.07032012939453
0,491617,13.619704246520996,-6.469051361083984,4.047957897186279,-22.861740112304688
0,491620,-52.331912994384766,-1.9204908609390259,3.403897762298584,56.55210494995117
0,491621,6.901462554931641,-8.66748332977295,-5.713527679443359,-34.027061462402344
0,491624,-44.89082717895508,-14.607856750488281,-6.503180503845215,-41.81694412231445
0,491625,-31.1956729888916,44.0185546875,17.18191146850586,18.108057022094727
0,491628,91.4669418334961,13.524218559265137,15.416474342346191,93.40168762207031
0,491629,101.1890640258789,3.3959083557128906,-2.3021249771118164,23.570398330688477
0,491632,-94.85480499267578,-18.434249877929688,-27.673080444335938,-73.18761444091797
0,491633,-74.88180541992188,-7.505150318145752,-24.673572540283203,-4.232982158660889
0,491636,77.92935943603516,3.063322067260742,17.73832130432129,1.9136441946029663
0,491637,-1.6032395362854004,-35.25598907470703,6.411384105682373,-50.17412185668945
0,491640,-18.299331665039062,1.2586274147033691,-36.49462890625,80.45716857910156
0,491641,28.338359832763672,12.55241870880127,4.945383071899414,147.1885223388672
0,491644,-59.56134796142578,-14.686386108398438,15.712676048278809,-135.9376678466797
0,491645,-51.91962814331055,4.821718215942383,-23.795337677001953,-150.0226593017578
0,491648,107.58478546142578,39.67926025390625,52.793182373046875,129.37863159179688
0,491649,78.46855163574219,-33.517356872558594,8.003273010253906,53.4183349609375
0,491652,-118.81868743896484,-34.968544006347656,-67.70000457763672,-123.72152709960938
0,491653,-39.61675262451172,40.28459548950195,50.57034683227539,-141.75921630859375
0,491656,107.89397430419922,30.50505256652832,54.40843200683594,115.67242431640625
0,491657,-4.886186122894287,36.95657730102539,-46.812435150146484,277.7602844238281
0,491660,-44.85368728637695,-63.72221755981445,-21.02191162109375,-90.33417510986328
0,491661,21.240331649780273,-61.994815826416016,-8.19207763671875,-117.41790771484375
0,491664,-74.87804412841797,49.163455963134766,-34.4707145690918,-40.862396240234375
0,491665,-68.13633728027344,13.67623233795166,37.51355743408203,-118.30138397216797
0,491668,145.1870574951172,31.312402725219727,46.18886947631836,177.93853759765625
0,491669,92.07383728027344,21.773937225341797,-35.17929458618164,124.18275451660156
0,491672,-149.48976135253906,-76.70924377441406,-24.625797271728516,-145.78457641601562
0,491673,-96.78614807128906,-28.48493003845215,-12.036142349243164,-47.056095123291016
0,491676,111.71566772460938,82.01596069335938,20.87674903869629,63.922481536865234
0,491677,44.0525016784668,27.346349716186523,21.187103271484375,-25.20603370666504
0,491680,-3.9546499252319336,-50.11827850341797,4.306849002838135,-37.38254928588867
0,491681,67.03901672363281,8.311779022216797,51.398189544677734,35.51338195800781
0,491684,-116.00398254394531,-14.035120010375977,-63.302001953125,38.346561431884766
0,491685,-83.17337036132812,-41.08729553222656,-63.208778381347656,46.925628662109375
0,491688,163.60580444335938,40.578453063964844,111.29764556884766,-15.565285682678223
0,491689,44.527191162109375,5.552481651306152,41.52790832519531,-87.88980865478516
0,491692,-154.32240295410156,-37.504451751708984,-88.70021057128906,-9.429903984069824
0,491693,-35.83864212036133,11.252824783325195,-17.67802619934082,115.861572265625
0,491696,106.03031158447266,62.20933151245117,27.074872970581055,42.107662200927734
0,491697,5.338763236999512,-25.98861312866211,-12.852241516113281,-138.50413513183594
0,491700,-16.348161697387695,-52.64085006713867,-15.232924461364746,-49.91605758666992
0,491701,33.01988220214844,54.68273162841797,-3.6117467880249023,75.4468994140625
0,491704,-48.53849411010742,-16.017175674438477,-5.541904926300049,4.264261245727539
0,491705,-65.30162811279297,-29.21647834777832,-2.1776442527770996,14.59737491607666
0,491708,76.94389343261719,47.79908752441406,17.273618698120117,14.67638874053955
0,491709,98.35734558105469,9.32462215423584,29.643590927124023,84.91629028320312
0,491712,-105.78124237060547,-18.016799926757812,6.948671340942383,-35.620391845703125
0,491713,-88.02459716796875,-5.218287944793701,-25.63324546813965,-169.9361114501953
0,491716,118.72954559326172,-41.0560302734375,19.06540870666504,106.15785217285156
0,491717,62.2542839050293,5.635639190673828,7.776447772979736,96.56803894042969
0,491720,-68.97366333007812,79.37482452392578,-35.596031188964844,-131.8017578125
0,491721,-19.119718551635742,-16.028135299682617,3.406769037246704,-84.43576049804688
0,491724,-33.8604621887207,-85.09606170654297,18.84326934814453,18.962303161621094
0,491725,-50.08224868774414,-3.046505928039551,-14.608914375305176,63.84956741333008
0,491728,105.17806243896484,88.0542221069336,-30.276968002319336,74.58940124511719
0,491729,69.1762466430664,21.728473663330078,31.115501403808594,-16.980159759521484
0,491732,-132.54794311523438,-89.78781127929688,16.366485595703125,-83.30475616455078
0,491733,-38.356483459472656,10.153356552124023,-28.73181915283203,-7.7101640701293945
0,491736,73.4504623413086,49.622962951660156,-3.6753034591674805,68.05612182617188
0,491737,8.554064750671387,-45.201107025146484,8.19996166229248,18.655210494995117
0,491740,40.249576568603516,4.5516252517700195,43.941463470458984,-11.226101875305176
0,491741,-2.1557302474975586,18.522829055786133,14.718849182128906,-44.10941696166992
0,491744,-67.09068298339844,3.3613545894622803,-35.23854064941406,-2.998011827468872
0,491745,-4.969893455505371,22.032400131225586,-12.255873680114746,80.3667221069336
0,491748,73.07721710205078,-10.538431167602539,2.885735034942627,20.12973976135254
0,491750,34.10847854614258,-25.811561584472656,12.064441680908203,-79.2744369506836
0,491752,-106.57862091064453,-14.436808586120605,-18.421152114868164,-42.58935546875
0,491754,-30.600341796875,15.50522232055664,-32.176719665527344,87.47810363769531
0,491756,59.69395065307617,18.6993408203125,3.4364473819732666,-41.965755462646484
0,491758,6.551735877990723,1.3870543241500854,23.90072250366211,-115.23929595947266
0,491760,34.87833786010742,12.802295684814453,44.1531982421875,131.62692260742188
0,491762,-20.499134063720703,-15.995467185974121,-11.77701187133789,119.77976989746094
0,491765,-85.59333801269531,-43.96675491333008,-83.41972351074219,-84.22251892089844
0,491765,-31.084632873535156,-5.503832817077637,-25.24453353881836,-76.86569213867188
0,491768,127.97758483886719,22.356948852539062,103.61433410644531,25.49951934814453
0,491769,117.5413818359375,11.181570053100586,65.24774932861328,-8.881866455078125
0,491772,-148.59564208984375,15.392261505126953,-80.8476333618164,-32.23853302001953
0,491773,-71.03838348388672,-2.03261399269104,-46.20790100097656,49.04011154174805
0,491776,123.67527770996094,-22.145885467529297,38.76511764526367,-24.063613891601562
0,491777,3.5110390186309814,11.878827095031738,9.876524925231934,-31.167882919311523
0,491780,-74.12907409667969,14.482102394104004,-0.9747255444526672,84.57106018066406
0,491781,-5.876913070678711,-3.556979179382324,-0.2200469970703125,117.10334014892578
0,491784,-25.748498916625977,-34.473609924316406,-18.676176071166992,-98.29505157470703
0,491785,-36.496768951416016,-21.89779281616211,16.851848602294922,-200.90692138671875
0,491788,108.64219665527344,59.71706771850586,11.727923393249512,87.90772247314453
0,491789,83.07219696044922,39.24087905883789,-2.682356119155884,76.85657501220703
0,491792,-110.97132873535156,-28.378395080566406,-11.299834251403809,-17.5579776763916
0,491793,-49.71542739868164,-16.69430923461914,-22.197324752807617,39.61857223510742
0,491796,51.15963363647461,-7.603584289550781,27.40654754638672,-25.215368270874023
0,491797,-8.499381065368652,2.528381586074829,7.328792572021484,-63.61112594604492
0,491800,40.96049880981445,17.119619369506836,-16.911489486694336,24.565523147583008
0,491801,52.18878936767578,6.272848606109619,23.888809204101562,88.54301452636719
0,491804,-94.42236328125,-1.9628771543502808,0.5472171306610107,-29.759281158447266
0,491805,-66.74885559082031,-1.0956788063049316,-34.58975601196289,-66.38728332519531
0,491808,129.61614990234375,-10.624367713928223,6.1713643074035645,51.1004638671875
0,491809,70.16619110107422,-14.449174880981445,3.7318785190582275,37.99129867553711
0,491812,-167.23031616210938,-29.06772232055664,-39.102081298828125,-80.03929901123047
0,491813,-54.48865509033203,-19.051910400390625,30.253725051879883,-13.349162101745605
0,491816,111.32865905761719,53.88648223876953,51.63357162475586,96.5976791381836
0,491817,13.423589706420898,17.969282150268555,-13.366434097290039,-3.9214882850646973
0,491820,7.918733596801758,-48.23670196533203,-24.56317710876465,-113.79376220703125
0,491821,20.461111068725586,13.632139205932617,-4.835733413696289,1.7770761251449585
0,491824,-58.24309158325195,46.902740478515625,6.010312080383301,78.3335952758789
0,491825,-67.49502563476562,-17.63153648376465,-8.744709014892578,-16.31854248046875
0,491828,78.58081817626953,-27.11020851135254,6.955496311187744,-25.046762466430664
0,491829,88.91270446777344,0.5777128338813782,-8.2363920211792,27.855031967163086
0,491832,-127.19445037841797,5.937095642089844,-17.41492462158203,8.488839149475098
0,491833,-56.23646926879883,13.554443359375,43.82061004638672,2.3793222904205322
0,491836,104.85003662109375,-4.832754611968994,7.254441738128662,1.563686728477478
0,491837,11.04743480682373,-17.912220001220703,-49.2378044128418,-43.193077087402344
0,491840,-0.3159055709838867,24.046781539916992,14.344386100769043,9.305887222290039
0,491841,14.561725616455078,29.708703994750977,35.78065872192383,36.1178092956543
0,491844,-69.95463562011719,-52.60158157348633,-32.696754455566406,-22.963626861572266
0,491845,-19.86996841430664,-14.557002067565918,-14.353050231933594,1.0030215978622437
0,491848,86.84492492675781,51.98590087890625,41.82997512817383,5.448527812957764
0,491849,40.06856155395508,-31.248455047607422,-17.118026733398438,-52.18951416015625
0,491852,-102.83491516113281,-51.962276458740234,-40.18497848510742,-17.77001190185547
0,491853,-61.509910583496094,33.36606979370117,22.899520874023438,109.11077117919922
0,491856,97.28125762939453,65.73533630371094,11.066502571105957,36.52713394165039
0,491857,37.91773223876953,-6.68001127243042,-0.9162819981575012,-99.70291137695312
0,491860,-21.44277572631836,-37.04436492919922,5.353327751159668,-0.8298078179359436
0,491861,15.858235359191895,15.060402870178223,-9.13366413116455,41.344329833984375
0,491864,-68.47026824951172,-1.9888322353363037,5.383211135864258,-14.499275207519531
0,491865,-63.66489028930664,-23.936290740966797,6.500548839569092,-20.20828628540039
0,491868,93.2259521484375,11.177286148071289,-4.625025272369385,14.242706298828125
0,491869,84.18629455566406,35.70707321166992,15.438119888305664,7.744848728179932
0,491872,-98.5642318725586,-31.3648681640625,17.118104934692383,-32.2437858581543
0,491873,-54.49192428588867,-38.16448974609375,-42.702632904052734,17.35645866394043
0,491876,71.92952728271484,42.68185806274414,-29.46591567993164,16.851152420043945
0,491877,7.241702556610107,5.130890846252441,40.07649612426758,-29.399471282958984
0,491880,15.02826976776123,-17.9765682220459,26.13895034790039,9.007747650146484
0,491881,8.87185001373291,19.56926155090332,-10.675762176513672,0.32319411635398865
0,491884,-56.59550857543945,-5.605944633483887,-7.718925476074219,42.580684661865234
0,491885,-27.531078338623047,-8.301011085510254,-14.611598014831543,32.373477935791016
0,491888,80.2591781616211,5.334482192993164,-3.117814064025879,-68.21521759033203
0,491889,67.0383529663086,-5.445637226104736,8.709431648254395,-53.79270553588867
0,491892,-126.27884674072266,35.245338439941406,-13.957213401794434,10.660748481750488
0,491893,-44.213802337646484,-22.61716079711914,14.959239959716797,77.92162322998047
0,491896,83.41291809082031,-67.42182159423828,1.2566955089569092,18.922990798950195
0,491897,-13.853960037231445,33.44923782348633,-26.71076774597168,-40.089447021484375
0,491900,4.851355075836182,43.34244155883789,11.592679977416992,-26.002580642700195
0,491901,24.370159149169922,2.3850042819976807,14.463887214660645,-0.05721939727663994
0,491904,-51.271484375,-17.08102035522461,16.930513381958008,16.442842483520508
0,491905,-56.922760009765625,-28.74123764038086,-16.786026000976562,-37.40388488769531
0,491908,100.8941650390625,29.836944580078125,-7.387359619140625,24.947553634643555
0,491909,80.27577209472656,1.568180799484253,29.093124389648438,99.41404724121094
0,491912,-135.1910400390625,-34.17050552368164,-26.817096710205078,-53.82607650756836
0,491913,-21.48784828186035,47.227256774902344,-1.4973307847976685,-88.77511596679688
0,491916,88.0881576538086,1.1802390813827515,19.179431915283203,9.673604965209961
0,491917,-10.525784492492676,-61.744449615478516,-17.176132202148438,12.676793098449707
0,491920,-15.22575855255127,11.075262069702148,-5.384240627288818,25.417343139648438
0,491921,0.42568111419677734,52.41743087768555,4.219806671142578,-1.2811733484268188
0,491924,-23.456707000732422,-0.05255322530865669,19.328397750854492,5.992420673370361
0,491925,-14.735930442810059,-24.524633407592773,-1.6549066305160522,28.74233627319336
0,491928,64.599853515625,7.476837635040283,-21.901540756225586,0.6272791028022766
0,491929,36.137725830078125,5.778270721435547,-3.2179996967315674,31.429141998291016
0,491932,-95.01042938232422,0.4240446388721466,8.14120864868164,-39.326080322265625
0,491933,-37.509803771972656,-2.9235544204711914,15.839409828186035,-97.05853271484375
0,491936,61.89339828491211,-17.725627899169922,-18.641456604003906,52.87724304199219
0,491937,19.139385223388672,-2.5921363830566406,1.4718577861785889,110.96955108642578
0,491940,3.308093786239624,11.911947250366211,22.47130584716797,-57.90807342529297
0,491941,11.159781455993652,0.8164646625518799,-23.570680618286133,-113.04808807373047
0,491944,-29.083166122436523,-6.216142177581787,-3.2199320793151855,52.96715545654297
0,491945,-34.49740219116211,-10.004034042358398,15.176249504089355,57.22810745239258
0,491948,56.78140640258789,-18.444093704223633,0.7105717062950134,-5.462392807006836
0,491949,33.8675651550293,6.408555507659912,-23.039562225341797,16.052845001220703
0,491952,-103.19408416748047,29.491195678710938,-25.763103485107422,-46.478965759277344
0,491953,-30.93373680114746,-10.99222469329834,28.912734985351562,-20.325597763061523
1,491959,85.2455825805664,-5.6712422370910645,30.971139907836914,32.9044189453125
1,491959,44.34416198730469,43.6142692565918,-0.07445195317268372,-31.88052749633789
1,491960,-11.416998863220215,-9.459077835083008,-8.22746467590332,7.516590595245361
1,491961,-40.512298583984375,-25.8581600189209,-3.8681564331054688,48.790260314941406
1,491964,-32.14024353027344,19.118810653686523,7.580230712890625,-30.455150604248047
1,491965,6.703985214233398,14.174081802368164,10.006776809692383,-28.057857513427734
1,491968,37.63798522949219,-1.769260287284851,-12.137751579284668,36.090728759765625
1,491969,13.885039329528809,-16.15224838256836,-18.368635177612305,16.709735870361328
1,491972,-109.23857116699219,-27.17715072631836,-1.957401156425476,-33.785736083984375
1,491973,-33.87342834472656,-16.9033203125,-5.792926788330078,-4.337207317352295
1,491976,129.48033142089844,42.95556640625,1.1594130992889404,10.230441093444824
1,491977,31.31890296936035,12.44493293762207,-1.0199840068817139,-2.475348472595215
1,491980,3.3836612701416016,-23.23993682861328,24.575973510742188,28.429990768432617
1,491981,-7.530595779418945,3.6126317977905273,19.606430053710938,10.249963760375977
1,491984,-94.94002532958984,-24.40858268737793,-33.152793884277344,-25.131900787353516
1,491985,4.507289409637451,-2.974259376525879,-25.18353843688965,-28.25086212158203
1,491988,86.19669342041016,15.04716682434082,1.9947373867034912,-63.896820068359375
1,491989,-5.112490177154541,23.781280517578125,16.560955047607422,-16.87661361694336
1,491992,-75.17182159423828,20.198978424072266,38.243690490722656,138.29421997070312
1,491993,14.846116065979004,-25.828243255615234,28.336353302001953,113.0376968383789
1,491996,63.889583587646484,-11.538674354553223,-38.830745697021484,-96.20364379882812
1,491997,-38.27112579345703,-20.34384536743164,-31.764259338378906,-96.30208587646484
1,492000,8.242212295532227,-26.549579620361328,-12.409001350402832,52.86431884765625
1,492001,36.835472106933594,46.454734802246094,1.6302745342254639,13.68365478515625
1,492004,-78.69155883789062,28.49599266052246,30.593002319335938,-15.042020797729492
1,492005,1.619378685951233,-50.38621520996094,-6.297818660736084,29.505615234375
1,492008,104.42194366455078,16.46965980529785,-23.323965072631836,-20.666467666625977
1,492009,3.510448932647705,59.021812438964844,-1.750726342201233,-28.760482788085938
1,492012,-105.70069122314453,-41.8973388671875,24.806550979614258,24.642183303833008
1,492013,-24.479520797729492,-21.42803192138672,27.073360443115234,-17.036563873291016
1,492016,75.68254852294922,48.80326461791992,-20.091869354248047,-7.612739562988281
1,492017,-19.199766159057617,-9.52085018157959,-31.67242431640625,31.5965576171875
1,492020,-26.710100173950195,-34.94145202636719,36.720211029052734,-37.55979537963867
1,492021,53.821929931640625,7.358438968658447,15.995027542114258,6.549875259399414
1,492024,-26.44215965270996,1.7392222881317139,-61.13120651245117,7.836231708526611
1,492025,-35.539894104003906,-4.671925067901611,-0.37887242436408997,-35.03154373168945
1,492028,78.01438903808594,-0.3898714780807495,38.746788024902344,11.492217063903809
1,492029,22.838621139526367,-20.896589279174805,44.058528900146484,-6.612534046173096
1,492032,-106.81340026855469,33.05000686645508,5.196922302246094,12.688576698303223
1,492033,-9.525566101074219,33.13547897338867,-89.04134368896484,139.58346557617188
1,492036,53.106201171875,-36.56865310668945,15.672924995422363,-34.47873306274414
1,492037,-20.7635440826416,-7.3201446533203125,40.54248809814453,-218.597900390625
1,492040,54.69569778442383,-23.871280670166016,-47.28830337524414,140.7625274658203
1,492041,10.723464012145996,-7.269002437591553,1.8377102613449097,96.00455474853516
1,492044,-92.49564361572266,40.351016998291016,39.212493896484375,-118.45581817626953
1,492045,4.9622626304626465,-13.104480743408203,4.333131790161133,44.671226501464844
1,492048,76.13711547851562,-5.032883644104004,-14.813997268676758,4.681265830993652
1,492049,-2.2303051948547363,10.077398300170898,-27.64723777770996,-47.93680191040039
1,492052,-99.30802154541016,-25.61101531982422,41.28989791870117,28.639198303222656
1,492053,18.188228607177734,26.919416427612305,41.2259635925293,24.53740692138672
1,492056,79.92514038085938,62.004356384277344,-10.95023250579834,-35.74851608276367
1,492057,8.846763610839844,-4.849147796630859,3.8594908714294434,-28.026737213134766
1,492060,-14.093152046203613,-88.64436340332031,-95.28699493408203,26.760570526123047
1,492061,-72.67536926269531,-53.87562942504883,-21.16128158569336,29.305217742919922
1,492316,-76.67759704589844,99.47649383544922,93.56851196289062,-65.35232543945312
1,492317,-60.139320373535156,5.579824447631836,-24.909093856811523,-6.579507827758789
1,492320,38.78587341308594,-31.90894889831543,-37.46652603149414,46.63116455078125
1,492321,131.20266723632812,56.526309967041016,10.511707305908203,-21.28266716003418
1,492324,91.362060546875,-28.742570877075195,25.558944702148438,6.689582824707031
1,492325,56.281593322753906,-13.607853889465332,27.007766723632812,27.404438018798828
1,493286,115.98609161376953,39.56581497192383,-10.828021049499512,30.289522171020508
1,493288,67.30583953857422,-2.506648302078247,14.059730529785156,-8.88829231262207
1,493290,-229.04537963867188,-43.70528030395508,-11.709352493286133,-41.9239616394043
1,493292,-215.51461791992188,1.82942795753479,-33.62175750732422,-17.971481323242188
1,493294,-3.1445186138153076,25.88898468017578,4.626162052154541,12.249052047729492
1,493296,-11.380716323852539,-11.71689224243164,3.462501049041748,8.493847846984863
1,493298,13.938773155212402,-9.727448463439941,12.321401596069336,-13.226436614990234
1,493300,89.91197967529297,1.0803624391555786,15.11950969696045,17.683940887451172
1,493302,56.93962097167969,3.1485955715179443,-23.575971603393555,-7.437865257263184
1,493304,14.300884246826172,-20.049959182739258,-14.92384147644043,-23.18893051147461
1,493306,111.29793548583984,-9.628397941589355,16.266048431396484,37.314605712890625
1,493308,60.30644226074219,29.388484954833984,1.7009145021438599,11.057546615600586
1,493310,-189.57778930664062,-14.802517890930176,-21.595422744750977,-13.465217590332031
1,493312,-147.2664794921875,-22.915485382080078,-3.8849666118621826,-3.232020139694214
1,493314,40.17942810058594,24.43732452392578,24.028575897216797,-22.80681800842285
1,493316,17.673463821411133,9.04769229888916,-8.713103294372559,-15.728690147399902
1,493318,25.149581909179688,-5.3949127197265625,-12.553074836730957,34.015838623046875
1,493320,42.184078216552734,4.813213348388672,7.32974910736084,53.42705535888672
1,493322,-10.288527488708496,8.336247444152832,19.994260787963867,-27.955615997314453
1,493324,10.145334243774414,-16.366138458251953,26.87774658203125,-58.19278335571289
1,493326,101.20674133300781,7.0241618156433105,-12.381912231445312,19.546947479248047
1,493328,66.37322998046875,20.108388900756836,-18.06086540222168,17.715898513793945
1,493330,-176.53744506835938,-30.41608428955078,-30.013999938964844,-25.149110794067383
1,493332,-103.08089447021484,-4.703764915466309,0.015350846573710442,-15.35287094116211
1,493334,105.21475982666016,31.04697608947754,48.70046615600586,23.444293975830078
1,493336,-16.351526260375977,13.610695838928223,-7.641082763671875,56.67609786987305
1,493338,-26.411806106567383,-22.823097229003906,-17.62291145324707,-11.333616256713867
1,493340,72.95256042480469,-9.063648223876953,9.817541122436523,-45.399513244628906
1,493342,-18.23713493347168,14.021317481994629,-0.5511593818664551,15.196793556213379
1,493344,-48.875892639160156,10.572650909423828,-9.38012409210205,13.253355979919434
1,493346,115.6773910522461,1.1017831563949585,11.567691802978516,13.82864761352539
1,493348,102.76954650878906,-22.165592193603516,11.26362133026123,3.629089832305908
1,493350,-154.70437622070312,3.989628791809082,-20.540843963623047,-53.90766525268555
1,493352,-107.69840240478516,2.8032429218292236,2.964449167251587,-6.086632251739502
1,493354,65.52175903320312,-20.092897415161133,4.593904495239258,42.555301666259766
1,493356,-11.37939167022705,4.010709762573242,-29.188793182373047,8.389071464538574
1,493358,-5.561217308044434,12.899870872497559,2.8971168994903564,-2.766018867492676
1,493360,53.28242492675781,-3.4473202228546143,16.123126983642578,-12.000398635864258
1,493362,-11.754091262817383,9.50131607055664,-8.411142349243164,-52.42448425292969
1,493364,-29.31629753112793,4.193226337432861,20.55239486694336,-31.802963256835938
1,493366,91.2012710571289,-21.230976104736328,-0.0621613971889019,81.46237182617188
1,493368,73.0003433227539,2.3435046672821045,9.18980884552002,51.4883918762207
1,493370,-142.46142578125,-0.7449416518211365,14.794646263122559,-56.127986907958984
1,493372,-90.78022766113281,5.3884172439575195,-43.378536224365234,-22.321941375732422
1,493374,94.32666778564453,21.006860733032227,11.106120109558105,-1.2180100679397583
1,493376,14.859410285949707,-42.81351089477539,14.57034683227539,39.612125396728516
1,493378,7.361851692199707,0.5706576108932495,-24.261682510375977,22.626224517822266
1,493380,24.471864700317383,61.06686019897461,11.46806526184082,-53.902801513671875
1,493382,-80.45660400390625,-35.676727294921875,14.53131103515625,31.08843421936035
1,493384,-23.187047958374023,-41.55048751831055,-7.8463921546936035,7.962271690368652
1,493386,84.81684875488281,36.0644645690918,7.656026840209961,-43.08341979980469
1,493388,47.332149505615234,2.7080960273742676,-16.939069747924805,-6.027701377868652
1,493390,-72.30587768554688,-17.60481071472168,-36.43726348876953,1.370600938796997
1,493392,-40.6270751953125,28.78896141052246,42.76205062866211,80.51276397705078
1,493393,41.65216827392578,13.131502151489258,24.788249969482422,16.289831161499023
1,493396,11.147380828857422,-6.176698684692383,-35.4546012878418,-96.25458526611328
1,493397,-15.37456226348877,-38.36445236206055,-9.917820930480957,-33.860164642333984
1,493400,40.0506477355957,-10.520763397216797,11.48591423034668,46.59104919433594
1,493401,-0.1686716228723526,54.876853942871094,-1.5017008781433105,38.414955139160156
1,493404,-102.63256072998047,-4.654229640960693,-7.381847858428955,-35.50983428955078
1,493405,53.503379821777344,-22.756908416748047,19.42945098876953,-57.55898666381836
1,493408,116.36486053466797,2.769202947616577,2.7423250675201416,35.14531707763672
1,493409,-46.504573822021484,-4.419398307800293,-17.055164337158203,76.63618469238281
1,493412,-95.08834838867188,3.9734652042388916,6.836235523223877,-31.786104202270508
1,493413,-16.884780883789062,15.09985065460205,21.321752548217773,-41.022586822509766
1,493416,46.82925033569336,3.328097343444824,-1.9206386804580688,-1.9605391025543213
1,493417,5.340198040008545,-16.054433822631836,-22.377838134765625,18.489334106445312
1,493420,13.88414192199707,-26.846147537231445,-10.275036811828613,22.74385643005371
1,493422,-1.214053988456726,-6.724268913269043,-0.09409326314926147,2.3598814010620117
1,493424,-57.604576110839844,19.58995246887207,-0.8463096022605896,25.862905502319336
1,493426,49.16530227661133,31.360246658325195,22.52910041809082,-13.171966552734375
1,493428,99.27543640136719,22.526782989501953,30.610788345336914,-7.583804607391357
1,493430,-75.08100891113281,-64.10144805908203,-55.32858657836914,-8.448637962341309
1,493432,-98.35955047607422,-26.16396713256836,-23.985570907592773,-42.66336441040039
1,493434,49.9702033996582,64.75851440429688,58.13969039916992,-18.708105087280273
1,493436,7.875612735748291,-6.179256916046143,-24.310943603515625,7.387031078338623
1,493438,-0.47229716181755066,-5.8681230545043945,-16.460460662841797,45.443389892578125
1,493440,37.34691619873047,24.018558502197266,43.27309799194336,53.78557586669922
1,493442,-20.468963623046875,-37.163330078125,0.7987619638442993,-24.088172912597656
1,493444,-11.17130184173584,-15.409512519836426,-23.854597091674805,-76.23570251464844
1,493446,74.40390014648438,25.469226837158203,22.55402946472168,16.228736877441406
1,493448,57.067359924316406,23.776668548583984,35.1153678894043,47.21553039550781
1,493450,-137.57501220703125,5.56345796585083,-54.33464050292969,-32.92599868774414
1,493452,-85.66205596923828,-53.786102294921875,-35.169979095458984,3.009502410888672
1,493454,100.98439025878906,6.833045482635498,23.342283248901367,10.875443458557129
1,493456,37.30611038208008,37.755088806152344,3.2395408153533936,-16.312625885009766
1,493458,-20.6895694732666,-36.2706413269043,4.733815670013428,30.900114059448242
1,493460,4.665738105773926,11.446751594543457,-4.240285873413086,6.939180374145508
1,493462,-35.09400939941406,25.283315658569336,27.464752197265625,-28.74828338623047
1,493464,-51.00168991088867,-28.997234344482422,36.62641906738281,22.898035049438477
1,493466,105.67735290527344,-3.56669282913208,-17.225576400756836,13.234969139099121
1,493468,81.53740692138672,14.904582977294922,-30.965213775634766,-58.772178649902344
1,493470,-158.32803344726562,1.6013426780700684,-53.79623794555664,13.108508110046387
1,493472,-64.67436981201172,7.065029621124268,-45.413936614990234,19.47538185119629
1,493474,94.68663024902344,3.135361671447754,29.217144012451172,-29.765766143798828
1,493476,-20.926801681518555,-26.13459587097168,36.42198944091797,24.298479080200195
1,493478,1.861266016960144,-17.66974639892578,26.19576644897461,10.607843399047852
1,493480,99.28060913085938,38.9406852722168,41.59952926635742,-2.3069612979888916
1,493482,-61.992835998535156,-12.010167121887207,-31.905235290527344,-11.610733032226562
1,493484,-105.7781982421875,-52.10986328125,-26.471391677856445,-7.989510536193848
1,493486,112.57498931884766,39.62588119506836,52.177894592285156,11.168155670166016
1,493488,107.66429138183594,68.90497589111328,34.03794479370117,2.0187041759490967
1,493490,-125.48413848876953,-24.83735466003418,-18.185941696166992,-8.36826229095459
1,493492,-94.27782440185547,-75.8399429321289,-46.864784240722656,-31.864160537719727
1,493494,121.54420471191406,39.642539978027344,25.594879150390625,28.935773849487305
1,493496,64.39092254638672,51.29515075683594,22.2669620513916,45.2151985168457
1,493498,-70.81570434570312,-43.97835922241211,-72.15708923339844,-18.06951141357422
1,493500,-7.461740493774414,-12.926167488098145,-50.743682861328125,-29.963119506835938
1,493502,-30.451480865478516,13.00967025756836,2.4721181392669678,15.481545448303223
1,493504,-78.04346466064453,5.383265018463135,31.488351821899414,27.94193458557129
1,493506,80.25749206542969,4.050583362579346,38.485069274902344,-29.55813980102539
1,493508,97.37102508544922,-14.43089771270752,11.065980911254883,-13.909379959106445
1,493510,-100.28059387207031,-24.422969818115234,-0.9283519983291626,24.435304641723633
1,493512,-54.66853332519531,28.096677780151367,21.523387908935547,6.587989807128906
1,493514,95.96366119384766,14.549223899841309,28.470911026000977,-4.961391925811768
1,493516,11.656511306762695,-52.65208435058594,-17.753637313842773,-18.99546241760254
1,493518,-2.633204698562622,29.1113224029541,-27.565773010253906,-15.062612533569336
1,493520,17.53465461730957,28.062768936157227,-24.715002059936523,-11.483317375183105
1,493522,-79.71946716308594,-51.46612548828125,-47.85776901245117,4.301955223083496
1,493524,-59.963531494140625,9.969135284423828,-0.9449605941772461,23.56631088256836
1,493526,83.20681762695312,65.45601654052734,73.3618392944336,4.970617294311523
1,493528,108.0474624633789,8.609810829162598,20.623973846435547,53.44872283935547
1,493529,-56.082035064697266,-83.72978973388672,-85.02323913574219,-5.67956018447876
1,493532,-97.06240844726562,-17.590227127075195,-15.621641159057617,-88.68909454345703
1,493533,21.523555755615234,58.28097152709961,6.440632343292236,6.853281021118164
1,493536,7.205496788024902,-0.58356773853302,-7.689820766448975,36.53888702392578
1,493537,-8.914133071899414,-1.3469974994659424,62.898929595947266,46.500762939453125
1,493540,84.5615005493164,1.726131796836853,62.63353729248047,35.991455078125
1,493541,-19.873245239257812,2.16428542137146,47.57495880126953,-64.76873779296875
1,493544,-99.27008819580078,17.911148071289062,-29.07975196838379,-65.48450469970703
1,493545,67.9007339477539,-5.472562789916992,-56.40096664428711,13.916956901550293
1,493548,105.9730224609375,-18.262500762939453,-4.603397846221924,38.80841827392578
1,493549,-58.648014068603516,-6.2489423751831055,-16.4592342376709,-3.3553507328033447
1,493552,-100.89700317382812,2.9153454303741455,31.22488784790039,-29.66758155822754
1,493553,51.4556884765625,9.787185668945312,77.09516143798828,-9.12333869934082
1,493556,54.28602981567383,0.5897860527038574,-56.52317428588867,27.441856384277344
1,493557,-43.15435791015625,-20.109481811523438,-128.0028076171875,23.00065803527832
1,493560,-5.466026782989502,7.170621395111084,-27.039892196655273,-1.449074625968933
1,493561,-59.31023406982422,-9.808391571044922,13.75212574005127,-28.862699508666992
1,493564,-57.18000793457031,-14.763768196105957,7.411365032196045,-13.25844669342041
1,493565,107.70419311523438,49.440975189208984,65.11795806884766,34.560489654541016
1,493568,90.7248306274414,-15.127427101135254,60.4659309387207,-3.522205114364624
1,493569,-21.84508514404297,-45.44081497192383,-15.43836784362793,-5.604348659515381
1,493573,-111.27692413330078,39.9067268371582,12.915860176086426,38.62040328979492
1,493574,-40.29793930053711,-4.525729179382324,-6.295346736907959,11.322859764099121
1,493575,89.57520294189453,-18.872211456298828,-67.24762725830078,-63.37546157836914
1,493578,20.46071434020996,23.93980598449707,-25.361589431762695,-45.98377990722656
1,493579,10.426875114440918,5.023184299468994,15.306781768798828,55.2421875
1,493582,-8.363518714904785,4.27335786819458,51.406402587890625,40.48469543457031
1,493583,-78.27348327636719,-27.752378463745117,9.927563667297363,-15.800924301147461
1,493586,68.0811767578125,-1.9971721172332764,-20.25261688232422,-13.95061206817627
1,493587,98.14500427246094,28.101409912109375,6.736667633056641,-22.008325576782227
1,493590,-127.23985290527344,-7.359135627746582,11.711928367614746,-3.46508526802063
1,493591,-41.502410888671875,19.706172943115234,43.03419494628906,32.525657653808594
1,493594,105.51471710205078,-5.683018684387207,1.301699161529541,-1.488616704940796
1,493595,-27.482202529907227,-23.79539680480957,-13.637584686279297,-24.777122497558594
1,493598,-46.600677490234375,1.5676227807998657,-50.81681823730469,-35.80492401123047
1,493599,21.738739013671875,-8.715006828308105,-86.24169921875,17.710237503051758
1,493602,-24.773115158081055,-1.7632167339324951,-12.549101829528809,50.691551208496094
1,493603,-84.86536407470703,-23.89459228515625,-15.669892311096191,-54.88937759399414
1,493606,83.30804443359375,39.996360778808594,96.2457504272461,20.626432418823242
1,493607,162.66827392578125,49.42220687866211,135.56234741210938,106.11221313476562
1,493610,-109.16316986083984,-68.73385620117188,-42.306983947753906,-32.213191986083984
1,493611,-102.3175048828125,-18.935943603515625,-71.78739166259766,-66.53426361083984
1,493614,94.98944854736328,33.73204803466797,-54.79758071899414,42.942230224609375
1,493615,8.379798889160156,3.4681437015533447,5.691274166107178,-22.759078979492188
1,493618,-13.499519348144531,3.8423473834991455,74.46656036376953,-62.95305252075195
1,493619,28.037628173828125,3.211965322494507,10.505043983459473,73.49308013916016
1,493622,-34.69053649902344,25.63565444946289,11.459296226501465,7.4024977684021
1,493623,-63.3558464050293,-31.774194717407227,30.344728469848633,-66.12626647949219
1,493626,65.79232788085938,-29.62468719482422,-40.077205657958984,49.69596481323242
1,493627,91.71842193603516,58.27181625366211,-54.74153518676758,17.18288230895996
1,493630,-150.4171905517578,-21.506980895996094,-38.19871520996094,-73.1686019897461
1,493631,-75.35489654541016,-42.06654739379883,-11.416413307189941,-1.135007619857788
1,493634,141.2795867919922,66.37394714355469,82.81001281738281,40.61719512939453
1,493635,46.26039505004883,44.59779357910156,106.34293365478516,24.711936950683594
1,493638,4.387184143066406,-50.26755142211914,-33.374942779541016,7.583827972412109
1,493639,4.015770435333252,-40.17539596557617,-116.37833404541016,-50.90152359008789
1,493642,-98.66304016113281,2.3796920776367188,-106.3986587524414,-19.747779846191406
1,493643,-86.15904998779297,-4.39021110534668,-77.33168029785156,10.336252212524414
1,493646,83.99263000488281,-5.942379474639893,153.11521911621094,26.891477584838867
1,493647,117.81148529052734,6.28305196762085,146.966064453125,119.55016326904297
1,493650,-69.18295288085938,24.275678634643555,-60.03517532348633,2.7398364543914795
1,493651,-72.73514556884766,-8.054825782775879,-12.07094955444336,-174.43800354003906
1,493654,48.139007568359375,-21.485904693603516,-3.641878843307495,-70.20133209228516
1,493655,41.18848419189453,18.069713592529297,-7.149980545043945,95.21019744873047
1,493658,20.049306869506836,-26.66487693786621,42.13359069824219,53.33594512939453
1,493659,3.668564558029175,13.086297988891602,81.38137817382812,-4.570514678955078
1,493662,-43.39180374145508,54.47594451904297,8.345885276794434,39.27716827392578
1,493663,-64.6247787475586,-20.46696662902832,-111.6253662109375,-29.245824813842773
1,493666,4.624908924102783,-5.012417793273926,-124.53617095947266,-87.66663360595703
1,493667,37.19123840332031,-10.965400695800781,-75.64785766601562,-34.346012115478516
1,493670,-17.72795867919922,0.0064858924597501755,120.30618286132812,69.78602600097656
1,493671,10.906606674194336,14.189764976501465,124.42743682861328,110.06819152832031
1,493674,32.28253936767578,-40.65736770629883,-85.47039794921875,-38.04300308227539
1,493675,-24.040491104125977,-10.502671241760254,-57.56636428833008,-79.07087707519531
1,493678,20.46974754333496,16.43619728088379,46.330318450927734,59.33811950683594
1,493679,21.56974220275879,23.570634841918945,50.458492279052734,50.3338623046875
1,493682,-73.56220245361328,4.662164688110352,68.27377319335938,-54.343017578125
1,493683,-0.1136799082159996,-20.285266876220703,31.36733055114746,-27.740196228027344
1,493686,117.91107940673828,38.350608825683594,8.16470718383789,-31.936447143554688
1,493687,53.17508316040039,16.201025009155273,-25.632328033447266,-8.589561462402344
1,493690,-143.61822509765625,-50.38473129272461,-199.03199768066406,72.16488647460938
1,493691,-112.71017456054688,-57.0577392578125,-172.45068359375,23.591440200805664
1,493694,81.12879943847656,17.5941162109375,47.500953674316406,-57.737701416015625
1,493695,12.282407760620117,73.54407501220703,100.07664489746094,-15.91691780090332
1,493698,12.469209671020508,0.6845289468765259,148.79913330078125,37.757171630859375
1,493699,101.0159912109375,-8.147485733032227,143.12457275390625,-10.660383224487305
1,493702,-64.95403289794922,-7.020378112792969,-57.04943084716797,-8.667171478271484
1,493703,-119.5539779663086,-46.01554870605469,-97.72122192382812,-34.15163040161133
1,493706,108.41905975341797,1.972822904586792,58.865047454833984,-18.19202423095703
1,493707,130.62464904785156,56.60244369506836,34.265472412109375,28.892379760742188
1,493710,-138.877197265625,2.1963343620300293,-179.95761108398438,-20.680768966674805
1,493711,-69.21150207519531,-48.129730224609375,-131.34393310546875,59.15846252441406
1,493714,125.98424530029297,35.08566665649414,118.3731918334961,82.65040588378906
1,493715,-33.86091613769531,5.592294216156006,137.84693908691406,-58.58025360107422
1,493718,-43.205421447753906,-42.09461212158203,45.121986389160156,-53.69194793701172
1,493719,61.75166320800781,32.28075408935547,-12.636369705200195,17.403135299682617
1,493722,-36.038387298583984,-9.041601181030273,-135.5545196533203,2.9727487564086914
1,493723,-81.65162658691406,-21.640586853027344,-84.79422760009766,-56.362571716308594
1,493726,53.62261962890625,-5.5922698974609375,103.01200103759766,47.84623336791992
1,493727,83.84410095214844,12.880474090576172,77.7409896850586,92.87042999267578
1,493730,-77.89234924316406,29.931072235107422,-68.59223937988281,-71.56620788574219
1,493731,-40.68168258666992,-30.1223201751709,-50.89081954956055,-42.58968734741211
1,493734,94.23709106445312,26.47279167175293,132.78919982910156,52.44094467163086
1,493736,-9.265942573547363,12.916244506835938,86.14382934570312,15.285456657409668
1,493738,-35.1307258605957,-42.26240158081055,-107.19703674316406,-42.78364944458008
1,493740,43.734779357910156,7.308315753936768,-12.6210298538208,-35.8951530456543
1,493742,-27.226728439331055,3.671111583709717,6.496997833251953,-27.187299728393555
1,493744,-45.40077209472656,20.629451751708984,-125.10114288330078,9.740535736083984
1,493746,58.554805755615234,8.246720314025879,-50.247894287109375,113.78854370117188
1,493748,57.841915130615234,-30.999738693237305,27.440183639526367,43.595699310302734
1,493750,-136.01438903808594,3.8268792629241943,108.27143096923828,-93.92335510253906
1,493752,-90.7765884399414,6.488121032714844,72.67451477050781,-34.20492172241211
1,493754,125.58228302001953,-27.23072624206543,-79.5428466796875,20.99257469177246
1,493756,61.11471939086914,5.632840633392334,-11.154908180236816,21.57048988342285
1,493758,1.8916202783584595,6.1486029624938965,55.76667022705078,-19.49607276916504
1,493760,1.9860117435455322,-2.136629104614258,18.579423904418945,-54.00172805786133
1,493762,-61.10572814941406,28.926605224609375,8.661944389343262,35.16090774536133
1,493764,4.101842880249023,14.157951354980469,-47.80120086669922,54.07891082763672
1,493766,67.59469604492188,-22.561767578125,-109.09064483642578,-11.535310745239258
1,493768,11.961641311645508,-45.67302703857422,-59.77637481689453,-22.715618133544922
1,493770,-102.56629180908203,14.580327987670898,115.07627868652344,-4.251387119293213
1,493772,-66.53875732421875,43.3098030090332,190.14218139648438,-22.163959503173828
1,493774,115.20646667480469,6.898338317871094,17.74472427368164,-1.7419939041137695
1,493776,55.21332550048828,-1.1371017694473267,-128.3479766845703,12.816722869873047
1,493778,-27.021163940429688,-29.27545928955078,-145.21910095214844,32.276283264160156
1,493780,-6.705606937408447,-12.235024452209473,-49.462398529052734,77.63009643554688
1,493782,-61.357154846191406,25.950855255126953,110.43770599365234,-18.82986068725586
1,493784,-25.28822135925293,-0.2915359139442444,120.5596923828125,-93.080810546875
1,493786,96.77303314208984,-3.847339391708374,111.25653839111328,-3.75797176361084
1,493788,14.451955795288086,21.70458984375,75.5490493774414,7.868513107299805
1,493790,-107.4343032836914,-22.215227127075195,-225.14907836914062,-23.554473876953125
1,493792,1.5210015773773193,-39.46382141113281,-315.8979187011719,-20.03369903564453
1,493794,77.04840850830078,33.31392288208008,72.63795471191406,83.66590881347656
1,493796,21.992008209228516,13.5568265914917,180.04693603515625,92.52552032470703
1,493798,-69.03131866455078,-9.947670936584473,12.100584030151367,-99.48580169677734
1,493800,-46.54681396484375,3.7995824813842773,38.066898345947266,-28.83030891418457
1,493802,19.236936569213867,-27.611703872680664,17.457576751708984,0.6027727723121643
1,493804,-13.816506385803223,5.911744117736816,26.067350387573242,-50.97359848022461
1,493806,95.36050415039062,43.19651794433594,54.719993591308594,44.80607986450195
1,493808,114.4795913696289,36.15127944946289,-39.09376907348633,62.76344299316406
1,493810,-118.55961608886719,-41.396209716796875,-222.50265502929688,-18.561311721801758
1,493812,-108.10566711425781,-69.49522399902344,-178.6586151123047,-69.1103286743164
1,493814,75.49662017822266,12.07804012298584,252.05284118652344,62.16823959350586
1,493816,28.14633560180664,41.36788558959961,253.61024475097656,40.764251708984375
1,493818,-26.386520385742188,15.086912155151367,-92.1567153930664,-73.56150817871094
1,493820,26.303964614868164,-20.011350631713867,-87.37500762939453,-15.053631782531738
1,493822,-54.38679885864258,2.768165349960327,-12.381550788879395,3.1837801933288574
1,493824,-49.58370590209961,-4.74044942855835,-37.02853012084961,0.16252797842025757
1,493826,115.53604125976562,-13.856734275817871,14.143745422363281,40.23599624633789
1,493828,89.29352569580078,9.64122200012207,123.45812225341797,30.439416885375977
1,493830,-142.03652954101562,5.631835460662842,53.90559005737305,-58.72154235839844
1,493832,-106.458740234375,7.8756184577941895,-104.8478012084961,-56.653411865234375
1,493834,105.0050048828125,-13.5621337890625,6.222869873046875,68.67456817626953
1,493836,68.7135238647461,14.10439682006836,44.91546630859375,85.95268249511719
1,493838,-10.49705696105957,2.002370595932007,-296.4409484863281,-80.34854888916016
1,493840,-19.53791618347168,-47.839256286621094,-273.45013427734375,-40.602542877197266
1,493842,-43.85972213745117,19.921873092651367,306.1322021484375,103.57488250732422
1,493844,-59.472877502441406,33.494911193847656,323.94256591796875,-21.9807071685791
1,493846,64.53237915039062,-29.052541732788086,-59.956546783447266,-43.98529052734375
1,493848,99.90155029296875,11.418231010437012,-25.662691116333008,24.391357421875
1,493850,-93.92652130126953,6.6492228507995605,24.64909553527832,-43.58406448364258
1,493852,-61.01826477050781,-15.709529876708984,9.152165412902832,-43.64912414550781
1,493854,95.01830291748047,21.0863037109375,19.222333908081055,29.326183319091797
1,493856,44.950889587402344,-29.364336013793945,-66.05291748046875,1.7015835046768188
1,493858,-26.229806900024414,32.1739387512207,-1.9373559951782227,29.495553970336914
1,493860,-28.419322967529297,45.364097595214844,48.32398223876953,79.38555145263672
1,493862,-42.36747360229492,-81.28551483154297,-254.4813690185547,-79.33490753173828
1,493864,-14.478320121765137,-20.576068878173828,-226.17234802246094,-56.6516227722168
1,493866,32.09748458862305,49.605018615722656,246.76806640625,84.50702667236328
1,493868,13.044839859008789,6.520988941192627,233.49021911621094,22.853458404541016
1,493870,-58.655025482177734,-3.198401689529419,-33.98295974731445,-27.11078453063965
1,493872,-1.3586851358413696,-5.721467971801758,-67.03411865234375,-26.185909271240234
1,493874,139.75169372558594,0.16619867086410522,55.682823181152344,15.685160636901855
1,493876,10.480340957641602,43.15962600708008,98.4327392578125,-32.13550567626953
1,493878,-66.22759246826172,-26.373220443725586,-104.80967712402344,-15.488626480102539
1,493880,-31.973648071289062,-67.49979400634766,-194.21240234375,31.664356231689453
1,493882,-99.07839965820312,35.86741638183594,-10.189971923828125,13.040764808654785
1,493884,30.962053298950195,36.62230682373047,92.88690948486328,78.98917388916016
1,493886,157.34022521972656,-31.202957153320312,113.75708770751953,-57.84946823120117
1,493888,30.022930145263672,-11.09129810333252,90.15472412109375,-97.05908203125
1,493890,-145.10313415527344,14.261784553527832,-152.3485565185547,18.394489288330078
1,493892,-69.45784759521484,16.753759384155273,-115.81227111816406,8.985366821289062
1,493893,91.63494110107422,5.43180513381958,141.74972534179688,29.628238677978516
1,493896,65.86003112792969,-22.456857681274414,73.16229248046875,34.732913970947266
1,493897,-17.052509307861328,0.6846122145652771,-39.61238479614258,-1.7392178773880005
1,493900,-42.300514221191406,-8.478422164916992,-28.050559997558594,-28.827213287353516
1,493901,-27.56355857849121,-21.542186737060547,5.254852294921875,-28.37308120727539
1,493904,-22.930498123168945,37.58342742919922,30.85165023803711,28.82241439819336
1,493905,40.47031021118164,34.2520751953125,30.00769805908203,42.119720458984375
1,493908,99.48995208740234,-45.24740219116211,-42.76517868041992,-7.055501461029053
1,493909,20.352197647094727,-29.400381088256836,-151.98411560058594,0.05156627669930458
1,493912,-52.58639907836914,38.51011657714844,-204.9552764892578,18.721601486206055
1,493913,-36.84372329711914,19.606027603149414,-18.120113372802734,3.6058833599090576
1,493918,-31.012788772583008,-19.876739501953125,389.1361999511719,-41.24738311767578
1,493918,-4.921842575073242,-34.97066879272461,213.08958435058594,-42.2091064453125
1,493920,11.405868530273438,6.822513103485107,-202.43052673339844,10.003094673156738
1,493921,-67.84160614013672,29.973955154418945,-74.6417465209961,-15.309765815734863
1,493924,-33.53270721435547,0.4337620735168457,48.802364349365234,4.759448528289795
1,493925,124.58097076416016,-10.808314323425293,-12.96165943145752,52.36897277832031
1,493928,51.53205108642578,29.503149032592773,-22.75596809387207,-16.886491775512695
1,493929,-83.9191665649414,32.59865951538086,-13.369056701660156,-55.16071701049805
1,493932,-28.08575439453125,-65.52415466308594,41.79953384399414,-2.5369794368743896
1,493933,40.872825622558594,-37.106746673583984,92.84380340576172,39.819496154785156
1,493936,22.96318244934082,62.03177261352539,-115.65744018554688,54.226566314697266
1,493937,-37.805015563964844,21.231342315673828,-229.66787719726562,-33.5374641418457
1,493940,-25.18309211730957,-44.631282806396484,11.972930908203125,-52.52446365356445
1,493941,-26.85154151916504,-40.66530227661133,113.35485076904297,80.30165100097656
1,493944,0.9581800699234009,13.313543319702148,108.48281860351562,18.95211410522461
1,493945,120.87462615966797,55.6141242980957,83.00491333007812,-41.0391960144043
1,493948,61.53254699707031,-16.54378890991211,-15.589865684509277,14.990959167480469
1,493949,-81.31169128417969,-20.424442291259766,-23.19806671142578,-29.534982681274414
1,493952,-37.457969665527344,10.581557273864746,-91.62125396728516,-12.66535472869873
1,493953,40.04859924316406,-13.230588912963867,-32.941505432128906,45.97093963623047
1,493956,-17.069259643554688,36.5195198059082,112.34970092773438,-24.94146156311035
1,493957,-26.892152786254883,-16.684452056884766,33.97099304199219,-52.9144401550293
1,493960,18.8207950592041,-0.7138400077819824,22.64091682434082,16.79184913635254
1,493961,-15.976898193359375,62.741416931152344,-31.1849422454834,39.641693115234375
1,493964,-1.0188261270523071,-46.28929138183594,-154.52517700195312,14.684115409851074
1,493965,60.10142135620117,-39.5739860534668,11.764565467834473,8.657341003417969
1,493968,-10.664582252502441,-0.8485490083694458,35.21556091308594,-35.837059020996094
1,493969,-101.01380157470703,-52.48722457885742,-136.99327087402344,-68.57229614257812
1,493972,-33.01288986206055,32.64192581176758,93.1467514038086,62.61518096923828
1,493973,63.355613708496094,69.99323272705078,181.48165893554688,84.55674743652344
1,493976,25.854875564575195,-3.4185914993286133,-63.51026916503906,-58.94797134399414
1,493977,-4.627695560455322,17.388992309570312,-21.429927825927734,-33.675575256347656
1,493980,60.186912536621094,-18.720016479492188,20.852876663208008,27.889677047729492
1,493981,-19.6452693939209,-61.17250061035156,-57.49496841430664,-47.675785064697266
1,493984,-78.80752563476562,12.580655097961426,-16.152992248535156,2.687458038330078
1,493985,94.7129898071289,19.485301971435547,-6.334577560424805,83.1297836303711
1,493988,5.413733959197998,-21.737531661987305,-3.512554168701172,-77.8702392578125
1,493989,-141.01075744628906,18.39748764038086,46.9111328125,-54.40523910522461
1,493992,32.443294525146484,49.28461837768555,34.25338363647461,200.51470947265625
1,493993,68.69107818603516,-2.0644819736480713,-20.034303665161133,62.75492477416992
1,493996,11.77219009399414,-41.51572036743164,-30.08277702331543,-209.10928344726562
1,493997,5.109352111816406,-15.056007385253906,22.57299041748047,-106.23019409179688
1,494000,9.857244491577148,9.978118896484375,29.573667526245117,82.57157135009766
1,494001,-29.508901596069336,19.66600799560547,-38.25202941894531,79.82549285888672
1,494004,-68.55268096923828,20.301292419433594,-25.921897888183594,12.278919219970703
1,494005,67.42864227294922,14.98486042022705,20.064680099487305,-18.35004425048828
1,494008,63.90213394165039,-11.458654403686523,-23.00894546508789,-18.198022842407227
1,494009,-97.85220336914062,-58.17736053466797,14.308297157287598,-38.889808654785156
1,494012,-62.974910736083984,-7.178747177124023,29.910634994506836,-28.121662139892578
1,494013,60.34701919555664,41.960906982421875,-34.0751953125,37.79000473022461
1,494016,56.26335906982422,-13.203073501586914,15.258746147155762,33.15730667114258
1,494017,-1.6446104049682617,-16.290388107299805,16.24677848815918,5.542141914367676
1,494020,-22.994220733642578,23.17925453186035,-29.26102638244629,-20.56413459777832
1,494021,-30.797832489013672,-14.848726272583008,-7.075980186462402,-5.491675853729248
1,494024,-24.43976402282715,-31.465126037597656,-11.361017227172852,59.503047943115234
1,494025,74.26639556884766,41.82398223876953,-1.021196722984314,23.06583023071289
1,494028,58.40670394897461,15.7551908493042,28.742233276367188,-73.36244201660156
1,494029,-88.82305908203125,-5.703372001647949,26.235403060913086,-53.84025955200195
1,494032,-53.28544235229492,6.045832633972168,-17.637414932250977,16.417724609375
1,494033,40.40964126586914,-2.39453387260437,-18.109994888305664,87.01887512207031
1,494036,38.96653366088867,19.69115447998047,35.40719223022461,18.62472152709961
1,494037,15.92857837677002,-31.501028060913086,-8.964767456054688,-86.43224334716797
1,494040,22.958553314208984,6.049518585205078,-9.53681755065918,51.96989822387695
1,494041,-48.084476470947266,2.1806440353393555,11.470382690429688,56.87276840209961
1,494044,-81.37916564941406,-42.345428466796875,-38.19004821777344,-134.3567352294922
1,494045,95.0997085571289,17.68192481994629,18.675050735473633,-60.93239212036133
1,494048,33.55615997314453,13.396174430847168,36.372169494628906,115.06397247314453
1,494049,-108.05603790283203,0.04495760798454285,-40.93721389770508,30.428075790405273
1,494052,5.917181968688965,2.7120227813720703,-2.54748797416687,-35.661434173583984
1,494053,28.67649269104004,-8.450791358947754,24.54193878173828,0.28928273916244507
1,494056,17.764039993286133,-6.956550598144531,-11.595794677734375,-22.437076568603516
1,494057,7.550947189331055,-11.887873649597168,-4.383713722229004,7.692833423614502
1,494060,7.491852760314941,18.249752044677734,1.9509526491165161,51.504974365234375
1,494061,-1.4718888998031616,56.97254943847656,-1.3733052015304565,-17.392576217651367
1,494064,-60.28862380981445,-15.983607292175293,-10.269060134887695,-45.452919006347656
1,494065,51.40398406982422,-42.49982452392578,13.358098030090332,49.47520065307617
1,494068,64.44723510742188,1.9196857213974,10.964069366455078,35.53602600097656
1,494069,-81.48018646240234,-10.488605499267578,-35.035423278808594,-64.57441711425781
1,494072,-44.935794830322266,-19.075767517089844,-1.1190776824951172,-28.65225601196289
1,494073,56.3272590637207,35.26024627685547,37.619720458984375,24.7182674407959
1,494076,7.386010646820068,38.773441314697266,3.3106374740600586,0.011610349640250206
1,494077,-19.89291763305664,-44.83823776245117,-19.82432746887207,-13.986017227172852
1,494080,39.01814651489258,-9.63841724395752,0.06305301189422607,20.983196258544922
1,494081,-26.60365104675293,21.230411529541016,2.811058759689331,24.20684814453125
1,494084,-14.263242721557617,2.479200601577759,-15.252057075500488,-47.706050872802734
1,494085,71.2828369140625,2.4201903343200684,8.750822067260742,9.33696460723877
1,494088,-23.23607063293457,-12.199122428894043,26.029109954833984,59.29030227661133
1,494089,-70.55677032470703,16.776111602783203,-3.3510189056396484,-11.609051704406738
1,494092,-23.01749038696289,-9.080409049987793,-16.386363983154297,-40.50692367553711
1,494093,40.572967529296875,-20.330041885375977,-6.761046409606934,-8.336441993713379
1,494096,52.26413345336914,17.28913116455078,8.82353401184082,42.59609603881836
1,494097,-19.092426300048828,-2.9253649711608887,-0.947219967842102,-26.047948837280273
1,494100,-6.704033374786377,-10.731666564941406,-14.958745956420898,-39.64568328857422
1,494101,-34.57146072387695,-1.091342806816101,-2.9882476329803467,30.2088623046875
1,494104,-6.573371410369873,23.5701847076416,23.77183723449707,35.2975959777832
1,494105,81.23776245117188,9.92991828918457,19.88285255432129,28.373489379882812
1,494110,-97.3436279296875,-26.1251277923584,-25.82091522216797,-58.62129592895508
1,494110,-92.27153778076172,-16.8122615814209,-19.580604553222656,-55.050106048583984
1,494112,152.2469940185547,15.606193542480469,9.0260648727417,54.3619499206543
1,494113,70.51197052001953,25.43629264831543,16.21955108642578,15.575274467468262
1,494116,-64.7834243774414,3.350931167602539,13.42382526397705,-3.36311936378479
1,494117,0.6784129738807678,-1.5327417850494385,-5.014776706695557,39.60824203491211
1,494120,31.248342514038086,-9.9861421585083,-13.567978858947754,-25.931306838989258
1,494121,-57.799591064453125,-15.324699401855469,-5.018464088439941,-37.448734283447266
1,494124,-62.87520217895508,-30.792993545532227,-18.430429458618164,34.16747283935547
1,494125,108.30897521972656,49.77993392944336,23.467012405395508,30.74065399169922
1,494128,55.01151657104492,43.072044372558594,31.125560760498047,-67.31124114990234
1,494129,-101.35862731933594,-75.82754516601562,-34.1879768371582,-41.30002975463867
1,494132,-10.92198371887207,-19.49541664123535,-6.214855194091797,45.413997650146484
1,494133,34.93864440917969,2.525780200958252,-13.374124526977539,-0.918342113494873
1,494136,-23.152864456176758,-15.076885223388672,-11.18265438079834,62.26859664916992
1,494137,-12.442609786987305,46.321388244628906,35.3641242980957,17.86252212524414
1,494140,35.20319366455078,23.02877426147461,6.138540267944336,-118.1401596069336
1,494141,2.492403984069824,-8.935946464538574,-9.654840469360352,8.053401947021484
1,494144,-50.22175216674805,11.176743507385254,1.7839454412460327,57.41050720214844
1,494145,38.37430953979492,-19.58737564086914,9.171440124511719,1.7017956972122192
1,494148,45.83782196044922,-6.926535129547119,18.450056076049805,1.974867820739746
1,494149,-71.60344696044922,14.766931533813477,-28.590612411499023,-21.10818099975586
1,494152,-44.61075210571289,-4.58314323425293,-39.167118072509766,-0.43447187542915344
1,494153,50.82408905029297,8.634032249450684,16.415451049804688,13.541548728942871
1,494156,40.04404830932617,6.9406046867370605,19.149051666259766,-10.000837326049805
1,494157,-5.914022922515869,-15.737574577331543,5.191986560821533,-5.959348201751709
1,494160,-0.7277039289474487,-19.14690399169922,-17.873292922973633,-13.507306098937988
1,494161,-51.14317321777344,0.49681052565574646,-1.249071478843689,-22.088438034057617
1,494164,-27.043357849121094,30.754554748535156,45.74748611450195,26.39398956298828
1,494165,94.1321792602539,-11.738399505615234,-11.457412719726562,31.005369186401367
1,494168,30.459630966186523,-15.976603507995605,-18.392053604125977,15.97508430480957
1,494169,-65.2847671508789,38.65488815307617,38.599082946777344,26.0502872467041
1,494172,-32.10939025878906,-12.43134880065918,-6.572982311248779,-10.518946647644043
1,494173,22.759057998657227,-24.230051040649414,-21.19998550415039,-16.11306381225586
1,494176,26.220340728759766,5.461038589477539,-1.733721375465393,-40.93518829345703
1,494177,-15.027314186096191,9.505172729492188,-29.726987838745117,-36.4767951965332
1,494180,9.731374740600586,-21.323749542236328,-18.260814666748047,36.57798767089844
1,494181,-25.04222297668457,-19.275596618652344,39.74293899536133,28.9329776763916
1,494184,-49.341026306152344,56.06022644042969,30.913192749023438,-15.386321067810059
1,494185,92.62054443359375,11.0908784866333,-42.71042251586914,-17.02596092224121
1,494188,44.84904861450195,-37.14900588989258,-18.002267837524414,17.09165382385254
1,494189,-79.8051528930664,28.861366271972656,43.44399642944336,4.689121723175049
1,494192,-17.805877685546875,-3.862804889678955,-1.1025712490081787,-41.84647750854492
1,494193,30.792163848876953,-53.55461120605469,-12.920002937316895,-17.178041458129883
1,494196,2.0392634868621826,19.841341018676758,1.6447731256484985,36.20068359375
1,494197,-13.459185600280762,22.873258590698242,-6.843745708465576,77.15021514892578
1,494200,14.185835838317871,-12.542656898498535,14.26526927947998,-0.006902085151523352
1,494201,-18.291706085205078,0.12074443697929382,6.668964385986328,-69.6261215209961
1,494204,-34.5048828125,6.938150405883789,6.165457725524902,19.238004684448242
1,494205,64.90635681152344,12.099517822265625,6.300479888916016,60.97030258178711
1,494208,39.62832260131836,-31.211973190307617,-37.424495697021484,-34.26325225830078
1,494209,-71.92160034179688,-37.603145599365234,-28.047592163085938,-100.37091064453125
1,494212,-25.610422134399414,49.970375061035156,17.088603973388672,13.565330505371094
1,494213,16.977407455444336,30.71632194519043,2.3065617084503174,74.61062622070312
1,494216,4.152972221374512,-56.866111755371094,-1.470236897468567,-13.988448143005371
1,494217,13.731117248535156,16.88871955871582,27.186803817749023,-14.196962356567383
1,494220,13.052247047424316,51.28594207763672,28.80072784423828,36.25162124633789
1,494221,-26.195844650268555,-28.020957946777344,-14.751141548156738,-38.037513732910156
1,494224,-28.093032836914062,-17.15064239501953,-58.97732925415039,-70.60722351074219
1,494225,62.45051956176758,-1.0068413019180298,-5.841870307922363,46.5985107421875
1,494228,22.583646774291992,-7.152953147888184,36.907073974609375,94.06449127197266
1,494229,-50.776611328125,21.10801887512207,21.285619735717773,-46.12868881225586
1,494232,-23.81355857849121,22.190967559814453,2.7768077850341797,-60.8549919128418
1,494233,27.315235137939453,-5.849048614501953,-4.27559232711792,73.01598358154297
1,494236,50.960426330566406,-14.322421073913574,21.229877471923828,7.299144268035889
1,494237,-38.34258270263672,-21.937519073486328,-35.670982360839844,-85.68875885009766
1,494240,-14.19476318359375,2.006464719772339,-25.862579345703125,17.380096435546875
1,494241,4.167754173278809,1.4628947973251343,19.69559669494629,63.9788932800293
1,494244,-37.777400970458984,11.347774505615234,5.250310897827148,-19.005245208740234
1,494245,71.38279724121094,26.698055267333984,43.57752990722656,-39.641292572021484
1,494248,27.537572860717773,-38.53456115722656,-12.76356315612793,-3.280667781829834
1,494249,-71.2219467163086,-9.808022499084473,-30.53035545349121,77.92549896240234
1,494252,-20.460084915161133,33.043617248535156,-0.0706007182598114,-0.7752069234848022
1,494253,8.289910316467285,-3.8393125534057617,-17.085668563842773,-93.59988403320312
1,494256,37.36468505859375,-11.744951248168945,9.317195892333984,54.65852355957031
1,494257,11.731658935546875,12.386656761169434,6.672601699829102,89.70310974121094
1,494260,-33.32632064819336,-5.74748420715332,4.879626274108887,-75.9292221069336
1,494261,-29.78413963317871,-8.330780029296875,17.58083152770996,-86.01535034179688
1,494264,-0.4495183527469635,6.562010765075684,2.0557446479797363,72.14344024658203
1,494265,82.57987213134766,-7.962897777557373,-16.251272201538086,36.88327407836914
1,494268,7.721514701843262,20.724977493286133,-1.3508447408676147,-65.78079223632812
1,494269,-79.90489196777344,3.765364646911621,3.3737218379974365,-12.949973106384277
1,494272,14.889522552490234,-22.839282989501953,-17.049924850463867,-25.291454315185547
1,494273,10.646993637084961,3.387134552001953,-15.220312118530273,-11.621232032775879
1,494276,-9.085489273071289,5.701857089996338,18.972972869873047,127.1002197265625
1,494277,17.095678329467773,-18.185148239135742,16.791086196899414,67.38638305664062
1,494280,9.999482154846191,-0.7146349549293518,-26.89173126220703,-180.01385498046875
1,494281,-5.048413276672363,13.658097267150879,-8.25749683380127,-81.04544830322266
1,494284,-40.695838928222656,-12.957584381103516,35.11946487426758,168.32533264160156
1,494285,28.633546829223633,-1.4047189950942993,-3.311929941177368,64.98458862304688
1,494288,7.628788471221924,14.402337074279785,-34.76811981201172,-42.517215728759766
1,494289,-66.7171630859375,-1.477765440940857,38.04020309448242,-70.89116668701172
1,494292,28.174341201782227,-6.946229457855225,30.284164428710938,-40.089420318603516
1,494293,67.9251708984375,26.6961669921875,-23.306442260742188,77.93206787109375
1,494296,-14.211538314819336,-5.2965407371521,-7.443924427032471,31.470258712768555
1,494297,-25.157827377319336,-32.590518951416016,-10.655556678771973,-30.250431060791016
1,494300,62.816322326660156,49.93151092529297,10.649726867675781,-30.087011337280273
1,494301,-25.914026260375977,8.119383811950684,6.598754405975342,-51.891754150390625
1,494304,-62.1776237487793,-66.51868438720703,-32.00541305541992,-7.885926723480225
1,494305,82.28870391845703,35.076053619384766,-5.933769226074219,63.17756652832031
1,494308,-21.783533096313477,33.75835418701172,20.82862091064453,75.03694915771484
1,494309,-91.89041900634766,-40.091949462890625,-1.182151436805725,12.792899131774902
1,494312,21.548891067504883,-35.907711029052734,-35.39286422729492,-54.644447326660156
1,494315,23.090198516845703,18.126558303833008,6.40473747253418,-39.33755111694336
1,494315,8.047979354858398,52.65468215942383,49.01748275756836,-7.690284729003906
1,494318,50.44447326660156,-12.786745071411133,22.220531463623047,-33.35251998901367
1,494319,12.996000289916992,0.19348448514938354,-3.948667287826538,-7.543023586273193
1,494322,-94.98735046386719,-32.5760498046875,-33.51043701171875,66.21160125732422
1,494323,-66.6428451538086,-37.09406280517578,-14.235522270202637,88.1581802368164
1,494326,112.23536682128906,51.7432861328125,9.868712425231934,-42.809730529785156
1,494327,93.06224822998047,-21.754411697387695,4.282218933105469,-110.2061538696289
1,494330,-121.6292724609375,-20.456789016723633,-15.519996643066406,21.25913429260254
1,494331,-43.51643753051758,62.89674758911133,-5.751389503479004,54.70231246948242
1,494334,114.86860656738281,4.163931846618652,39.2697639465332,-23.861392974853516
1,494335,4.64884614944458,-33.57673263549805,20.779979705810547,-11.380141258239746
1,494338,-47.744136810302734,-17.004396438598633,-26.504995346069336,25.153396606445312
1,494339,-12.793272972106934,-15.25518798828125,-39.08013153076172,-28.550317764282227
1,494342,-50.14283752441406,10.9176607131958,3.611660957336426,14.443448066711426
1,494343,-17.884429931640625,28.61707305908203,10.849730491638184,36.50030517578125
1,494346,124.74748992919922,18.70218849182129,1.0322338342666626,-25.251222610473633
1,494347,46.70795822143555,-18.377222061157227,17.670421600341797,-18.224267959594727
1,494350,-144.55247497558594,-13.101492881774902,-11.315207481384277,-10.561273574829102
1,494351,-23.390947341918945,17.79157257080078,-22.347177505493164,-7.4286932945251465
1,494354,65.9985580444336,14.423041343688965,12.998441696166992,46.688411712646484
1,494355,11.385527610778809,14.321900367736816,21.534481048583984,65.92556762695312
1,494358,33.15607833862305,-32.89517593383789,-14.113384246826172,-66.11956024169922
1,494359,-4.104161739349365,-18.4390926361084,-8.244141578674316,-55.536354064941406
1,494362,-66.93426513671875,16.834627151489258,15.817578315734863,55.31865692138672
1,494363,-32.813758850097656,-6.034524917602539,-3.1220319271087646,-14.9199800491333
1,494366,77.70545196533203,8.491561889648438,11.465386390686035,-27.54317855834961
1,494367,62.95169448852539,3.8200812339782715,14.443498611450195,12.665397644042969
1,494370,-107.28556823730469,-2.2778799533843994,-35.08706283569336,11.36803150177002
1,494371,-42.676395416259766,-32.89821243286133,-20.70794105529785,-1.2050377130508423
1,494374,107.20865631103516,18.25603485107422,56.390533447265625,-5.606853008270264
1,494375,13.93392276763916,47.90433120727539,2.341756582260132,11.020240783691406
1,494378,-29.0556583404541,-39.12190246582031,-40.99531555175781,25.820987701416016
1,494379,-13.907661437988281,-8.91549301147461,16.625547409057617,9.680910110473633
1,494382,-44.702884674072266,-4.338743686676025,-30.968374252319336,-55.067596435546875
1,494383,2.417832136154175,-0.9721992611885071,-12.525291442871094,42.32786560058594
1,494386,84.7195816040039,21.275043487548828,60.601158142089844,5.8384881019592285
1,494387,8.898755073547363,-18.031410217285156,3.6054532527923584,-136.25845336914062
1,494390,-95.01837921142578,6.453986167907715,-28.279226303100586,55.3741455078125
1,494391,3.3673908710479736,16.95263671875,17.401756286621094,105.03766632080078
1,494394,36.19736862182617,-32.05141830444336,-5.896604061126709,-33.66701126098633
1,494395,10.19973373413086,-20.80243682861328,-25.143226623535156,-22.39434242248535
1,494398,35.50985336303711,52.965240478515625,22.619869232177734,39.36386489868164
1,494399,-27.706390380859375,18.05190086364746,18.405370712280273,33.36048889160156
1,494402,-67.0844497680664,-27.74843978881836,-34.7122688293457,-104.71397399902344
1,494403,15.073970794677734,25.962129592895508,-15.038633346557617,-50.057132720947266
1,494406,94.86251831054688,1.2992981672286987,37.160404205322266,127.65814971923828
1,494407,19.645978927612305,-29.92624282836914,-3.2758102416992188,-2.342874526977539
1,494410,-105.66143035888672,-11.35834789276123,-16.33213233947754,-64.30675506591797
1,494411,-38.04952621459961,-8.706037521362305,18.830814361572266,42.021854400634766
1,494414,54.73310089111328,24.35430145263672,-15.176934242248535,-34.34986877441406
1,494415,-12.30309772491455,-12.026559829711914,-35.1161003112793,-14.75598430633545
1,494418,27.471784591674805,-11.961745262145996,47.925228118896484,80.92144012451172
1,494419,60.299556732177734,43.457313537597656,37.029537200927734,-13.206808090209961
1,494422,-75.6635971069336,-31.93624496459961,-46.96418762207031,-83.54401397705078
1,494423,-66.2037124633789,-40.857730865478516,-8.356273651123047,-109.39167785644531
1,494426,91.04641723632812,52.19181442260742,10.753002166748047,103.50435638427734
1,494427,55.453582763671875,13.448456764221191,-4.5615949630737305,207.73936462402344
1,494430,-116.89866638183594,-48.624183654785156,3.897252082824707,-100.88508605957031
1,494431,-29.637603759765625,25.880769729614258,1.2941948175430298,-103.39315032958984
1,494434,96.16143035888672,31.839611053466797,-6.114284515380859,31.2540283203125
1,494435,20.074182510375977,-19.906551361083984,12.69867992401123,22.60979652404785
1,494438,-19.01964569091797,14.893865585327148,13.027546882629395,21.188703536987305
1,494439,-13.351581573486328,-2.5097193717956543,-21.53293800354004,-19.825319290161133
1,494442,-46.460330963134766,-39.94540786743164,0.18471916019916534,-11.514846801757812
1,494443,-25.955965042114258,-6.623682498931885,9.750596046447754,22.86998176574707
1,494446,87.33122253417969,4.252017498016357,-10.754679679870605,19.865415573120117
1,494447,49.72362518310547,28.505624771118164,-8.64889907836914,-41.45357131958008
1,494450,-111.9250717163086,2.273963451385498,7.960852146148682,-43.4562873840332
1,494451,-32.992919921875,-54.64226531982422,-7.846280574798584,19.224733352661133
1,494454,88.12474060058594,49.0031623840332,5.977907180786133,42.387123107910156
1,494455,2.8330578804016113,66.17371368408203,30.436342239379883,20.167259216308594
1,494458,0.6436505317687988,-53.1658821105957,-18.245513916015625,-56.47858428955078
1,494459,51.07133483886719,-36.572139739990234,-0.5691075325012207,-26.922365188598633
1,494462,-51.96861267089844,21.57582664489746,-5.256414413452148,100.49803924560547
1,494463,-107.72193908691406,2.1262784004211426,-27.875036239624023,61.27823257446289
1,494466,53.6048698425293,13.78292465209961,22.42633819580078,-106.93450927734375
1,494467,110.52102661132812,34.17845916748047,28.875837326049805,-55.10559844970703
1,494470,-87.9736099243164,-33.31874465942383,-9.531309127807617,25.585233688354492
1,494471,-48.98898696899414,-42.340877532958984,-30.32955551147461,-30.32607078552246
1,494474,95.51042938232422,31.819578170776367,29.621421813964844,28.753719329833984
1,494475,-1.6430234909057617,-4.30554723739624,16.12664031982422,49.0500602722168
1,494478,-30.21565055847168,-15.359926223754883,-44.14814758300781,-15.905892372131348
1,494479,20.9196720123291,25.238191604614258,-1.252752423286438,-22.864614486694336
1,494482,-28.91330909729004,-11.39101791381836,10.523700714111328,3.4716155529022217
1,494483,-59.423301696777344,-17.373632431030273,-15.77860164642334,-9.05937671661377
1,494486,63.78232192993164,-0.08654247969388962,17.31650161743164,64.75988006591797
1,494487,63.57946014404297,2.269174575805664,6.6312575340271,88.10997772216797
1,494490,-93.25077819824219,6.597150802612305,-31.953161239624023,-104.33414459228516
1,494491,-29.2431583404541,4.543403625488281,21.035024642944336,-148.78431701660156
1,494494,68.86375427246094,18.6993465423584,16.159832000732422,46.921173095703125
1,494495,12.0464506149292,-3.513103485107422,-6.763822555541992,75.05028533935547
1,494498,10.500454902648926,-20.777164459228516,-5.3706583976745605,-21.194129943847656
1,494499,-7.089786529541016,27.57805824279785,-7.249342918395996,43.28033447265625
1,494502,-77.53641510009766,-9.932194709777832,9.055768013000488,22.962488174438477
1,494503,-4.770134449005127,-9.190755844116211,2.032158613204956,28.241395950317383
1,494506,98.47002410888672,37.215293884277344,3.930604934692383,-7.6597490310668945
1,494507,41.360599517822266,-37.85263442993164,-21.703506469726562,-107.91559600830078
1,494510,-88.6751937866211,-35.551944732666016,25.531259536743164,-20.937204360961914
1,494511,-34.36014938354492,39.00094223022461,45.358428955078125,48.75774002075195
1,494514,51.4880256652832,-0.12405721098184586,-68.38558959960938,30.19179344177246
1,494515,-12.1761474609375,-33.81576156616211,-21.224214553833008,-12.884424209594727
1,494518,3.654074192047119,24.437929153442383,45.15495681762695,20.118560791015625
1,494519,30.680334091186523,30.199283599853516,2.918241262435913,26.200605392456055
1,494522,-42.1643180847168,-25.742223739624023,-2.6028037071228027,-78.60762786865234
1,494523,-37.83655548095703,-25.565921783447266,-26.4392032623291,-88.40653991699219
1,494526,86.07003784179688,38.94636154174805,-7.025150299072266,35.96328353881836
1,494528,33.651451110839844,25.712255477905273,31.65580177307129,94.85489654541016
1,494531,-141.1623992919922,-26.73430633544922,4.125574588775635,27.817821502685547
1,494532,-33.43856430053711,-29.658924102783203,-17.323774337768555,-9.261680603027344
1,494533,129.58497619628906,-16.427799224853516,0.5079265236854553,-1.8428130149841309
1,494536,25.713775634765625,30.922136306762695,17.679283142089844,-40.159156799316406
1,494537,-59.578392028808594,14.398832321166992,-21.133119583129883,-9.683515548706055
1,494540,8.4373779296875,-1.0772969722747803,0.12177878618240356,30.17375373840332
1,494541,-22.370424270629883,5.2231059074401855,24.340784072875977,3.1583306789398193
1,494544,-14.706650733947754,-10.41510009765625,-18.1008358001709,3.627795934677124
1,494545,90.95950317382812,25.261850357055664,10.490863800048828,-1.6964826583862305
1,494548,-13.859783172607422,-6.2511305809021,11.675226211547852,-18.048397064208984
1,494549,-74.29351806640625,-10.9307222366333,-11.911606788635254,0.2925663888454437
1,494552,22.72796630859375,15.17599868774414,-5.0790863037109375,38.808326721191406
1,494553,33.49525451660156,-20.625192642211914,-1.9483164548873901,-12.426719665527344
1,494556,-8.218510627746582,-17.04332733154297,-3.5717201232910156,-43.293312072753906
1,494557,-39.68144607543945,-1.9738690853118896,-10.814122200012207,28.361324310302734
1,494560,8.261032104492188,-0.41844838857650757,-18.627323150634766,-0.37499040365219116
1,494561,-7.2771148681640625,1.1765879392623901,20.327831268310547,-40.40997314453125
1,494564,4.729080677032471,13.132848739624023,41.88547897338867,7.16939640045166
1,494565,94.57543182373047,0.9373381733894348,-13.287537574768066,33.93915557861328
1,494568,-45.54780578613281,-21.8045597076416,-28.563791275024414,7.992955684661865
1,494569,-93.22838592529297,-8.096925735473633,-9.122535705566406,-33.51327133178711
1,494572,51.211944580078125,22.707733154296875,-11.84061336517334,-3.040344476699829
1,494573,25.134803771972656,20.044471740722656,-0.1723688691854477,10.240917205810547
1,494576,-7.346322536468506,2.0387232303619385,54.55876159667969,-1.6620837450027466
1,494577,5.067071437835693,-0.35470375418663025,16.005876541137695,6.677105903625488
1,494580,-31.097496032714844,-26.499055862426758,-63.89302444458008,12.29233455657959
1,494581,-25.550289154052734,3.1839239597320557,-8.683156967163086,-3.603255271911621
1,494584,43.73135757446289,30.64886474609375,40.0910530090332,-33.18833541870117
1,494585,64.9004898071289,-20.63636016845703,21.776512145996094,15.430088996887207
1,494588,-26.503610610961914,6.465993881225586,-2.4121992588043213,33.79646301269531
1,494589,-56.02418899536133,-10.951760292053223,-15.589876174926758,1.34814453125
1,494592,-10.198200225830078,-27.01620864868164,-3.397096633911133,-22.44892692565918
1,494593,34.69651794433594,41.60264205932617,1.9181991815567017,-16.681835174560547
1,494596,13.788190841674805,-13.314949035644531,-6.363375663757324,29.547218322753906
1,494597,-22.634246826171875,-5.247987747192383,-18.517541885375977,-21.942846298217773
1,494600,26.774093627929688,39.622013092041016,5.055639266967773,-5.7486982345581055
1,494601,-34.30416488647461,-29.1707706451416,18.544485092163086,41.73260498046875
1,494604,-40.953826904296875,-33.77925109863281,-3.738722801208496,-39.95519256591797
1,494605,91.13702392578125,17.141490936279297,22.407337188720703,19.355653762817383
1,494608,-29.553892135620117,14.595122337341309,-28.011316299438477,62.34640121459961
1,494609,-69.16233825683594,6.340232849121094,-41.30135726928711,-36.182861328125
1,494612,35.53537368774414,19.699512481689453,33.3526725769043,-75.00337219238281
1,494613,32.45623016357422,-0.47160273790359497,8.683286666870117,17.67084503173828
1,494616,47.75444412231445,-27.999555587768555,14.836946487426758,57.502994537353516
1,494617,-58.65951919555664,-41.4267692565918,-6.047998905181885,-4.21360445022583
1,494620,-47.26858139038086,14.196773529052734,-15.472989082336426,-17.339599609375
1,494621,37.11509704589844,38.03071212768555,27.44406509399414,-68.39715576171875
1,494624,31.639114379882812,12.803362846374512,-1.2111493349075317,-10.914101600646973
1,494625,63.567630767822266,21.449932098388672,-11.796293258666992,112.07693481445312
1,494628,-70.19644165039062,-49.84980010986328,-18.538297653198242,3.3702433109283447
1,494629,-95.36261749267578,-38.48043441772461,-13.869880676269531,-88.49018096923828
1,494632,72.92668914794922,64.03018951416016,32.1013069152832,49.920894622802734
1,494633,39.14904022216797,15.517868041992188,4.054325103759766,44.55177688598633
1,494636,-21.395986557006836,-45.28657913208008,-9.286568641662598,-64.31846618652344
1,494637,14.811984062194824,-1.0890758037567139,30.139110565185547,-13.460433006286621
1,494640,-0.7966788411140442,2.12957763671875,-17.708160400390625,34.859806060791016
1,494641,-53.65248107910156,5.599509239196777,-36.029232025146484,-3.3201475143432617
1,494644,-8.265929222106934,22.235586166381836,0.8836193084716797,-6.867502689361572
1,494645,93.03237915039062,-36.22472381591797,17.63072967529297,-1.229127049446106
1,494648,-20.928499221801758,-11.51158618927002,14.548280715942383,8.686444282531738
1,494649,-103.8592529296875,18.209115982055664,-23.223102569580078,18.646440505981445
1,494652,33.549747467041016,-18.2009220123291,-10.671417236328125,-55.807945251464844
1,494653,54.09592056274414,26.886823654174805,32.5068473815918,-4.564178466796875
1,494656,-11.50625228881836,29.086841583251953,15.797539710998535,62.1515998840332
1,494657,-9.018963813781738,-15.117721557617188,-20.022705078125,-9.353361129760742
1,494660,7.77903413772583,-9.270350456237793,-15.824799537658691,-51.006404876708984
1,494661,-44.059078216552734,-0.1596270054578781,1.528247356414795,-52.49125671386719
1,494664,21.92510223388672,2.130404233932495,21.66649627685547,96.60963439941406
1,494665,108.04226684570312,5.035759449005127,22.561904907226562,135.1170654296875
1,494668,-50.109588623046875,-10.809072494506836,-34.83830261230469,-175.34217834472656
1,494669,-86.13871002197266,-21.073963165283203,-35.725894927978516,-118.58993530273438
1,494672,8.393484115600586,4.696491241455078,30.580129623413086,168.03851318359375
1,494673,65.13494110107422,28.687217712402344,29.362565994262695,53.261592864990234
1,494676,25.76898956298828,11.052422523498535,-4.5131731033325195,-64.9280014038086
1,494677,-68.50160217285156,-25.612802505493164,-10.252435684204102,-8.319682121276855
1,494680,-19.169099807739258,-18.190216064453125,-25.253257751464844,6.8245954513549805
1,494681,-11.912066459655762,13.409269332885742,-15.674935340881348,-26.690969467163086
1,494684,36.732032775878906,32.39239501953125,54.435550689697266,17.18842315673828
1,494685,83.35070037841797,30.704896926879883,25.2835750579834,48.82107162475586
1,494688,-73.23577880859375,-27.579694747924805,-59.61015701293945,-43.54104995727539
1,494689,-41.870201110839844,-35.73573303222656,-21.482929229736328,-37.626705169677734
