Aktueller Finger,timestamp_ms,sensor_0,sensor_1,sensor_2,sensor_3
0,384973,-9.406310081481934,13.466126441955566,22.107694625854492,-25.170164108276367
0,384974,23.368804931640625,-15.848776817321777,-36.75714874267578,1.1009618043899536
0,384975,8.11235237121582,8.822685241699219,1.6921238899230957,-23.87691879272461
0,385230,145.8565673828125,31.93991470336914,84.49224090576172,28.38956069946289
0,385231,180.09188842773438,4.506507873535156,43.09956741333008,41.548255920410156
0,385234,-230.27572631835938,-38.43016052246094,-141.73260498046875,-58.33864974975586
0,385235,-297.8617858886719,-4.617553234100342,-90.95829772949219,9.750125885009766
0,385238,29.360227584838867,31.175769805908203,67.28581237792969,34.11967849731445
0,385239,54.259552001953125,21.59674072265625,67.1845474243164,-41.978946685791016
0,385242,-19.626482009887695,-31.817594528198242,-37.920955657958984,-32.73053741455078
0,385243,21.78227424621582,-35.695960998535156,-26.665266036987305,20.65823745727539
0,460667,76.23635864257812,44.19672775268555,62.10513687133789,45.99134826660156
0,460670,70.76258850097656,21.068431854248047,-10.500836372375488,3.3114535808563232
0,460671,92.56774139404297,-21.341135025024414,39.38142776489258,-23.532602310180664
0,460674,81.65567779541016,-31.40200424194336,33.25334548950195,-16.4512882232666
0,460675,-111.22168731689453,-15.35659408569336,-113.6147232055664,38.18183517456055
0,460678,-213.3199920654297,2.605774164199829,-21.175662994384766,0.8341884016990662
0,460679,-34.614871978759766,7.895524501800537,38.41163635253906,-36.3348274230957
0,460682,69.12631225585938,30.192428588867188,-22.19778823852539,25.966047286987305
0,460683,11.692056655883789,10.671669960021973,3.419943332672119,9.493389129638672
0,460686,66.8167495727539,2.278782367706299,62.289642333984375,-0.4664417505264282
0,460687,19.754642486572266,-9.387866973876953,29.966358184814453,-7.150167942047119
0,460690,-50.5030517578125,4.849118709564209,-26.894559860229492,-54.152896881103516
0,460691,116.30162811279297,21.836172103881836,16.113862991333008,12.584815979003906
0,460694,109.13282012939453,-23.050954818725586,-11.262283325195312,53.91103744506836
0,460695,-114.08101654052734,-49.4526252746582,-46.98035430908203,6.6941046714782715
0,460698,-150.91738891601562,-12.758968353271484,-25.8350772857666,-7.660794734954834
0,460699,-19.777969360351562,60.791908264160156,-4.051629066467285,-43.67438507080078
0,460702,39.79891586303711,4.977427959442139,45.74248123168945,-21.484825134277344
0,460703,27.64113998413086,-37.615928649902344,16.317968368530273,27.467021942138672
0,460707,82.05211639404297,37.39659881591797,-1.0851740837097168,17.13728904724121
0,460707,-17.7932186126709,8.901161193847656,-22.531301498413086,-5.179542064666748
0,460710,-127.0206298828125,-3.215073347091675,-23.455005645751953,-2.6170225143432617
0,460711,108.32425689697266,3.088292360305786,47.59440994262695,19.814111709594727
0,460714,135.11434936523438,-40.36711883544922,18.42593765258789,1.707249402999878
0,460715,-145.4914093017578,-32.45268249511719,-71.02613067626953,-40.980709075927734
0,460718,-137.6089630126953,2.9728171825408936,-21.610017776489258,-10.786486625671387
0,460719,61.612152099609375,29.898283004760742,48.68242263793945,40.89780044555664
0,460722,42.15532302856445,21.140174865722656,-9.535987854003906,-21.491355895996094
0,460723,-13.928557395935059,15.927403450012207,2.5129599571228027,-17.404020309448242
0,460726,96.3968276977539,-7.869614601135254,28.219154357910156,57.57195281982422
0,460727,-9.579384803771973,-40.194580078125,-14.816804885864258,18.218463897705078
0,460730,-136.708740234375,16.47026252746582,3.7142767906188965,-48.30680847167969
0,460731,111.58122253417969,30.703420639038086,34.0925407409668,-26.192333221435547
0,460734,133.4567108154297,-28.937231063842773,-19.906719207763672,39.77165222167969
0,460735,-136.9680938720703,-22.135534286499023,-36.36183166503906,28.008724212646484
0,460738,-97.69535827636719,19.80434226989746,1.8146334886550903,-6.790916919708252
0,460739,39.26900100708008,24.45352554321289,-6.861849308013916,-41.80047607421875
0,460742,17.075197219848633,8.51668643951416,-1.964780569076538,-17.01930809020996
0,460743,-3.133953094482422,-28.62490463256836,18.322925567626953,41.265655517578125
0,460746,37.76206970214844,-24.44318199157715,21.435243606567383,-8.09954833984375
0,460747,-6.205127239227295,21.397003173828125,0.036538977175951004,-38.31407165527344
0,460750,-79.32611846923828,-2.954022169113159,-27.293420791625977,12.216039657592773
0,460751,70.34968566894531,30.02836799621582,29.410430908203125,38.99056625366211
0,460754,101.73822784423828,57.0856819152832,27.095430374145508,11.885320663452148
0,460755,-97.30699920654297,-91.66883087158203,-83.20591735839844,-50.25624465942383
0,460758,-79.60047149658203,-43.58088302612305,-9.355443000793457,-11.680924415588379
0,460759,42.69475173950195,109.09800720214844,98.14370727539062,57.9044075012207
0,460761,40.17818832397461,-40.801536560058594,-9.719429969787598,-18.505374908447266
0,460764,22.39151382446289,-59.51340103149414,-57.5819091796875,-27.873367309570312
0,460765,14.562986373901367,57.06932830810547,13.652788162231445,-15.804780960083008
0,460768,-60.11479949951172,-12.657734870910645,-13.538975715637207,-1.2577868700027466
0,460769,-83.10285949707031,-42.79695510864258,-34.16023254394531,44.17607879638672
0,460772,128.598876953125,28.96600341796875,54.60286331176758,0.9371264576911926
0,460773,138.63113403320312,51.29859161376953,30.948867797851562,-1.3804055452346802
0,460776,-162.92982482910156,-9.296266555786133,-60.488128662109375,2.005814790725708
0,460777,-90.6711654663086,-21.586414337158203,12.874256134033203,0.8088219165802002
0,460780,85.41214752197266,22.629127502441406,38.672428131103516,9.219965934753418
0,460781,10.84366226196289,-23.052108764648438,-31.122713088989258,-12.536646842956543
0,460784,-10.279278755187988,-34.93751907348633,16.384532928466797,4.029144287109375
0,460785,3.5027050971984863,30.70256805419922,18.86497688293457,19.774511337280273
0,460788,-44.98420333862305,-10.08767318725586,-64.23892974853516,-40.85865020751953
0,460789,-56.773372650146484,-2.651226758956909,-23.151866912841797,-21.43897247314453
0,460792,132.62550354003906,30.656652450561523,90.04827880859375,63.60803985595703
0,460793,130.89590454101562,-19.675495147705078,46.863929748535156,-1.782738447189331
0,460796,-182.29046630859375,-5.0181403160095215,-85.89752960205078,-50.121524810791016
0,460797,-105.54179382324219,12.587458610534668,-28.409908294677734,-9.017168045043945
0,460800,142.2202911376953,-0.7071319818496704,57.294185638427734,29.034658432006836
0,460801,20.127601623535156,-8.717391967773438,-12.395216941833496,5.236168384552002
0,460804,-27.972909927368164,16.441362380981445,-13.131706237792969,-23.603561401367188
0,460805,18.80492401123047,15.941577911376953,25.409812927246094,35.357757568359375
0,460808,-51.090301513671875,-28.58563232421875,-32.677791595458984,2.575819969177246
0,460809,-61.134944915771484,-8.0673189163208,-33.72514724731445,-28.877273559570312
0,460812,84.69160461425781,14.932877540588379,38.26612091064453,4.842670917510986
0,460813,122.67440032958984,7.580361366271973,35.586875915527344,-1.7685072422027588
0,460816,-144.6721649169922,-12.623259544372559,-4.899710655212402,-12.548990249633789
0,460817,-106.07640075683594,-7.687312126159668,-24.435522079467773,-11.968141555786133
0,460820,114.18756103515625,24.798110961914062,15.117581367492676,72.84334564208984
0,460821,40.099388122558594,-22.001548767089844,4.102519989013672,1.8778127431869507
0,460824,-2.715200185775757,-20.109066009521484,-60.66633224487305,-71.50263214111328
0,460825,0.9893708825111389,44.83757019042969,37.04872512817383,50.572139739990234
0,460828,-66.9500961303711,-13.670378684997559,23.279996871948242,15.37057113647461
0,460829,-54.05632400512695,-37.318538665771484,-74.03821563720703,-54.68157958984375
0,460832,119.06761169433594,39.870704650878906,46.68138122558594,4.593732833862305
0,460834,86.81974792480469,34.22583770751953,47.96183776855469,32.043060302734375
0,460835,-115.35701751708984,-25.418825149536133,-78.24657440185547,-14.183403015136719
0,460838,-61.03764343261719,-21.69057273864746,-13.840300559997559,0.6478837728500366
0,460839,24.53904151916504,-5.382534503936768,54.80352783203125,-16.067895889282227
0,460842,46.93451690673828,10.830338478088379,22.409944534301758,-14.25896167755127
0,460843,25.691883087158203,7.182562828063965,-23.338153839111328,22.3248291015625
0,460846,13.891251564025879,-28.63882064819336,22.741764068603516,5.035524368286133
0,460847,-21.22230339050293,10.281094551086426,23.357410430908203,-7.4923624992370605
0,460850,-92.80020141601562,16.971710205078125,-61.95964431762695,-15.086472511291504
0,460851,70.95220947265625,-9.028397560119629,35.64558029174805,19.405811309814453
0,460854,104.04730987548828,11.052081108093262,42.23661422729492,9.717242240905762
0,460855,-111.9684829711914,-15.121121406555176,-65.73513793945312,10.695086479187012
0,460858,-111.9120864868164,-0.29815176129341125,-38.2711181640625,-6.693026065826416
0,460859,72.18477630615234,16.361230850219727,5.664493560791016,-40.42771911621094
0,460862,69.26636505126953,-12.936469078063965,17.090612411499023,5.555673599243164
0,460863,-36.651119232177734,-15.094793319702148,7.123072624206543,39.13350296020508
0,460866,43.67228698730469,2.770690441131592,12.876277923583984,-0.9679432511329651
0,460867,-21.647735595703125,35.24370574951172,-4.808559417724609,-21.330652236938477
0,460870,-111.75022888183594,22.433609008789062,-15.266060829162598,21.219100952148438
0,460871,95.99404907226562,-25.615371704101562,46.79707336425781,-9.876616477966309
0,460874,107.16893768310547,-29.563743591308594,15.427383422851562,-15.40095329284668
0,460875,-62.53834915161133,-8.728131294250488,-63.46013259887695,-2.5008299350738525
0,460878,-106.32801055908203,3.3706042766571045,-27.39708137512207,-34.54469299316406
0,460879,17.630889892578125,37.475791931152344,56.092288970947266,35.236289978027344
0,460882,96.53176879882812,-3.6333460807800293,26.9462947845459,49.87417984008789
0,460883,-18.07720184326172,-43.116180419921875,-39.352779388427734,-27.279247283935547
0,460886,11.249836921691895,25.998233795166016,14.149864196777344,-29.481224060058594
0,460887,-34.42746353149414,24.49740982055664,-6.523473262786865,6.923534393310547
0,460890,-97.6099624633789,-35.970584869384766,-58.14603805541992,17.70555305480957
0,460891,78.18024444580078,-35.974185943603516,8.938332557678223,-10.49316692352295
0,460894,93.02522277832031,25.70589256286621,77.0777587890625,-20.688404083251953
0,460895,-78.39420318603516,37.41142654418945,29.12226676940918,10.627401351928711
0,460898,-114.57894897460938,-3.25728702545166,-62.612091064453125,34.501800537109375
0,460899,82.7920913696289,1.1357276439666748,-12.820425987243652,37.11736297607422
0,460902,106.75857543945312,-7.451096534729004,25.804698944091797,-49.546241760253906
0,460903,-56.73848342895508,16.08209228515625,18.36672592163086,-41.29658889770508
0,460906,3.1427993774414062,17.36316680908203,-4.273539066314697,51.91354751586914
0,460907,-6.334402084350586,-31.633338928222656,-61.33591842651367,-34.88148880004883
0,460910,-85.12801361083984,-7.876591682434082,23.460369110107422,7.173600196838379
0,460911,84.67472839355469,17.53240203857422,72.91714477539062,67.46250915527344
0,460914,62.5535774230957,-10.041312217712402,-59.8040885925293,-33.7114372253418
0,460915,-111.70120239257812,-35.61931610107422,-83.47785186767578,-44.020957946777344
0,460918,-26.698745727539062,16.711265563964844,42.478485107421875,-5.033450126647949
0,460920,114.9716796875,75.32313537597656,90.731201171875,18.730085372924805
0,460922,5.491385459899902,-11.806864738464355,6.765997886657715,15.502044677734375
0,460923,-118.31124114990234,-96.7047119140625,-56.51200866699219,-0.005329227540642023
0,460926,52.86593246459961,7.314516544342041,-17.414396286010742,-21.655851364135742
0,460927,21.70069122314453,65.53646087646484,-2.8421103954315186,-6.2746686935424805
0,460930,-92.70418548583984,-9.72626781463623,3.0194461345672607,17.311626434326172
0,460931,84.78253936767578,-24.372007369995117,45.52946853637695,27.03618621826172
0,460934,51.70647048950195,-23.78123664855957,-4.095230579376221,-7.9579243659973145
0,460935,-97.49559020996094,-5.5400495529174805,-66.06637573242188,-41.061668395996094
0,460938,-39.15701675415039,44.0052490234375,-7.362955093383789,-0.569397509098053
0,460939,46.407737731933594,4.539938449859619,56.32276916503906,1.7755273580551147
0,460942,42.06730651855469,-17.153478622436523,18.79091453552246,14.797897338867188
0,460943,3.8798863887786865,30.668479919433594,-25.001543045043945,18.479284286499023
0,460946,44.99684143066406,-0.9671245813369751,-2.033869981765747,-35.2730827331543
0,460947,-61.011959075927734,-48.081275939941406,-16.950057983398438,-9.924732208251953
0,460950,-68.20661926269531,-10.877845764160156,6.07621955871582,67.71004486083984
0,460951,139.6842041015625,65.85223388671875,62.153629302978516,19.808616638183594
0,460954,-7.08226203918457,10.330388069152832,-28.946733474731445,-67.9481430053711
0,460955,-144.43145751953125,-79.13309478759766,-55.10617446899414,-27.917705535888672
0,460958,10.832362174987793,28.51352882385254,24.14364242553711,52.42660903930664
0,460959,90.1337890625,49.688838958740234,-3.443573236465454,8.420191764831543
0,460962,12.790449142456055,-55.1706428527832,-20.16404914855957,-42.57428741455078
0,460963,-32.80534362792969,-25.323467254638672,14.367356300354004,45.2132453918457
0,460966,36.88185119628906,32.76811981201172,53.34884262084961,31.74898338317871
0,460967,-60.73415756225586,14.21564769744873,-4.360271453857422,-68.64498901367188
0,460970,-83.45957946777344,7.737043380737305,-59.0723762512207,-3.8380069732666016
0,460971,137.1334991455078,20.78349494934082,46.67893600463867,30.17847442626953
0,460974,63.91064453125,-23.140289306640625,23.676450729370117,-21.36529541015625
0,460975,-117.76578521728516,-32.51450729370117,-39.642250061035156,20.32811737060547
0,460978,-47.945308685302734,10.713204383850098,-20.239377975463867,-5.262450695037842
0,460979,56.89344787597656,5.7430100440979,6.132373332977295,-21.20882225036621
0,460982,56.93477249145508,10.744187355041504,29.11450958251953,44.2499885559082
0,460983,-0.6778839826583862,0.22058658301830292,-7.637848377227783,-5.343020439147949
0,460986,-1.3971264362335205,-8.081828117370605,0.18493764102458954,-51.813106536865234
0,460987,-92.3472671508789,-7.447543621063232,-31.425939559936523,-32.14545822143555
0,460990,-42.63734817504883,22.631813049316406,-20.090707778930664,41.90458679199219
0,460991,163.57809448242188,37.674556732177734,67.13806915283203,61.39315414428711
0,460994,-1.0973336696624756,-60.39945602416992,-4.136685371398926,-40.81433868408203
0,460995,-87.82431030273438,-36.095462799072266,-35.053062438964844,-30.057598114013672
0,460998,-12.655656814575195,51.69683837890625,29.356962203979492,57.15691375732422
0,460999,-0.0006580702029168606,2.4365787506103516,0.8206373453140259,13.04931354522705
0,461002,76.01618957519531,-10.115315437316895,-3.1972384452819824,-34.181480407714844
0,461003,-19.936359405517578,10.075841903686523,-21.37503433227539,-30.58712387084961
0,461006,-11.460417747497559,-15.130414009094238,-23.7200870513916,-11.639266014099121
0,461007,-26.473743438720703,5.986983776092529,25.73007583618164,70.46245574951172
0,461010,-77.04854583740234,8.215164184570312,-4.862087249755859,6.6333746910095215
0,461011,140.1501007080078,-23.631610870361328,30.786489486694336,-70.82706451416016
0,461014,41.949188232421875,20.200502395629883,11.606668472290039,15.56557559967041
0,461015,-137.2208709716797,5.88737678527832,-52.89348602294922,38.87144088745117
0,461018,-19.149564743041992,-29.599512100219727,15.63559627532959,7.204369068145752
0,461019,51.803157806396484,26.641098022460938,21.671266555786133,-0.7669693231582642
0,461022,14.733526229858398,-18.767114639282227,-17.97063446044922,-54.50603103637695
0,461023,-14.633426666259766,-15.722610473632812,9.031325340270996,-23.822776794433594
0,461028,59.75701141357422,33.79147720336914,14.446196556091309,57.5567741394043
0,461028,-35.775814056396484,-22.541715621948242,-44.62241744995117,8.567727088928223
0,461029,-132.03762817382812,6.839476108551025,-46.75612258911133,-40.869537353515625
0,461032,117.89524841308594,23.313724517822266,63.606781005859375,12.910131454467773
0,461033,149.29258728027344,-8.521262168884277,91.1611099243164,-0.5780998468399048
0,461036,-166.17898559570312,1.7867376804351807,-58.25164794921875,-53.60932922363281
0,461037,-95.55719757080078,-11.345306396484375,-83.45443725585938,12.519427299499512
0,461040,143.77565002441406,-5.5562310218811035,35.7205810546875,58.38090133666992
0,461041,-8.890151023864746,16.343246459960938,34.91880798339844,14.754098892211914
0,461044,-5.762017250061035,23.974712371826172,4.248432159423828,-19.619129180908203
0,461045,58.366981506347656,-25.920867919921875,5.736766338348389,12.443806648254395
0,461048,-104.5797348022461,-27.935470581054688,-38.99833679199219,22.161943435668945
0,461049,-103.98174285888672,42.60988235473633,-44.298980712890625,-12.929502487182617
0,461052,141.0703125,-18.39641761779785,64.83781433105469,-3.3890058994293213
0,461053,160.47775268554688,-35.093963623046875,53.42106628417969,-2.125936985015869
0,461056,-166.9416046142578,26.918672561645508,-81.7451400756836,-64.36478424072266
0,461057,-114.1053237915039,-2.149137020111084,-41.616004943847656,-13.046810150146484
0,461060,102.48206329345703,32.418006896972656,86.78589630126953,74.34368133544922
0,461061,30.267770767211914,28.917205810546875,52.91178512573242,7.935868263244629
0,461064,12.75747013092041,-55.495506286621094,-44.42911148071289,-38.581443786621094
0,461065,32.62589645385742,4.146374225616455,-27.015031814575195,5.170018672943115
0,461068,-71.76629638671875,9.61942195892334,-12.85739803314209,21.913070678710938
0,461069,-94.83800506591797,-48.614627838134766,-15.624581336975098,-8.300450325012207
0,461072,117.09745025634766,45.946720123291016,33.30831527709961,-2.896984100341797
0,461073,141.0044403076172,35.62215042114258,24.40279769897461,8.156296730041504
0,461076,-170.14610290527344,-62.32721710205078,-49.82538604736328,1.0493929386138916
0,461077,-111.29122924804688,4.7917375564575195,-23.510690689086914,6.521820068359375
0,461080,120.14912414550781,11.838726043701172,33.495941162109375,-22.964418411254883
0,461081,23.1298885345459,-23.86275291442871,3.804948091506958,-15.466408729553223
0,461084,21.604103088378906,29.765071868896484,18.02033042907715,12.85729694366455
0,461085,20.159461975097656,4.624711990356445,24.144237518310547,3.0674479007720947
0,461088,-115.93518829345703,-47.9657096862793,-41.132259368896484,5.594233989715576
0,461089,-40.89370346069336,22.875152587890625,-29.957868576049805,6.749072074890137
0,461092,152.77552795410156,55.15773391723633,52.66892623901367,-4.750457763671875
0,461093,79.53697967529297,-31.639862060546875,19.312740325927734,-18.239648818969727
0,461096,-188.0203094482422,-23.57013702392578,-60.38185501098633,18.308366775512695
0,461097,-64.11746978759766,10.176390647888184,-4.921875953674316,16.587120056152344
0,461100,134.8118896484375,-2.3229620456695557,38.145591735839844,-18.42414665222168
0,461101,-0.5229726433753967,14.183919906616211,-22.717159271240234,-5.669547080993652
0,461104,11.073976516723633,27.0327205657959,-14.203239440917969,1.6424410343170166
0,461105,10.989875793457031,-14.871556282043457,41.29273223876953,-1.0471696853637695
0,461108,-91.88080596923828,-48.355377197265625,-7.953627586364746,-22.909414291381836
0,461109,-35.98343276977539,17.55889129638672,-30.599838256835938,15.054671287536621
0,461112,115.00133514404297,41.09915542602539,15.585474967956543,29.159151077270508
0,461113,121.28203582763672,-17.44140625,18.18741798400879,6.5562896728515625
0,461116,-171.54673767089844,-22.7480525970459,-21.229251861572266,7.691720008850098
0,461117,-81.84374237060547,5.956165790557861,-2.9119455814361572,-26.478641510009766
0,461120,168.20663452148438,23.29629898071289,44.09788131713867,5.682953357696533
0,461121,-37.28260803222656,-15.327005386352539,-22.416662216186523,-0.07750262320041656
0,461124,-20.19416618347168,-15.066679000854492,-2.5889434814453125,-22.481504440307617
0,461126,60.88343048095703,25.326982498168945,30.31853485107422,15.697623252868652
0,461128,-110.11957550048828,-25.640939712524414,-59.732295989990234,-5.701139450073242
0,461130,-77.65589904785156,17.655317306518555,-9.649178504943848,-26.408842086791992
0,461132,151.60574340820312,43.96298599243164,54.40340042114258,-13.903273582458496
0,461134,125.12815856933594,-35.35921859741211,12.746505737304688,21.499889373779297
0,461136,-212.0467987060547,-30.29707908630371,-58.95241928100586,38.564273834228516
0,461138,-83.4326171875,4.885568618774414,-42.10785675048828,-8.19241714477539
0,461139,204.0430145263672,-6.954514026641846,70.9715576171875,-8.40027141571045
0,461142,3.085139274597168,-13.675617218017578,34.69413757324219,-5.384740352630615
0,461143,-76.65137481689453,49.820030212402344,-38.84306335449219,-7.039510726928711
0,461146,46.20738983154297,18.564193725585938,2.7862184047698975,36.565006256103516
0,461147,-48.63404846191406,-48.541534423828125,-26.520061492919922,-22.008970260620117
0,461150,-50.86749267578125,-5.2898077964782715,2.4447779655456543,-31.091445922851562
0,461151,124.77561950683594,6.397623062133789,82.24809265136719,5.25193977355957
0,461154,-7.278570175170898,-5.624624729156494,-41.69805908203125,22.50765609741211
0,461155,-109.25452423095703,15.06745433807373,-56.15777587890625,53.322959899902344
0,461158,14.722616195678711,12.778003692626953,12.745939254760742,-34.79790496826172
0,461159,36.60367202758789,-12.859183311462402,12.65864372253418,-42.94512176513672
0,461162,2.07327938079834,-13.543370246887207,31.695390701293945,1.7188447713851929
0,461163,9.482673645019531,9.753637313842773,-12.272467613220215,-7.055715560913086
0,461166,43.8905029296875,24.58897590637207,-3.116621971130371,40.019405364990234
0,461167,-76.09550476074219,17.75400733947754,6.6030988693237305,18.175230026245117
0,461170,-40.518611907958984,-4.2183685302734375,-26.703615188598633,-18.765897750854492
0,461171,158.21749877929688,-27.654159545898438,43.276824951171875,-3.7795515060424805
0,461174,-15.179678916931152,-9.836310386657715,14.619653701782227,-27.634004592895508
0,461175,-137.17222595214844,20.704259872436523,-55.77381896972656,20.90874671936035
0,461178,-10.758275032043457,5.664927005767822,8.42612075805664,25.83641815185547
0,461179,50.62894821166992,-26.57292366027832,15.611379623413086,-24.995677947998047
0,461182,69.59456634521484,0.5128896832466125,-8.84435749053955,16.984760284423828
0,461183,-12.961827278137207,27.51802635192871,-12.236566543579102,7.867851257324219
0,461186,-25.20830726623535,0.5065872669219971,5.247244358062744,-30.07628631591797
0,461187,-20.219154357910156,-29.959163665771484,-10.885896682739258,-5.8253679275512695
0,461190,-34.54197692871094,-5.891229629516602,5.522929668426514,21.272138595581055
0,461191,104.90620422363281,33.966041564941406,81.526611328125,12.515458106994629
0,461194,-4.0726728439331055,-50.98802947998047,-49.22826385498047,-53.269866943359375
0,461195,-126.9006118774414,-42.43168258666992,-91.40604400634766,-31.398300170898438
0,461198,10.90710163116455,48.14994430541992,49.257442474365234,85.02945709228516
0,461199,89.44818115234375,28.756616592407227,44.66258239746094,31.010089874267578
0,461202,48.612247467041016,37.39309310913086,2.590437650680542,-48.50590896606445
0,461203,-78.31939697265625,-6.213601589202881,-34.52362823486328,-22.86545181274414
0,461206,-32.45187759399414,-59.564640045166016,-35.46152114868164,-4.315506458282471
0,461207,-20.959064483642578,-14.3009033203125,20.178110122680664,13.428740501403809
0,461210,-16.166296005249023,41.944149017333984,40.520111083984375,22.836660385131836
0,461211,124.05399322509766,53.49398422241211,19.60049057006836,1.546039342880249
0,461214,-7.39171838760376,-16.23440933227539,-31.693971633911133,-15.124743461608887
0,461215,-83.28571319580078,-47.55006790161133,-51.13872528076172,-13.03743839263916
0,461218,-1.7953248023986816,-6.124168395996094,2.9140079021453857,-13.18600845336914
0,461219,26.736825942993164,18.434276580810547,54.429786682128906,31.400205612182617
0,461222,35.18506622314453,0.13800974190235138,16.69855308532715,23.27375030517578
0,461223,-29.977651596069336,-27.136024475097656,-15.052619934082031,-21.285966873168945
0,461226,33.85667419433594,5.7147440910339355,7.180811405181885,-19.391035079956055
0,461227,-19.14375114440918,15.148314476013184,-30.496625900268555,-11.098405838012695
0,461230,-65.50581359863281,-11.353022575378418,-11.865591049194336,9.89293098449707
0,461231,115.8736343383789,21.056407928466797,71.41496276855469,18.616708755493164
0,461234,13.375813484191895,15.37177848815918,-10.597341537475586,-5.283466339111328
0,461235,-106.53987884521484,-28.94532585144043,-76.94474792480469,-18.822540283203125
0,461238,-19.57457733154297,0.961514949798584,10.200643539428711,-9.263495445251465
0,461239,51.949920654296875,17.926252365112305,40.078216552734375,-7.827401161193848
0,461242,41.606239318847656,12.061651229858398,19.210636138916016,55.17750930786133
0,461243,-25.75480842590332,6.9518632888793945,-18.006925582885742,27.79513931274414
0,461246,18.505781173706055,-32.20798873901367,-23.708232879638672,-31.164316177368164
0,461247,-76.43527221679688,-50.990699768066406,-22.789592742919922,-9.222673416137695
0,461250,-46.16154479980469,6.9164509773254395,2.2991793155670166,-23.454967498779297
0,461251,174.1683349609375,74.63143157958984,67.60877227783203,21.845125198364258
0,461254,-28.283710479736328,-8.848883628845215,-31.9832820892334,16.963821411132812
0,461255,-88.11804962158203,-45.532772064208984,-29.735183715820312,-17.389673233032227
0,461258,16.03656768798828,21.38544464111328,28.32061767578125,-2.48211932182312
0,461259,-18.421611785888672,-3.278669595718384,-1.1408871412277222,3.3577561378479004
0,461262,49.6572265625,17.478954315185547,43.060813903808594,-4.924386978149414
0,461263,-7.72653865814209,26.58380126953125,-29.706037521362305,17.203914642333984
0,461266,3.4005894660949707,-40.809043884277344,-53.56270217895508,3.493311643600464
0,461267,-40.9154052734375,-34.46363067626953,11.313304901123047,-41.414466857910156
0,461270,-37.09010696411133,14.046134948730469,22.026382446289062,23.27875518798828
0,461271,140.3460235595703,33.344669342041016,60.311973571777344,19.24264144897461
0,461274,-45.55416488647461,3.661149740219116,-19.340309143066406,-18.620866775512695
0,461276,-117.2362289428711,-25.12689971923828,-81.50672912597656,-10.80095386505127
0,461278,47.951927185058594,13.458621978759766,8.534538269042969,-11.650778770446777
0,461280,50.17637252807617,22.306232452392578,39.99742126464844,-11.825910568237305
0,461282,38.9289436340332,-13.893513679504395,35.24264907836914,8.889558792114258
0,461283,-8.413337707519531,-4.95448112487793,-1.4207319021224976,26.185266494750977
0,461286,-17.012561798095703,-8.231452941894531,-42.51492691040039,-22.0775089263916
0,461287,-62.8617057800293,-22.380826950073242,-39.560218811035156,-3.4814200401306152
0,461290,-21.933063507080078,1.5447328090667725,12.510594367980957,24.153820037841797
0,461291,131.2345428466797,31.34743881225586,66.91426849365234,-2.2301974296569824
0,461294,-20.553773880004883,-12.323867797851562,-26.649080276489258,11.55109977722168
0,461295,-101.81065368652344,-20.208457946777344,-43.024169921875,-11.380610466003418
0,461298,18.234365463256836,24.85816764831543,31.626296997070312,-2.4192054271698
0,461299,40.09309387207031,-6.209604740142822,10.98205280303955,15.139251708984375
0,461302,32.712589263916016,-9.353842735290527,5.548435211181641,-39.7010498046875
0,461303,-24.706085205078125,-2.1829302310943604,11.080204963684082,1.2853912115097046
0,461306,-20.0263729095459,11.720626831054688,-17.570457458496094,33.23249816894531
0,461307,-20.21709632873535,16.939056396484375,-48.206783294677734,-16.644527435302734
0,461310,2.493459701538086,13.442477226257324,24.886388778686523,20.388057708740234
0,461311,112.4317398071289,0.8088983297348022,54.02561569213867,20.5399112701416
0,461314,-39.948822021484375,-27.962928771972656,-37.59626007080078,-55.80147171020508
0,461315,-99.48052978515625,34.48421096801758,-7.748348712921143,-15.794904708862305
0,461318,14.409734725952148,10.442719459533691,18.802576065063477,42.22650909423828
0,461319,19.65723991394043,-36.66268539428711,-18.236581802368164,11.845623016357422
0,461322,38.25540542602539,-17.8801212310791,-2.0074117183685303,-12.284076690673828
0,461323,-9.891461372375488,-22.923507690429688,27.703134536743164,-10.95016098022461
0,461326,12.758824348449707,40.82634353637695,-3.433284044265747,20.957534790039062
0,461327,-31.558076858520508,10.29221248626709,-58.02728271484375,9.94485092163086
0,461330,-70.05876159667969,-48.73823165893555,12.078729629516602,-44.6633186340332
0,461331,111.01374053955078,-0.9022179245948792,73.39282989501953,20.212705612182617
0,461334,24.1577205657959,17.76705551147461,-10.770662307739258,35.34819030761719
0,461335,-106.1108627319336,35.41973114013672,-47.503849029541016,-21.455007553100586
0,461338,-10.697482109069824,-10.642571449279785,5.3703837394714355,-15.540892601013184
0,461339,82.27653503417969,-24.403745651245117,41.692771911621094,3.473454236984253
0,461342,32.445098876953125,18.34593963623047,-4.178492069244385,8.107312202453613
0,461343,-62.2436408996582,-3.447131633758545,-33.48865509033203,-19.624561309814453
0,461346,33.25497055053711,6.455462455749512,6.11674690246582,6.77232027053833
0,461347,-43.36470031738281,-8.086170196533203,-22.89781951904297,4.6899333000183105
0,461350,-74.36483001708984,-15.501919746398926,30.077821731567383,-3.3348119258880615
0,461351,149.13490295410156,46.98750305175781,55.39504623413086,-1.7992361783981323
0,461354,11.986409187316895,6.214458465576172,-74.23087310791016,-22.93053436279297
0,461355,-128.58673095703125,-43.100582122802734,-43.3251953125,7.398975849151611
0,461358,10.522674560546875,8.969268798828125,35.44841384887695,8.130666732788086
0,461359,69.04436492919922,-5.485393524169922,7.7280473709106445,3.025682210922241
0,461362,43.642555236816406,2.0913403034210205,15.27440071105957,22.981365203857422
0,461363,-52.011226654052734,20.66063690185547,-6.503722667694092,22.209272384643555
0,461366,-21.84898567199707,-30.989337921142578,-17.84629249572754,-26.51313018798828
0,461367,-24.16669273376465,-17.449514389038086,19.738698959350586,-35.34801483154297
0,461370,-1.7417224645614624,48.65837860107422,28.98293113708496,25.249549865722656
0,461371,114.8033676147461,26.39363670349121,22.192564010620117,32.976295471191406
0,461374,-57.3133430480957,-61.89857482910156,-60.95098876953125,-12.105395317077637
0,461375,-102.94031524658203,-33.68596649169922,-57.26197814941406,-42.61667251586914
0,461378,36.776729583740234,49.77463912963867,67.87571716308594,11.695011138916016
0,461379,60.59682083129883,0.919603705406189,47.80372619628906,26.00453758239746
0,461382,35.25575256347656,-23.255088806152344,-23.116853713989258,-23.822614669799805
0,461383,-52.33900451660156,26.889616012573242,-20.573673248291016,-6.947971343994141
0,461386,5.764439582824707,-12.50815486907959,8.18282699584961,-22.132352828979492
0,461387,17.988021850585938,11.56678581237793,-16.85999298095703,3.5367562770843506
0,461390,-51.0056037902832,-0.154469296336174,-19.304019927978516,48.239891052246094
0,461391,63.202980041503906,-29.190711975097656,56.391212463378906,17.20453453063965
0,461394,-29.626205444335938,33.41866683959961,-18.61602020263672,4.375816822052002
0,461395,-98.43888092041016,-11.706993103027344,-54.786705017089844,6.690906524658203
0,461398,48.56273651123047,-0.718579888343811,29.406394958496094,-67.7611083984375
0,461400,53.776859283447266,30.292346954345703,32.109439849853516,-54.92277908325195
0,461402,18.291868209838867,-12.141695022583008,3.2831428050994873,99.32874298095703
0,461404,8.179243087768555,5.876477241516113,-21.67572784423828,45.093040466308594
0,461406,-32.22214889526367,-14.00113582611084,-18.6769962310791,-56.81550979614258
0,461408,-69.93080139160156,1.7359009981155396,-18.9312686920166,-29.17139434814453
0,461410,60.15095520019531,27.520118713378906,47.40094757080078,20.926036834716797
0,461412,132.062255859375,-16.074092864990234,59.64370346069336,9.555120468139648
0,461413,-45.01176834106445,-18.096881866455078,-43.85650634765625,-24.27519416809082
0,461416,-138.01028442382812,-52.54796600341797,-54.13655471801758,16.954402923583984
0,461417,-5.9171881675720215,8.340412139892578,0.06684286892414093,18.780488967895508
0,461420,110.93739318847656,93.15607452392578,55.329498291015625,1.7645622491836548
0,461421,-34.691829681396484,-20.060091018676758,-21.83987808227539,-24.47090721130371
0,461424,-55.81550979614258,-53.20310974121094,-44.44278335571289,-30.068729400634766
0,461425,65.3474349975586,42.31685256958008,44.53047561645508,18.535499572753906
0,461428,-64.48018646240234,-6.603596210479736,-20.92707633972168,15.737650871276855
0,461429,-117.20449829101562,-47.17348861694336,-28.42339324951172,-32.172603607177734
0,461432,150.4815673828125,28.81332778930664,52.645748138427734,15.326652526855469
0,461434,154.75453186035156,9.297015190124512,7.2047929763793945,19.858701705932617
0,461435,-141.7227783203125,-26.656381607055664,-43.01819610595703,-44.08261489868164
0,461438,-55.818824768066406,10.804117202758789,7.380060195922852,37.62076187133789
0,461439,81.27116394042969,22.81653594970703,47.07819366455078,39.778106689453125
0,461442,-5.947136402130127,-23.803586959838867,9.958100318908691,-32.6184196472168
0,461443,-21.077068328857422,-27.04825782775879,-35.02001953125,-1.4114885330200195
0,461446,14.394179344177246,28.19403076171875,-4.486903190612793,1.095597267150879
0,461447,-74.4046859741211,20.445459365844727,-5.716064929962158,-9.353550910949707
0,461450,-47.148868560791016,12.479023933410645,-4.716101169586182,6.912502765655518
0,461451,177.58645629882812,6.8221917152404785,74.04080963134766,19.416242599487305
0,461454,37.996212005615234,-16.190444946289062,-15.925522804260254,-1.4042320251464844
0,461455,-129.7907257080078,-12.888697624206543,-108.21351623535156,-40.12188720703125
0,461458,-12.761306762695312,-7.184879779815674,16.849470138549805,-12.492674827575684
0,461459,42.47233963012695,32.43472671508789,57.76729202270508,36.48381805419922
0,461462,2.840960741043091,-0.7123703360557556,10.001935005187988,17.29129981994629
0,461463,-11.167327880859375,-28.055814743041992,9.390193939208984,-9.223233222961426
0,461466,35.950626373291016,18.54642105102539,-20.974599838256836,-7.688127040863037
0,461467,-89.49239349365234,-15.357151985168457,-19.223613739013672,-15.220086097717285
0,461470,-53.241573333740234,-1.735870122909546,4.61361837387085,-12.815947532653809
0,461471,162.7987823486328,23.241430282592773,18.888887405395508,4.81510591506958
0,461474,17.31266212463379,-25.949235916137695,5.773904323577881,21.853809356689453
0,461475,-114.01676177978516,-9.940606117248535,-47.21999740600586,-7.115450859069824
0,461478,-25.41312599182129,28.727455139160156,-1.8388301134109497,-13.588927268981934
0,461479,52.51634979248047,-13.852184295654297,31.883529663085938,13.563117980957031
0,461482,64.13080596923828,-25.8247013092041,-13.964432716369629,-4.512986183166504
0,461483,-29.715200424194336,37.613590240478516,-6.09523868560791,-5.894935131072998
0,461486,-19.14045524597168,7.674278259277344,14.745255470275879,18.208330154418945
0,461487,-20.89293098449707,-28.095138549804688,-11.276188850402832,25.779525756835938
0,461490,-44.363677978515625,18.35519027709961,12.4674072265625,-22.67363929748535
0,461491,99.2764892578125,18.865943908691406,45.84576416015625,-9.71833324432373
0,461494,44.402923583984375,-24.281768798828125,-23.49032211303711,40.347991943359375
0,461495,-111.12841033935547,-23.360382080078125,-27.10274314880371,-31.93134307861328
0,461498,-56.24361801147461,3.902906894683838,26.985576629638672,-37.865726470947266
0,461499,76.51696014404297,17.479040145874023,19.133054733276367,45.88790512084961
0,461502,61.41347122192383,8.130022048950195,-34.70452880859375,22.488075256347656
0,461503,-49.21826934814453,-9.564665794372559,-35.109214782714844,-28.925989151000977
0,461506,-5.439534664154053,-6.623332977294922,33.52846145629883,-16.331817626953125
0,461507,-32.13713455200195,-16.327259063720703,-8.474462509155273,-12.177705764770508
0,461510,-43.5678596496582,0.6351285576820374,-30.58241844177246,17.224519729614258
0,461511,136.32199096679688,19.0591983795166,40.57288360595703,24.671052932739258
0,461514,24.064489364624023,26.421504974365234,-6.817672252655029,-19.778873443603516
0,461515,-141.55291748046875,-21.87002182006836,-47.71500015258789,-26.5372314453125
0,461518,-0.8137925267219543,-43.630226135253906,31.25995635986328,-29.645183563232422
0,461519,73.7677230834961,46.991783142089844,35.14305114746094,31.728845596313477
0,461522,26.972864151000977,17.943344116210938,-2.3814117908477783,59.24729919433594
0,461523,-18.26658058166504,-21.048114776611328,-21.042705535888672,-31.423999786376953
0,461526,9.124471664428711,27.372373580932617,4.41447639465332,-11.49733829498291
0,461527,-61.82120895385742,-9.158785820007324,-5.1566619873046875,33.9609260559082
0,461530,-76.35358428955078,-17.865942001342773,-18.989229202270508,-23.618228912353516
0,461531,159.4730682373047,29.98090362548828,74.67351531982422,-10.524246215820312
0,461534,28.568492889404297,-16.824262619018555,-7.265342712402344,17.6906681060791
0,461535,-126.66992950439453,-8.266016960144043,-70.30133819580078,-1.9064297676086426
0,461538,14.109859466552734,25.289268493652344,34.84298324584961,-8.079374313354492
0,461539,33.1404914855957,-26.241962432861328,21.7850284576416,-5.167971611022949
0,461542,15.073163032531738,-13.507710456848145,-29.49899673461914,6.209829807281494
0,461543,-23.75160026550293,-15.109969139099121,-14.133112907409668,1.385975956916809
0,461546,1.5710605382919312,-13.030662536621094,3.129610538482666,-14.312939643859863
0,461547,-19.460533142089844,50.13396453857422,-30.250396728515625,-29.79371452331543
0,461550,-23.539411544799805,34.68217468261719,29.900075912475586,20.983848571777344
0,461551,106.89263153076172,-53.793060302734375,94.42658996582031,57.780494689941406
0,461554,-2.6487486362457275,-55.363704681396484,-55.141231536865234,-32.34097671508789
0,461555,-96.9228286743164,50.17759323120117,-80.34344482421875,-43.73127746582031
0,461558,-23.292320251464844,37.06546401977539,51.005001068115234,49.45652389526367
0,461559,54.12653350830078,-28.711509704589844,45.93720626831055,21.564071655273438
0,461562,70.34098052978516,9.29596996307373,-23.83846092224121,-25.657123565673828
0,461563,-28.184078216552734,15.105728149414062,-32.18546676635742,-12.607629776000977
0,461566,-13.867053985595703,-22.74483871459961,18.752803802490234,-6.136974334716797
0,461567,-49.11775207519531,-31.85409927368164,-22.979507446289062,-13.058024406433105
0,461570,-26.05209732055664,12.779504776000977,-5.394567489624023,25.08770179748535
0,461571,95.07608795166016,25.8991641998291,78.15415954589844,71.55633544921875
0,461574,-42.17481994628906,-15.133641242980957,-71.1266098022461,-45.95916748046875
0,461576,-85.42613220214844,-13.398707389831543,-59.80575180053711,-48.170440673828125
0,461577,66.84944152832031,19.76307487487793,97.59134674072266,54.60043716430664
0,461580,37.97777557373047,24.096004486083984,2.389216899871826,-25.695541381835938
0,461581,-57.25974655151367,-18.804407119750977,-43.460575103759766,-40.46672058105469
0,461584,61.208465576171875,-15.37520694732666,27.312482833862305,14.86538314819336
0,461585,54.25514602661133,9.440237045288086,-11.010122299194336,-1.0279031991958618
0,461588,-120.18299865722656,9.441372871398926,-27.1291446685791,1.183451533317566
0,461589,-45.87911605834961,21.279733657836914,25.15277671813965,29.694042205810547
0,461592,142.2277374267578,0.7341429591178894,35.41707229614258,-5.352231502532959
0,461593,104.90584564208984,-6.8603973388671875,8.546136856079102,-21.41773223876953
0,461596,-170.22528076171875,-8.297511100769043,-54.38129425048828,26.2880859375
0,461597,-112.80864715576172,-42.7078857421875,44.20690155029297,1.4662009477615356
0,461600,137.48622131347656,-0.8823233842849731,33.62832260131836,-15.719013214111328
0,461601,25.77806854248047,46.952720642089844,-109.37425994873047,6.860820770263672
0,461604,-16.24323081970215,-4.351792812347412,27.635269165039062,9.628866195678711
0,461605,17.1052188873291,-52.98149871826172,49.77760696411133,-23.558719635009766
0,461608,-63.13502883911133,3.393294095993042,-57.09767532348633,-19.758167266845703
0,461609,-53.36372756958008,39.97417449951172,-37.07794952392578,23.245609283447266
0,461612,96.20667266845703,2.490729808807373,46.905357360839844,26.242176055908203
0,461613,114.2127456665039,26.81654167175293,55.61647415161133,-2.869236946105957
0,461616,-160.7839813232422,8.494704246520996,-75.2886962890625,-32.12674331665039
0,461617,-78.37124633789062,-44.15081024169922,-36.08932113647461,-9.079461097717285
0,461620,154.40753173828125,15.897651672363281,93.22110748291016,31.34424591064453
0,461621,16.474952697753906,38.06922149658203,35.97830581665039,24.539100646972656
0,461624,-25.208955764770508,-39.72169494628906,-35.6040153503418,-0.5465720891952515
0,461625,-30.4686222076416,-44.22511291503906,-17.469141006469727,-55.750022888183594
0,461628,-87.08193969726562,7.866816520690918,-14.147028923034668,-36.498756408691406
0,461629,-0.24120326340198517,19.92266082763672,6.335206031799316,80.3382339477539
0,461632,114.95819854736328,21.440168380737305,30.732421875,24.23624038696289
0,461633,54.67377471923828,18.205026626586914,-11.611266136169434,-50.5067138671875
0,461636,-144.22340393066406,-44.84738540649414,-47.21904754638672,-21.776195526123047
0,461637,-38.0545654296875,-33.386573791503906,-7.214733123779297,-4.236172676086426
0,461640,122.81542205810547,58.64358901977539,64.09156036376953,38.92265319824219
0,461641,-4.264298439025879,14.90617561340332,13.475364685058594,36.8039436340332
0,461644,-7.556836128234863,-25.065093994140625,-35.61923599243164,-11.166165351867676
0,461645,46.03054428100586,0.8560645580291748,3.7611536979675293,-29.114233016967773
0,461648,-96.78211975097656,-12.261679649353027,-27.448625564575195,-14.415132522583008
0,461649,-78.51769256591797,5.232337951660156,10.010004997253418,6.144647598266602
0,461652,155.17176818847656,7.934192657470703,52.41735076904297,-7.944104194641113
0,461653,82.68617248535156,-11.459884643554688,-44.20045471191406,-10.910816192626953
0,461656,-172.1988525390625,-2.0111336708068848,-40.89216613769531,30.473438262939453
0,461657,-49.75703811645508,7.073220729827881,41.353416442871094,3.822255849838257
0,461660,110.21267700195312,-14.235762596130371,28.844329833984375,-19.36581039428711
0,461661,27.26287269592285,2.1739213466644287,4.543731689453125,45.69882583618164
0,461664,-3.607496500015259,29.68409538269043,-14.048988342285156,-4.358033180236816
0,461665,-13.79056453704834,-30.15337371826172,-30.393434524536133,-52.13456726074219
0,461668,-65.69720458984375,1.4517992734909058,-1.083204746246338,2.9617013931274414
0,461669,-47.0916633605957,53.20643615722656,17.60601806640625,14.519329071044922
0,461672,111.38494110107422,-25.6337947845459,7.182736873626709,-19.606182098388672
0,461673,98.37767791748047,-30.307052612304688,8.433690071105957,-10.381050109863281
0,461676,-178.0206298828125,14.358929634094238,-20.60306167602539,9.160959243774414
0,461677,-61.95344543457031,3.655456781387329,-25.70298194885254,13.478670120239258
0,461680,152.21780395507812,6.311188220977783,28.407411575317383,24.193714141845703
0,461681,-26.097209930419922,-0.6406619548797607,14.166915893554688,-27.009767532348633
0,461684,-2.1029319763183594,-6.576983451843262,-8.426258087158203,-11.976308822631836
0,461685,42.981781005859375,-5.877683639526367,0.8261714577674866,35.426979064941406
0,461688,-108.80103302001953,-19.89841079711914,-32.319053649902344,4.425943374633789
0,461689,-23.59143829345703,-11.633257865905762,-1.9905481338500977,-7.883950233459473
0,461692,163.31983947753906,30.357942581176758,67.1955795288086,37.90044021606445
0,461693,59.45505905151367,45.972572326660156,6.491524696350098,9.934499740600586
0,461696,-193.61427307128906,-31.163738250732422,-73.91493225097656,-45.073158264160156
0,461697,-72.55684661865234,-30.73528289794922,-16.054588317871094,-9.546045303344727
0,461700,110.62271118164062,43.63285446166992,16.514623641967773,-11.449300765991211
0,461701,50.578338623046875,17.08078956604004,13.086749076843262,-4.568537712097168
0,461704,62.89405059814453,-18.152387619018555,82.67716217041016,49.847442626953125
0,461705,-27.568166732788086,-33.0040283203125,-7.250895977020264,13.309264183044434
0,461708,-137.48011779785156,-15.397969245910645,-101.29068756103516,-27.17081069946289
0,461709,-21.30499839782715,26.114261627197266,-5.442096710205078,-31.655620574951172
0,461712,152.2275848388672,31.53847885131836,73.63802337646484,5.44335412979126
0,461713,58.79323196411133,-12.46846866607666,33.914634704589844,1.4112639427185059
0,461716,-225.77288818359375,-49.97690200805664,-86.16608428955078,-9.588038444519043
0,461717,-59.163604736328125,4.175840854644775,-48.47184371948242,31.893444061279297
0,461720,205.9986114501953,53.27785110473633,97.92367553710938,-22.468524932861328
0,461722,48.75157165527344,-17.09842872619629,17.84029769897461,-32.52781295776367
0,461724,-50.82389831542969,-58.31310272216797,-80.64298248291016,24.072856903076172
0,461725,-27.565568923950195,54.318458557128906,21.533716201782227,51.450321197509766
0,461728,-85.45079040527344,39.116172790527344,15.027519226074219,-24.00790786743164
0,461729,1.552167296409607,-58.15697479248047,-9.724106788635254,-51.192649841308594
0,461732,124.1434555053711,2.9267117977142334,25.593961715698242,22.929935455322266
0,461733,25.084346771240234,13.031254768371582,-20.32968521118164,5.840222358703613
0,461736,-114.35428619384766,-21.86292839050293,-21.165712356567383,1.190104603767395
0,461737,-41.792022705078125,-4.171622276306152,4.8273115158081055,8.964529037475586
0,461740,71.28189849853516,-7.959068298339844,3.2221293449401855,-9.907232284545898
0,461741,40.152000427246094,-1.1901007890701294,29.42752456665039,11.590431213378906
0,461744,30.081470489501953,59.586830139160156,39.03572463989258,20.113168716430664
0,461745,-30.058866500854492,39.294925689697266,-14.437238693237305,4.44634485244751
0,461748,-103.41897583007812,-59.4261360168457,-58.16591262817383,-18.593854904174805
0,461749,-24.98577880859375,-43.48112869262695,-6.854933261871338,-36.0514030456543
0,461752,132.95782470703125,46.39259719848633,70.77793884277344,23.074695587158203
0,461753,86.33329772949219,20.58759307861328,-2.659635305404663,12.102684020996094
0,461756,-157.63111877441406,-52.953006744384766,-57.049442291259766,-26.784059524536133
0,461757,-69.77262115478516,33.5695686340332,16.92781639099121,31.22821044921875
0,461760,108.35901641845703,51.756370544433594,21.506723403930664,21.518709182739258
0,461761,19.60101890563965,-50.787452697753906,-19.298686981201172,-30.757638931274414
0,461764,-14.902609825134277,-37.51506042480469,-9.294472694396973,-20.0248966217041
0,461765,-2.2984914779663086,23.07062530517578,-4.313172340393066,7.742610454559326
0,461768,-10.209824562072754,28.631704330444336,-9.094602584838867,-12.35425090789795
0,461769,-15.488749504089355,-18.221155166625977,28.86249542236328,18.76910400390625
0,461772,37.384483337402344,-42.29007339477539,31.06769371032715,38.322532653808594
0,461773,62.059288024902344,1.2927323579788208,-39.92687225341797,-28.589561462402344
0,461776,-131.14129638671875,36.38005828857422,-31.359148025512695,-10.370892524719238
0,461777,-57.9112434387207,27.437715530395508,23.792705535888672,5.059130668640137
0,461780,128.3802490234375,-14.856554985046387,7.4656853675842285,-22.95319175720215
0,461781,-2.4654505252838135,-33.48685073852539,1.2845903635025024,-5.100804805755615
0,461784,8.870694160461426,9.823979377746582,22.054853439331055,8.035329818725586
0,461785,6.4652910232543945,-3.1148416996002197,-7.057002544403076,39.468162536621094
0,461788,-102.92687225341797,-2.6683168411254883,-41.805503845214844,25.81719398498535
0,461789,0.5228930711746216,31.539901733398438,2.6326284408569336,-43.19737243652344
0,461792,141.11190795898438,11.661396980285645,64.86209869384766,-6.006755828857422
0,461793,39.16781997680664,-13.87125301361084,7.476424694061279,26.020078659057617
0,461796,-163.18753051757812,-26.845582962036133,-73.35505676269531,-4.624497890472412
0,461797,-22.896886825561523,7.434238433837891,-24.518497467041016,-18.620262145996094
0,461800,104.99215698242188,16.294097900390625,43.27537536621094,-28.49866485595703
0,461801,-35.4801139831543,4.887115001678467,34.95644760131836,11.200919151306152
0,461804,21.90384292602539,4.844624042510986,-6.483224868774414,13.3140869140625
0,461805,50.47078323364258,-3.6534247398376465,-23.61037254333496,0.41205230355262756
0,461808,-94.0525131225586,-17.456180572509766,-25.68128204345703,6.330818176269531
0,461809,-27.138078689575195,-28.29068374633789,5.58049201965332,-1.3682018518447876
0,461812,100.42103576660156,11.325719833374023,54.77728271484375,-4.649102687835693
0,461813,30.365209579467773,17.175329208374023,2.50598406791687,-10.721976280212402
0,461816,-132.50762939453125,12.773327827453613,-71.51708221435547,2.76462459564209
0,461817,-34.30857467651367,1.583199143409729,16.557998657226562,18.755373001098633
0,461820,89.7452392578125,-47.69496536254883,54.15758514404297,12.296473503112793
0,461821,-20.42350196838379,-15.065133094787598,-10.382226943969727,-27.965085983276367
0,461824,43.338287353515625,47.257469177246094,4.95393180847168,1.1467028856277466
0,461825,20.379764556884766,35.855865478515625,-9.71825122833252,40.564125061035156
0,461828,-129.50515747070312,-35.32382583618164,-31.25881004333496,-26.015575408935547
0,461829,18.47638702392578,-26.650772094726562,6.1287007331848145,-9.737475395202637
0,461832,152.9842529296875,37.343955993652344,8.849804878234863,8.845098495483398
0,461833,3.611738920211792,12.574880599975586,-10.361189842224121,-50.670188903808594
0,461836,-136.2566375732422,-27.60250473022461,-14.037773132324219,6.453268527984619
0,461837,-7.923027992248535,-11.249347686767578,-10.414015769958496,64.03133392333984
0,461840,94.78591918945312,15.741313934326172,45.57508087158203,8.874428749084473
0,461841,1.5995278358459473,14.49841022491455,44.05130386352539,-23.998430252075195
0,461844,-2.35223388671875,15.1865234375,-39.29169845581055,-32.85855484008789
0,461845,-18.67048454284668,-11.223708152770996,-32.66535949707031,-17.435718536376953
0,461848,-87.0206298828125,-2.5027921199798584,13.331818580627441,71.12716674804688
0,461849,23.214008331298828,13.769508361816406,-1.8958210945129395,-1.2720355987548828
0,461852,115.73889923095703,-24.703027725219727,12.618123054504395,-79.29927825927734
0,461853,-21.784582138061523,-15.924317359924316,-0.017779028043150902,23.50058937072754
0,461856,-130.20863342285156,-13.95728874206543,-30.055763244628906,64.7815170288086
0,461858,-12.230703353881836,-11.95157241821289,8.77853012084961,42.894893646240234
0,461860,88.28732299804688,37.376094818115234,7.225100994110107,-58.92012023925781
0,461862,32.842281341552734,13.515056610107422,13.64195728302002,-101.75567626953125
0,461864,26.02629280090332,-27.978431701660156,0.40752696990966797,41.13467788696289
0,461866,-5.301565647125244,18.01142120361328,-25.927997589111328,82.6926498413086
0,461868,-120.74732971191406,-21.994098663330078,-11.966313362121582,-23.712905883789062
0,461870,20.983421325683594,-22.691036224365234,10.43839168548584,-32.28593444824219
0,461871,150.8868408203125,65.87763977050781,53.4828987121582,18.09471893310547
0,461874,-51.25266647338867,5.256961822509766,-29.275436401367188,-9.931640625
0,461875,-111.62045288085938,-38.2790412902832,-45.43215560913086,-26.976688385009766
0,461878,2.5064122676849365,0.28623881936073303,58.99371337890625,8.138148307800293
0,461879,70.4778823852539,29.690500259399414,18.44720458984375,15.168208122253418
0,461882,44.61054611206055,-4.652162075042725,-25.04857063293457,15.084651947021484
0,461883,-52.49482727050781,-40.48525619506836,-4.712521553039551,6.926759243011475
0,461886,-13.893112182617188,23.055892944335938,2.0223312377929688,-38.54087829589844
0,461887,-46.78279113769531,13.333003044128418,-20.35829734802246,-7.295552730560303
0,461890,1.5736134052276611,-26.352724075317383,-9.565315246582031,39.10251235961914
0,461891,154.72097778320312,25.369354248046875,53.108184814453125,13.122037887573242
0,461894,-38.5350227355957,-11.308561325073242,-15.218582153320312,-32.69373321533203
0,461895,-117.69622802734375,-22.520448684692383,-44.11387634277344,-29.813589096069336
0,461898,19.789491653442383,28.75746726989746,48.7296028137207,45.15298843383789
0,461899,57.99059295654297,-16.271202087402344,-14.295705795288086,13.934463500976562
0,461902,29.54425811767578,16.442968368530273,-44.91444778442383,-34.9795036315918
0,461903,-53.2939567565918,31.03085708618164,39.5427360534668,9.648548126220703
0,461906,-25.25605583190918,-54.310203552246094,4.324806213378906,20.03309440612793
0,461907,-66.3350601196289,-34.928958892822266,-66.7992172241211,3.138286828994751
0,461910,50.45033264160156,70.42583465576172,52.59144592285156,-23.09298324584961
0,461911,172.97305297851562,28.266357421875,88.9256362915039,-8.637457847595215
0,461914,-105.67774963378906,-51.432674407958984,-72.6270980834961,22.500770568847656
0,461915,-91.65390014648438,-7.2940754890441895,-49.61796188354492,11.29006290435791
0,461918,73.13272857666016,34.97001266479492,35.1102409362793,-12.599363327026367
0,461919,27.14627456665039,-5.164608955383301,27.72337532043457,-5.059415817260742
0,461922,6.345521926879883,-45.417598724365234,-7.534514427185059,10.61523723602295
0,461923,-50.007057189941406,24.99773406982422,-38.72255325317383,-14.93096923828125
0,461926,-26.02085304260254,-12.136030197143555,-13.08125114440918,-11.950580596923828
0,461927,-4.21505069732666,-48.2893180847168,12.55406665802002,36.318729400634766
0,461930,-3.10200572013855,61.31690216064453,34.34613800048828,-2.4571144580841064
0,461931,116.13613891601562,36.51100540161133,43.39420700073242,-44.450408935546875
0,461934,-3.7490475177764893,-25.39398956298828,-24.107810974121094,10.192200660705566
0,461935,-125.62840270996094,-7.859798431396484,-57.74876022338867,25.146663665771484
0,461938,16.291301727294922,-8.276144981384277,3.531066656112671,2.6482834815979004
0,461939,50.27317428588867,-3.15787672996521,39.946998596191406,-4.288062572479248
0,461942,21.474685668945312,5.094534873962402,7.656780242919922,-11.050562858581543
0,461943,0.7362469434738159,14.911993026733398,-23.405229568481445,-5.0065202713012695
0,461946,-45.1231575012207,-8.985102653503418,-4.510300159454346,8.135575294494629
0,461947,-73.09121704101562,-28.375652313232422,-18.66620445251465,-21.644933700561523
0,461950,64.70140075683594,41.25196075439453,17.29444122314453,7.997708797454834
0,461951,150.97601318359375,36.14901351928711,71.16567993164062,47.77194595336914
0,461954,-87.64376068115234,-75.910888671875,-42.79741287231445,-22.883817672729492
0,461955,-111.79072570800781,-14.811893463134766,-87.11431121826172,-20.36565589904785
0,461958,36.851715087890625,56.41427230834961,51.0892219543457,13.644251823425293
0,461959,77.27059936523438,17.301326751708984,73.88478088378906,-6.651683330535889
0,461962,12.43751335144043,-3.03076171875,-42.94268035888672,-5.56511116027832
0,461963,-60.44467544555664,-45.2382926940918,-37.25364303588867,1.8943548202514648
0,461966,-2.2157106399536133,-1.953283667564392,4.727477550506592,-0.2238047868013382
0,461967,-62.47665023803711,5.019270420074463,-25.38973617553711,-2.1046111583709717
0,461970,42.55730438232422,9.13797378540039,33.43111038208008,11.420951843261719
0,461971,144.5122833251953,41.17264938354492,67.52178955078125,-12.485984802246094
0,461974,-101.2868423461914,-48.55787658691406,-44.22152328491211,-5.894275665283203
0,461975,-100.71826171875,-28.65279197692871,-65.25414276123047,7.283819675445557
0,461978,44.79236602783203,47.96559524536133,40.42875671386719,-6.937342643737793
0,461979,37.721710205078125,11.047980308532715,35.32451248168945,35.39802551269531
0,461982,32.253173828125,-22.48193359375,-29.323118209838867,-8.262839317321777
0,461983,-24.315311431884766,-19.702537536621094,-16.392078399658203,-34.19347381591797
0,461986,-14.505419731140137,12.034281730651855,11.124094009399414,29.992345809936523
0,461987,-27.354236602783203,-2.363455057144165,7.307514667510986,-4.57857084274292
0,461990,22.743244171142578,21.294740676879883,48.68336486816406,2.4656031131744385
0,461991,113.92598724365234,52.6242561340332,33.24619674682617,40.28717041015625
0,461994,-89.81463623046875,-68.08354187011719,-100.98236846923828,-39.765262603759766
0,461995,-105.11846923828125,-45.69388961791992,-50.51873779296875,-39.24010467529297
0,461998,76.738525390625,42.547611236572266,102.51863098144531,37.60871505737305
0,461999,67.24150848388672,13.191243171691895,27.96974754333496,24.3802433013916
0,462002,0.893671989440918,16.953889846801758,-68.92222595214844,-9.325661659240723
0,462003,-44.2967643737793,-31.0414981842041,-20.919353485107422,-36.423988342285156
0,462006,-15.028743743896484,-18.027177810668945,17.7136173248291,-8.399410247802734
0,462007,-30.755598068237305,47.8053092956543,12.103655815124512,27.114410400390625
0,462010,21.613508224487305,-15.881152153015137,8.029742240905762,-1.4390321969985962
0,462011,113.62743377685547,-10.67201042175293,18.511390686035156,8.67199993133545
0,462014,-91.87399291992188,3.029301404953003,-32.98650360107422,-8.776508331298828
0,462015,-115.94794464111328,-15.651077270507812,-42.89462661743164,-27.215633392333984
0,462018,92.12102508544922,49.64668655395508,48.81245422363281,29.216550827026367
0,462019,48.2685432434082,-3.913085460662842,52.459293365478516,26.374238967895508
0,462022,3.9331226348876953,-33.22343444824219,-19.87836265563965,-36.10354232788086
0,462023,18.75078582763672,14.202512741088867,-41.86608123779297,-20.062753677368164
0,462026,-41.44459915161133,-22.72726058959961,-6.184008598327637,29.132293701171875
0,462027,-87.59123992919922,-9.359082221984863,-14.898698806762695,2.5562288761138916
0,462030,33.93876266479492,45.94181823730469,20.78290557861328,-21.21200180053711
0,462031,144.8094940185547,12.322997093200684,66.72115325927734,19.8120174407959
0,462034,-78.84182739257812,-57.008216857910156,-75.52853393554688,-3.7289857864379883
0,462035,-129.6229705810547,-13.220672607421875,-63.10629653930664,-11.93931770324707
0,462038,62.46543884277344,41.850704193115234,92.3183364868164,16.57933235168457
0,462039,91.44861602783203,14.136515617370605,32.885562896728516,-26.307802200317383
0,462042,8.664216995239258,-11.31221866607666,-38.85449981689453,15.13014030456543
0,462043,-61.574729919433594,5.9248833656311035,-15.667326927185059,43.7729377746582
0,462046,-7.169369697570801,14.255122184753418,8.356359481811523,-19.620847702026367
0,462047,-30.854536056518555,-27.861452102661133,-16.68658447265625,-25.945608139038086
0,462050,46.3735237121582,-12.426424026489258,11.92229175567627,-1.6176198720932007
0,462051,105.53388977050781,7.090751647949219,51.88182067871094,-17.169897079467773
0,462054,-127.91070556640625,-21.558351516723633,-80.71343231201172,-9.289528846740723
0,462055,-89.54430389404297,5.357163906097412,-12.640389442443848,50.319393157958984
0,462058,67.21773529052734,30.375534057617188,118.7847671508789,47.77062225341797
0,462059,66.13107299804688,4.8693366050720215,-48.28336715698242,-33.80335998535156
0,462062,43.99742889404297,-9.278181076049805,-32.76430130004883,-40.49345397949219
0,462063,-27.766530990600586,-19.644676208496094,68.48163604736328,31.58165168762207
0,462066,-39.69057083129883,-3.920114755630493,-37.87237548828125,-24.526113510131836
0,462069,36.21000289916992,23.351295471191406,-9.316556930541992,-33.762779235839844
0,462069,13.794785499572754,15.717039108276367,38.252403259277344,46.94878005981445
0,462072,-61.278770446777344,7.184269905090332,-52.239803314208984,8.771100997924805
0,462073,-15.003296852111816,-49.21040344238281,-34.68883514404297,-15.905621528625488
0,462076,-34.49507522583008,-17.224449157714844,-9.644941329956055,16.782630920410156
0,462077,12.827807426452637,59.65741729736328,10.069313049316406,18.78228187561035
0,462080,77.91654968261719,1.9489190578460693,65.40240478515625,-68.70310974121094
0,462081,-26.591270446777344,-36.00823974609375,-3.0543630123138428,-73.34879302978516
0,462084,8.974836349487305,11.599032402038574,-36.19572067260742,79.18724822998047
0,462085,0.6047336459159851,13.764486312866211,-7.4625139236450195,79.45849609375
0,462088,-116.60404205322266,-18.458633422851562,-20.554000854492188,-30.8875789642334
0,462089,41.739559173583984,17.886035919189453,57.204185485839844,-6.564113140106201
0,462092,161.6929168701172,2.53973388671875,55.45903778076172,14.536050796508789
0,462093,-40.928077697753906,-18.651063919067383,-71.66643524169922,-46.22927474975586
0,462096,-141.26031494140625,14.490202903747559,-29.357681274414062,-28.495771408081055
0,462097,31.747249603271484,-17.02766227722168,36.29441452026367,57.93758010864258
0,462100,98.06287384033203,-17.18524742126465,11.306885719299316,29.734891891479492
0,462101,-7.318482875823975,34.13994598388672,7.904665470123291,-44.508544921875
0,462104,4.03683614730835,27.29210662841797,-18.00075340270996,-0.7107982039451599
0,462105,-49.25175857543945,-54.493106842041016,-33.46310043334961,12.015243530273438
0,462108,-94.94747924804688,-59.50625991821289,-13.61715316772461,-45.735069274902344
0,462109,72.90929412841797,73.67417907714844,32.19357681274414,11.13003158569336
0,462112,101.88197326660156,36.1525993347168,43.9058837890625,63.31357955932617
0,462113,-33.57231140136719,-38.73115539550781,-19.218923568725586,-5.871577262878418
0,462116,-97.82025909423828,7.140048503875732,-33.91557693481445,-38.06563949584961
0,462117,0.0084394421428442,4.602266311645508,18.28692626953125,-5.761064052581787
0,462120,83.82049560546875,19.207605361938477,13.032419204711914,-5.534688949584961
0,462121,14.117791175842285,-20.378265380859375,-34.03290939331055,-3.4543635845184326
0,462124,-4.664760589599609,-13.90864086151123,35.666255950927734,30.506317138671875
0,462125,-23.69025421142578,23.793498992919922,17.909996032714844,7.167099952697754
0,462128,-68.62881469726562,-28.317930221557617,-84.38975524902344,-12.92369270324707
0,462129,27.105661392211914,13.707322120666504,36.9382438659668,8.217138290405273
0,462132,94.89690399169922,44.020835876464844,65.71444702148438,3.1136083602905273
0,462133,-18.160259246826172,-32.772274017333984,-69.30103302001953,0.11751774698495865
0,462136,-111.02477264404297,-44.366981506347656,-17.68899154663086,-5.757476329803467
0,462137,13.02493667602539,-7.524361610412598,28.848323822021484,-12.322870254516602
0,462140,75.4694595336914,6.720669746398926,-19.43765640258789,-19.161901473999023
0,462141,-31.877172470092773,37.20478057861328,33.62895202636719,-17.410232543945312
0,462144,45.664310455322266,31.98296356201172,44.95441436767578,30.54947280883789
0,462145,-8.447733879089355,-34.61149215698242,-56.28596496582031,2.5540313720703125
0,462148,-133.2027587890625,-45.36981964111328,-39.572479248046875,-32.647705078125
0,462149,80.78923034667969,40.45112991333008,70.48551940917969,20.99098014831543
0,462152,129.49205017089844,40.2645378112793,32.2011833190918,19.815431594848633
0,462153,-65.32714080810547,-52.048316955566406,-61.11433029174805,12.239203453063965
0,462156,-120.11849975585938,-6.735496520996094,-37.70637512207031,-1.0274956226348877
0,462157,7.3490891456604,56.453460693359375,31.26247787475586,-14.049358367919922
0,462160,89.54068756103516,2.033491611480713,49.29713821411133,24.484691619873047
0,462161,11.512439727783203,-35.4513053894043,-7.641664028167725,-0.9001181721687317
0,462164,9.85277271270752,-7.930053234100342,-39.317508697509766,2.7173266410827637
0,462165,-37.04186248779297,-18.73711395263672,-32.291770935058594,-0.690774142742157
0,462168,-103.2586898803711,11.92795181274414,-18.80154800415039,-55.3010139465332
0,462169,86.64541625976562,77.85863494873047,56.8455696105957,-10.84553050994873
0,462172,121.24571228027344,-13.111766815185547,48.745941162109375,39.112083435058594
0,462173,-67.7112045288086,-54.02415466308594,-34.7139892578125,17.721736907958984
0,462176,-97.3258285522461,15.834859848022461,-39.405296325683594,-16.684368133544922
0,462177,16.089353561401367,5.31682014465332,10.502198219299316,-2.1197917461395264
0,462180,52.23930740356445,-16.829355239868164,45.561279296875,-9.484790802001953
0,462181,-1.6543809175491333,-18.364213943481445,-16.494041442871094,-15.862593650817871
0,462184,43.64192581176758,-8.83791732788086,-26.317209243774414,37.08637619018555
0,462185,-26.928743362426758,-5.084205627441406,1.3709734678268433,21.276952743530273
0,462188,-119.09224700927734,1.3439196348190308,-9.211479187011719,-7.7127790451049805
0,462189,67.05033874511719,53.47052001953125,32.38846206665039,-10.536138534545898
0,462192,116.73470306396484,14.441534996032715,8.410459518432617,-8.690929412841797
0,462193,-44.526939392089844,-49.4702262878418,-22.152801513671875,-12.399328231811523
0,462196,-123.89334869384766,-11.507438659667969,-19.553913116455078,-12.812691688537598
0,462197,0.5482016205787659,12.778802871704102,-2.738175868988037,18.4481201171875
0,462200,126.94269561767578,3.2168679237365723,26.696077346801758,1.7780550718307495
0,462201,-18.671236038208008,7.454455852508545,-9.43687629699707,-9.939385414123535
0,462204,-12.168702125549316,15.357231140136719,16.178346633911133,18.84319305419922
0,462205,3.8544838428497314,12.889892578125,29.411216735839844,25.680484771728516
0,462208,-113.04881286621094,-48.75428009033203,-44.192989349365234,25.55551528930664
0,462209,73.29717254638672,-7.737590312957764,11.612944602966309,-56.05075454711914
0,462212,100.35975646972656,41.579566955566406,46.146732330322266,-61.094295501708984
0,462213,-73.25679779052734,-28.927326202392578,-56.19873809814453,67.64510345458984
0,462216,-66.97805786132812,2.039005994796753,-44.51955032348633,-9.987751960754395
0,462217,7.204129695892334,6.824544429779053,33.76853561401367,-40.176422119140625
0,462220,82.54377746582031,14.734975814819336,27.461078643798828,66.15603637695312
0,462221,19.204586029052734,28.892902374267578,7.170923709869385,8.07788372039795
0,462224,-9.726705551147461,-11.090875625610352,8.952540397644043,-49.837528228759766
0,462225,-24.527624130249023,-7.084468364715576,-44.44081115722656,-15.317676544189453
0,462228,-113.12684631347656,-4.709515571594238,-33.28725051879883,26.19015121459961
0,462229,38.53384780883789,-3.3726329803466797,56.503379821777344,13.42054271697998
0,462232,128.03936767578125,-37.09861373901367,28.876121520996094,-21.440372467041016
0,462233,-30.431779861450195,-13.132584571838379,-38.63267517089844,17.89043426513672
0,462236,-98.13748168945312,42.42317581176758,-39.287296295166016,25.152908325195312
0,462237,9.779500007629395,-3.240638256072998,12.377378463745117,-14.944557189941406
0,462240,69.30828857421875,-22.654815673828125,31.112953186035156,11.715188026428223
0,462242,10.459705352783203,23.603919982910156,32.1663818359375,17.04628562927246
0,462244,13.753898620605469,16.23450469970703,14.416086196899414,-52.993743896484375
0,462246,-46.47221374511719,-19.617734909057617,-54.42405319213867,-52.3973503112793
0,462248,-111.99774932861328,-16.102657318115234,-31.335586547851562,43.56768035888672
0,462250,91.80001068115234,-2.029217481613159,27.024381637573242,25.843807220458984
0,462252,136.97808837890625,23.174070358276367,13.751449584960938,-18.915325164794922
0,462254,-125.7323226928711,6.240135192871094,-19.654640197753906,13.38289737701416
0,462255,-60.76907730102539,-7.449074745178223,13.22506046295166,12.391575813293457
0,462258,82.12483978271484,31.119279861450195,13.035971641540527,-6.3147687911987305
0,462261,15.008845329284668,-2.6517112255096436,-11.145075798034668,-22.9085636138916
0,462262,6.156928539276123,-20.126598358154297,25.331287384033203,9.899877548217773
0,462263,-37.96792984008789,0.45282354950904846,-27.40448760986328,45.281986236572266
0,462266,-32.492645263671875,-19.895565032958984,-26.886507034301758,-28.630075454711914
0,462267,-14.669635772705078,-16.59430503845215,8.761052131652832,-34.982276916503906
0,462270,52.92140579223633,40.742916107177734,19.08592987060547,46.20205307006836
0,462271,134.43569946289062,35.61060333251953,64.34130096435547,-22.855188369750977
0,462274,-75.93488311767578,-54.755863189697266,-28.736595153808594,-28.5250186920166
0,462275,-127.11477661132812,-20.160999298095703,-69.29959106445312,23.48956871032715
0,462278,33.630916595458984,40.36000442504883,30.913013458251953,-0.29705700278282166
0,462279,39.65848922729492,-8.838949203491211,32.68614959716797,13.759954452514648
0,462282,22.354000091552734,-14.692243576049805,-27.625776290893555,6.192572593688965
0,462283,-30.5692195892334,6.226372718811035,-23.433408737182617,4.074793815612793
0,462286,-32.31859588623047,-6.641995906829834,3.885749340057373,-10.005366325378418
0,462287,-36.88161849975586,-12.372005462646484,-28.15024757385254,-11.414206504821777
0,462290,37.76492691040039,33.8840446472168,47.709774017333984,35.790611267089844
0,462291,135.103759765625,20.588815689086914,89.29938507080078,15.307010650634766
0,462294,-78.45581817626953,-66.56827545166016,-91.15614318847656,-80.49162292480469
0,462295,-89.30020141601562,0.5533009171485901,-49.7121696472168,-36.747928619384766
0,462298,63.920047760009766,49.9741325378418,72.6744613647461,60.76524353027344
0,462299,12.238322257995605,-8.37647819519043,5.695103168487549,34.850032806396484
0,462302,6.7617106437683105,4.984751224517822,-33.21509552001953,-23.809507369995117
0,462303,-9.44660472869873,-22.48077964782715,-22.284757614135742,-43.45563507080078
0,462306,-33.60624694824219,-30.679584503173828,34.20196533203125,31.097412109375
0,462307,-23.905555725097656,43.83636474609375,20.448734283447266,33.95815658569336
0,462310,34.644752502441406,32.01618576049805,-30.595956802368164,-15.157058715820312
0,462311,99.56536102294922,-15.619447708129883,-4.977712154388428,17.538721084594727
0,462314,-49.36300277709961,-29.31610679626465,-6.5377020835876465,-8.607316970825195
0,462315,-83.682861328125,-6.890016555786133,3.277981996536255,-53.740360260009766
0,462318,37.9405403137207,18.320331573486328,26.636308670043945,15.993616104125977
0,462319,28.171295166015625,-16.30095100402832,-1.7566099166870117,42.02677917480469
0,462322,-2.3966188430786133,4.293330192565918,-20.919036865234375,-18.695571899414062
0,462323,-29.961944580078125,44.70357894897461,1.4700006246566772,2.327975034713745
0,462326,2.588913917541504,-15.915687561035156,1.6055253744125366,18.68274688720703
0,462327,-53.788978576660156,-51.59536361694336,-32.13405227661133,-15.352729797363281
0,462330,12.559304237365723,9.903499603271484,42.683692932128906,-14.233190536499023
0,462331,184.8654327392578,50.0748176574707,84.16068267822266,6.461300849914551
0,462334,-77.68221282958984,-0.6085560917854309,-61.6501350402832,4.4279985427856445
0,462335,-169.5713653564453,-53.00493240356445,-85.97161102294922,12.783137321472168
0,462338,95.80144500732422,-17.363527297973633,49.62867736816406,42.077945709228516
0,462339,79.96333312988281,29.93877601623535,20.013471603393555,-26.06534194946289
0,462342,-66.91796875,6.772642612457275,-41.34965133666992,-92.77174377441406
0,462343,-7.894852161407471,22.958341598510742,32.47440719604492,-12.2520170211792
0,462346,46.37242126464844,28.88479995727539,4.471746921539307,60.4018440246582
0,462347,-70.20913696289062,-30.10123634338379,-30.007877349853516,6.257889270782471
0,462350,24.294931411743164,-36.9512825012207,26.527698516845703,-13.77281379699707
0,462351,141.11346435546875,7.889877796173096,16.86456871032715,-71.06768035888672
0,462354,-97.55989837646484,31.573226928710938,-38.22660446166992,29.494890213012695
0,462355,-121.77374267578125,2.697340488433838,-29.921283721923828,167.3926239013672
0,462358,58.90514373779297,-3.1712448596954346,46.458560943603516,-69.54146575927734
0,462359,46.14873504638672,-10.218779563903809,32.98823547363281,-73.1180191040039
0,462362,12.783364295959473,4.188156604766846,-9.49297046661377,62.411773681640625
0,462363,17.75326919555664,0.09971971809864044,12.699775695800781,-13.849687576293945
0,462366,-35.01291275024414,-54.47638702392578,-28.29541778564453,-8.049735069274902
0,462367,-101.0274887084961,-9.664515495300293,-59.21235275268555,3.4798827171325684
0,462370,53.99066925048828,64.20088958740234,52.105491638183594,2.500286102294922
0,462371,122.35649871826172,20.069345474243164,59.462364196777344,18.656455993652344
0,462374,-97.11186981201172,-52.77592468261719,-64.8605728149414,-25.38056182861328
0,462375,-82.56155395507812,-30.877086639404297,-30.884248733520508,-24.816226959228516
0,462378,82.24662780761719,29.016036987304688,39.68169021606445,-0.1641164869070053
0,462379,71.93983459472656,62.31367111206055,31.81304931640625,19.921398162841797
0,462382,15.904820442199707,7.853682994842529,-4.840294361114502,17.250303268432617
0,462383,-44.83445739746094,-44.94717788696289,-18.05268096923828,-23.151634216308594
0,462386,-55.01436233520508,-23.282196044921875,-15.668073654174805,10.089137077331543
0,462387,-53.60758590698242,-5.669896125793457,-54.63687515258789,36.76332473754883
0,462390,50.55508041381836,44.58502197265625,35.09640884399414,-44.7197380065918
0,462391,145.28610229492188,36.245094299316406,95.67446899414062,-40.713661193847656
0,462394,-82.88981628417969,-62.19647216796875,-53.44148254394531,48.71194839477539
0,462395,-100.14179229736328,-28.421409606933594,-55.57065200805664,9.67342472076416
0,462398,46.455753326416016,54.6390495300293,45.0691032409668,-35.21216583251953
0,462399,25.11735725402832,7.325199604034424,-0.7039860486984253,-6.6310648918151855
0,462402,25.90809440612793,-44.35234451293945,-16.24974250793457,14.613517761230469
0,462403,-19.641746520996094,-10.422056198120117,4.755327224731445,33.60592269897461
0,462406,-21.8648681640625,24.689346313476562,-21.805110931396484,10.27540397644043
0,462407,-53.238861083984375,24.944597244262695,-5.5028886795043945,-32.567813873291016
0,462410,29.141633987426758,2.0459630489349365,60.28548812866211,25.787052154541016
0,462411,158.35647583007812,-37.87666320800781,29.445384979248047,13.25170612335205
0,462414,-101.66651916503906,-5.6973114013671875,-67.86974334716797,-51.139137268066406
0,462415,-129.52984619140625,36.89916229248047,-28.636737823486328,0.5996279120445251
0,462418,97.28594970703125,-19.845441818237305,32.324859619140625,16.969432830810547
0,462419,53.101585388183594,-31.18947410583496,9.901046752929688,-11.778846740722656
0,462422,-1.1363836526870728,21.311267852783203,-12.771238327026367,-10.632583618164062
0,462423,-9.927066802978516,17.627878189086914,19.35521697998047,14.9487886428833
0,462426,-40.31366729736328,-14.838044166564941,12.4879732131958,8.453333854675293
0,462427,-83.53284454345703,-17.792530059814453,-61.4973030090332,-27.059173583984375
0,462430,67.8895034790039,27.427751541137695,25.895519256591797,12.19583511352539
0,462431,141.5832977294922,24.648040771484375,73.47024536132812,37.57061004638672
0,462434,-123.4532241821289,-3.905395269393921,-67.08627319335938,-15.737048149108887
0,462435,-108.86095428466797,7.396531581878662,-62.21361541748047,-17.84294319152832
0,462438,101.30375671386719,-20.43109703063965,61.27933883666992,14.837756156921387
0,462439,66.04976654052734,-10.00637435913086,37.74214553833008,-5.873040199279785
0,462442,-19.866863250732422,45.80084991455078,-9.389297485351562,9.837895393371582
0,462443,-5.6099748611450195,-25.224872589111328,14.515257835388184,-25.693429946899414
0,462446,-13.781339645385742,-46.85554885864258,-16.007898330688477,-41.795738220214844
0,462447,-60.38401794433594,56.48163986206055,-46.5299072265625,73.03385925292969
0,462450,75.57923126220703,15.779866218566895,22.30326271057129,16.346113204956055
0,462451,99.75271606445312,-48.61503601074219,56.32968521118164,-33.77928924560547
0,462454,-167.99510192871094,-27.480926513671875,-78.50662231445312,3.443423271179199
0,462455,-109.06551361083984,8.4860200881958,-44.17707824707031,-5.556994915008545
0,462458,91.478271484375,18.4105167388916,78.53240966796875,0.9019164443016052
0,462459,75.20073699951172,13.802067756652832,18.582778930664062,2.1302449703216553
0,462462,35.867881774902344,23.0524959564209,0.8650649785995483,19.62971305847168
0,462463,-4.406363487243652,-38.080780029296875,2.2162837982177734,6.718179225921631
0,462466,-62.98339080810547,-22.91860008239746,-40.098899841308594,-15.958226203918457
0,462468,-102.81574249267578,21.369098663330078,-24.91504669189453,-22.071212768554688
0,462469,72.61457061767578,-5.876023769378662,33.35102462768555,0.06413576006889343
0,462472,150.58761596679688,20.05588722229004,24.55329132080078,17.053611755371094
0,462473,-65.85588836669922,-1.5414127111434937,-38.108585357666016,-19.53622817993164
0,462476,-108.30667877197266,-3.1809608936309814,-19.747087478637695,-13.096385955810547
0,462477,44.801673889160156,34.299171447753906,32.60906982421875,36.80371856689453
0,462480,55.62175369262695,-13.943181991577148,21.222034454345703,14.823269844055176
0,462481,-17.65424919128418,-25.107053756713867,-6.155360221862793,-27.801973342895508
0,462484,44.366268157958984,14.944650650024414,-4.5222601890563965,-22.566097259521484
0,462485,-17.833589553833008,8.610913276672363,-2.5821003913879395,-10.597259521484375
0,462488,-116.90769958496094,-27.23126983642578,-24.49468231201172,19.486013412475586
0,462489,49.18031692504883,1.0704329013824463,-0.6705547571182251,27.56276512145996
0,462492,121.06683349609375,22.516199111938477,40.805843353271484,-10.162786483764648
0,462493,-37.11015701293945,-44.14162063598633,1.092178463935852,-4.522134780883789
0,462496,-123.35028839111328,3.3837382793426514,-30.520437240600586,6.336775779724121
0,462497,8.682551383972168,59.8618278503418,-4.294032573699951,13.016634941101074
0,462500,82.17680358886719,-21.3935604095459,-6.990967750549316,12.648655891418457
0,462501,-24.902976989746094,-48.889366149902344,8.107512474060059,-39.56945037841797
0,462504,-0.9718661308288574,-1.4337472915649414,27.17254638671875,-14.849957466125488
0,462505,-4.218713283538818,26.194448471069336,-0.1371169537305832,31.825101852416992
0,462508,-94.15692901611328,15.64284896850586,-37.695648193359375,6.158096790313721
0,462509,69.95781707763672,28.51933479309082,20.085983276367188,0.9469456672668457
0,462512,131.20635986328125,8.863822937011719,66.5799560546875,-11.912288665771484
0,462513,-62.73062515258789,-33.72017288208008,-38.27567672729492,-12.103699684143066
0,462516,-100.56825256347656,-12.45748233795166,-45.20985412597656,16.57640266418457
0,462517,18.878101348876953,-4.439144134521484,9.060005187988281,2.483285665512085
0,462520,54.725624084472656,1.1471589803695679,-6.6537184715271,18.23834228515625
0,462521,-26.169530868530273,19.42767333984375,7.148704528808594,-5.462233066558838
0,462524,65.1993179321289,2.460900068283081,45.00057601928711,-52.16653060913086
0,462525,34.18951416015625,-6.848479747772217,-8.979198455810547,21.613540649414062
0,462528,-159.03114318847656,-23.421693801879883,-71.98584747314453,21.87371063232422
0,462529,24.996803283691406,-5.950045108795166,22.325117111206055,-24.470050811767578
0,462532,121.28996276855469,23.179229736328125,61.7105712890625,26.144954681396484
0,462533,-53.05146408081055,-0.9923623204231262,-14.683114051818848,0.8747751712799072
0,462536,-82.4944076538086,17.19879913330078,-15.714693069458008,-62.427024841308594
0,462537,14.337944030761719,-10.945892333984375,11.426226615905762,-22.2979736328125
0,462540,73.1138916015625,-18.591489791870117,-11.94127082824707,66.27688598632812
0,462541,16.077571868896484,26.58165740966797,-7.428127765655518,74.42961883544922
0,462544,28.212875366210938,-11.918047904968262,23.73485565185547,-18.35559844970703
0,462545,-38.325069427490234,-42.78741455078125,-40.83354949951172,-27.196542739868164
0,462548,-141.34494018554688,35.25459289550781,-47.455509185791016,15.154156684875488
0,462549,68.83384704589844,72.78456115722656,72.80711364746094,-29.453960418701172
0,462552,122.73455047607422,-63.73810577392578,40.65025329589844,-53.17683792114258
0,462553,-69.22817993164062,-44.73502731323242,-64.47019958496094,16.2691707611084
0,462556,-87.16825866699219,47.32304382324219,-12.900634765625,15.195775985717773
0,462557,42.038673400878906,-4.831090927124023,48.24664306640625,-37.90842819213867
0,462560,76.79674530029297,4.96435546875,-1.0272902250289917,-6.7592058181762695
0,462561,-25.351221084594727,-12.028221130371094,-17.48227882385254,22.96861457824707
0,462564,-3.532193422317505,-26.449634552001953,9.562138557434082,89.65591430664062
0,462565,-35.11531066894531,43.64188003540039,-28.25030517578125,6.046976089477539
0,462568,-77.58882141113281,-3.3839988708496094,-32.560298919677734,-38.69907760620117
0,462569,106.15337371826172,-19.126920700073242,46.1592903137207,114.44682312011719
0,462572,103.03489685058594,27.18751335144043,38.28327178955078,-148.8750457763672
0,462573,-66.68712615966797,-26.42494773864746,-40.02782440185547,-191.75485229492188
0,462576,-80.54121398925781,6.181108474731445,-20.65904998779297,189.95240783691406
0,462577,10.132111549377441,45.334102630615234,44.81635284423828,150.8067626953125
0,462580,49.63070297241211,-20.336652755737305,10.599801063537598,-23.3541259765625
0,462581,-19.66429328918457,-32.66817092895508,-36.89674377441406,-126.22103881835938
0,462584,21.534229278564453,14.973899841308594,51.387447357177734,-177.62664794921875
0,462585,1.0861796140670776,23.82980728149414,5.118856906890869,17.924360275268555
0,462588,-114.44155883789062,-11.50228500366211,-101.61157989501953,130.94448852539062
0,462589,44.22880554199219,-40.2359504699707,35.02960205078125,-1.0133501291275024
0,462592,125.81359100341797,-6.589409351348877,40.51268005371094,221.17628479003906
0,462593,-42.07431411743164,21.610937118530273,-51.661109924316406,180.70803833007812
0,462596,-113.74210357666016,-31.510528564453125,18.70282554626465,-433.22039794921875
0,462597,42.86026382446289,46.10505676269531,58.693302154541016,-276.2595520019531
0,462600,93.77506256103516,56.34609603881836,-28.234376907348633,366.1842346191406
0,462601,-57.28914260864258,-103.13460540771484,-70.30375671386719,405.0557861328125
0,462604,-3.4463510513305664,-25.166139602661133,13.199156761169434,-255.1747589111328
0,462605,-7.852210521697998,58.74188995361328,-7.807508945465088,-423.89178466796875
0,462608,-100.95211029052734,-6.223902225494385,-11.484477996826172,-3.2636923789978027
0,462609,106.4696273803711,49.57379913330078,119.24332427978516,12.917116165161133
0,462612,125.22846984863281,41.052642822265625,38.25062942504883,201.80654907226562
0,462613,-121.2625961303711,-87.26271057128906,-127.9586410522461,203.45932006835938
0,462616,-72.25250244140625,-21.4932861328125,-5.581290245056152,-42.467647552490234
0,462617,58.38872528076172,75.67009735107422,101.28047180175781,35.12082290649414
0,462620,-29.152408599853516,-38.35877990722656,-71.76507568359375,-66.25052642822266
0,462621,-0.7050474882125854,-58.11764907836914,-73.24752044677734,-261.44708251953125
0,462624,148.46173095703125,85.01809692382812,113.44153594970703,-50.79301071166992
0,462625,-54.965457916259766,54.351470947265625,40.99757766723633,204.51373291015625
0,462628,-165.5016326904297,-52.49201965332031,-44.81813049316406,-72.03179168701172
0,462629,126.9832763671875,-10.1719970703125,10.255024909973145,-40.79722213745117
0,462632,79.8333511352539,-18.04277801513672,-48.04703140258789,395.4719543457031
0,462633,-111.69796752929688,-63.48472213745117,-72.51016998291016,122.08390045166016
0,462636,-30.803491592407227,7.866000175476074,37.88937759399414,-323.461669921875
0,462637,5.517430782318115,17.474510192871094,-16.54323959350586,17.2297420501709
0,462640,20.24614715576172,5.802651405334473,-38.84170150756836,-30.02618980407715
0,462641,32.03828048706055,-21.036846160888672,89.8846435546875,-318.08984375
0,462644,44.591121673583984,10.885278701782227,57.535457611083984,232.02125549316406
0,462645,-30.48758316040039,92.45704650878906,-26.38164520263672,204.3009796142578
0,462648,-88.1984634399414,-19.19745445251465,-12.998233795166016,-375.1173095703125
0,462649,83.0053939819336,-30.936418533325195,47.89859390258789,32.471580505371094
0,462652,53.779205322265625,26.673778533935547,-9.04744815826416,506.19580078125
0,462653,-81.9725570678711,-18.420015335083008,-85.31071472167969,-474.9591369628906
0,462656,-51.098533630371094,-12.08405876159668,5.030932426452637,-684.302978515625
0,462657,-19.484132766723633,-5.616157531738281,37.596092224121094,526.6344604492188
0,462660,92.76298522949219,34.618492126464844,22.246509552001953,1024.1480712890625
0,462661,74.33454132080078,6.399479389190674,-12.13234806060791,224.0014190673828
0,462664,-60.7869873046875,-122.7876205444336,-93.58660125732422,-1119.802001953125
0,462666,-68.61959838867188,-40.24330139160156,9.442926406860352,-109.30392456054688
0,462668,-31.563278198242188,117.74769592285156,69.74791717529297,746.6582641601562
0,462670,102.06172943115234,70.85447692871094,7.669079303741455,-450.9373474121094
0,462672,63.83052444458008,-63.988258361816406,-9.982991218566895,-397.9048156738281
0,462674,-119.03907012939453,-38.92151641845703,-24.090503692626953,-104.22967529296875
0,462676,-10.412774085998535,81.85436248779297,45.43687057495117,292.52105712890625
0,462678,102.20230865478516,48.25946044921875,78.34051513671875,415.0983581542969
0,462679,-14.645140647888184,-29.388029098510742,22.61896324157715,-227.58543395996094
0,462682,-18.54669761657715,-15.514337539672852,-46.81180191040039,126.70487976074219
0,462683,-34.61928176879883,-5.6099653244018555,-140.72268676757812,312.713623046875
0,462687,-73.782470703125,-37.65203857421875,-31.462749481201172,-295.18975830078125
0,462688,-5.0560150146484375,-31.218381881713867,126.53031921386719,-384.0522766113281
0,462689,43.25041198730469,18.256458282470703,-1.862045168876648,100.83248138427734
0,462692,119.833251953125,8.019532203674316,-75.00150299072266,156.39877319335938
0,462693,-8.773405075073242,-47.93083190917969,-23.567840576171875,-53.2210578918457
0,462696,-165.99513244628906,-26.939355850219727,-13.902205467224121,459.504638671875
0,462697,15.93134593963623,50.602230072021484,43.39741134643555,270.382568359375
0,462700,98.98899841308594,57.86601638793945,17.54264259338379,-993.28173828125
0,462701,-8.95472240447998,-4.815690040588379,25.529748916625977,-350.9604797363281
0,462704,23.356393814086914,-35.02429962158203,107.15174102783203,578.4851684570312
0,462705,-35.60714340209961,5.304012775421143,3.1873934268951416,-269.4122314453125
0,462708,-83.94538879394531,25.12803840637207,-131.4864044189453,46.3382568359375
0,462709,101.24365234375,18.120136260986328,-47.90681838989258,959.9417724609375
0,462712,86.19153594970703,-35.36617660522461,75.37031555175781,12.333816528320312
0,462713,-99.33745574951172,-59.30205535888672,-18.19902229309082,-349.76995849609375
0,462716,-63.97615051269531,22.989479064941406,-40.73345947265625,-666.7430419921875
0,462717,46.341819763183594,46.01969909667969,113.92671203613281,-912.7501220703125
0,462720,4.797547340393066,27.071491241455078,-1.1928021907806396,1261.0924072265625
0,462721,-22.911067962646484,-13.974496841430664,-147.8467559814453,840.8294677734375
0,462724,66.8446273803711,-68.20547485351562,29.59039306640625,-745.3665161132812
0,462725,9.789717674255371,-1.7275362014770508,17.055274963378906,176.03883361816406
0,462728,-125.9691162109375,18.20341682434082,-64.1141586303711,-288.4890441894531
0,462729,1.1338295936584473,-9.807488441467285,159.19708251953125,-576.7532958984375
0,462732,167.4949951171875,87.66569519042969,141.89280700683594,465.0341491699219
0,462733,13.769643783569336,27.034025192260742,-50.445167541503906,223.44540405273438
0,462736,-155.4639129638672,-73.53683471679688,-153.97967529296875,-163.55490112304688
0,462737,43.050235748291016,9.647234916687012,-106.08950805664062,-10.933740615844727
0,462740,119.3189468383789,41.90177536010742,112.78549194335938,359.75128173828125
0,462741,-77.72430419921875,-50.24331283569336,42.10429000854492,146.11216735839844
0,462744,-57.907405853271484,-65.34390258789062,-87.28411865234375,-807.5496215820312
0,462745,-27.685672760009766,26.042299270629883,-34.41703796386719,-293.3807678222656
0,462748,-23.8978328704834,28.068552017211914,-4.1974663734436035,740.4417724609375
0,462749,98.7125473022461,-8.567634582519531,52.77101135253906,240.96615600585938
0,462752,86.13777923583984,28.121522903442383,81.7983627319336,-192.4420166015625
0,462753,-84.79733276367188,12.468414306640625,-33.7230110168457,-113.48697662353516
0,462756,-130.1098175048828,-40.98492431640625,-46.752174377441406,81.268310546875
0,462757,54.9369010925293,26.63069725036621,46.4311408996582,289.9740295410156
0,462760,109.34851837158203,27.307331085205078,31.371492385864258,36.37418746948242
0,462761,-39.171363830566406,-37.06613540649414,-34.5372200012207,-582.0411376953125
0,462764,-39.1295280456543,-29.26611328125,-70.50434112548828,-438.1808166503906
0,462765,19.61756706237793,-31.44799041748047,26.951528549194336,434.595947265625
0,462768,-17.260292053222656,30.911291122436523,58.91253662109375,557.8892822265625
0,462769,53.69786071777344,71.48030090332031,13.162753105163574,13.408548355102539
0,462772,46.82657241821289,-11.420658111572266,3.042269706726074,-883.4966430664062
0,462773,-66.30438232421875,-25.972801208496094,-29.964014053344727,-195.43243408203125
0,462776,-90.06283569335938,-1.6604870557785034,-83.54112243652344,775.9915161132812
0,462777,-20.442546844482422,-46.52397155761719,-59.157718658447266,886.3074340820312
0,462780,103.64864349365234,-2.257401704788208,108.76396179199219,-352.51611328125
0,462781,23.1149845123291,52.2934684753418,69.22100830078125,-1473.4361572265625
0,462784,15.1947021484375,-5.9758782386779785,10.058354377746582,702.3165893554688
0,462785,29.861835479736328,20.831703186035156,57.7481575012207,703.4824829101562
0,462788,-151.33299255371094,17.330812454223633,-100.57817840576172,-1092.8572998046875
0,462789,-5.58742618560791,-61.0576286315918,-73.06543731689453,-111.5468521118164
0,462792,130.69381713867188,-24.280048370361328,16.271543502807617,914.400390625
0,462793,-58.781166076660156,36.7252311706543,-63.21800994873047,451.9468994140625
0,462796,-61.57545471191406,32.51431655883789,38.71164321899414,-294.49755859375
0,462797,81.09575653076172,0.5905536413192749,106.05162811279297,-863.8308715820312
0,462800,63.6923828125,-12.30572509765625,50.12841796875,-413.4737854003906
0,462801,-40.541709899902344,-25.246232986450195,-7.162027835845947,508.51409912109375
0,462804,-0.6620453000068665,44.84218978881836,-39.62571716308594,864.4547729492188
0,462805,-58.00287628173828,22.51182746887207,-75.02498626708984,660.08154296875
0,462808,-114.94010162353516,-159.40013122558594,-92.8431625366211,-315.2263488769531
0,462809,154.47024536132812,-1.054051160812378,49.85258102416992,-629.0650024414062
0,462812,139.38587951660156,174.71896362304688,72.80191040039062,-1076.8814697265625
0,462813,-107.8819808959961,3.0665037631988525,43.350521087646484,-425.2887268066406
0,462816,-118.53386688232422,-66.81084442138672,84.6544189453125,1263.43896484375
0,462817,-11.535112380981445,-22.19378089904785,-29.146957397460938,274.2596435546875
0,462820,88.65099334716797,-7.67650032043457,-132.17617797851562,-933.3521728515625
0,462821,67.03520965576172,25.137393951416016,-69.18180847167969,-320.0103759765625
0,462824,-49.947933197021484,1.6896865367889404,-39.30127716064453,1196.49267578125
0,462825,-96.65628814697266,-21.672096252441406,18.375993728637695,673.5128173828125
0,462828,37.943504333496094,63.135826110839844,295.7030334472656,-976.1182250976562
0,462829,137.81605529785156,86.10273742675781,176.29469299316406,254.14926147460938
0,462832,-26.665531158447266,-111.42637634277344,-357.898193359375,1480.650634765625
0,462833,-161.9405517578125,-199.38479614257812,-285.79180908203125,-123.32366180419922
0,462836,-46.3571891784668,3.3476200103759766,84.18603515625,-2232.708251953125
0,462837,102.2198257446289,115.42960357666016,158.69003295898438,-570.0618896484375
0,462840,73.67876434326172,129.16920471191406,119.50084686279297,1527.5911865234375
0,462841,-51.40526580810547,65.38280487060547,-7.318877696990967,-90.96546936035156
0,462844,51.300262451171875,-72.89205169677734,14.650375366210938,-794.8696899414062
0,462845,15.74682331085205,-52.666500091552734,27.05735969543457,-93.31180572509766
0,462848,-89.90941619873047,-0.8525975942611694,-121.0296630859375,612.0623168945312
0,462849,100.37906646728516,-31.19463539123535,-50.63593673706055,690.927490234375
0,462852,-0.34344249963760376,-10.811836242675781,51.384056091308594,-474.6210632324219
0,462853,-138.26612854003906,16.811769485473633,-6.904405117034912,-286.1549072265625
0,462856,15.594986915588379,13.290531158447266,32.57411193847656,163.3391876220703
0,462857,85.34860229492188,49.12406539916992,77.89099884033203,-41.920989990234375
0,462860,-2.8668203353881836,0.37140437960624695,-25.297283172607422,145.3314666748047
0,462861,-53.3741340637207,-54.82835006713867,-73.64618682861328,124.52354431152344
0,462864,47.74515151977539,-11.808992385864258,-7.327225208282471,-9.626213073730469
0,462865,-5.323636054992676,9.2094144821167,-39.14567947387695,16.52261734008789
0,462868,-122.59065246582031,3.576859951019287,-27.53180503845215,-416.22833251953125
0,462869,74.49224853515625,24.314674377441406,120.75630950927734,-596.7578125
0,462872,134.18563842773438,54.79318618774414,82.24275970458984,435.4264221191406
0,462873,-74.53671264648438,3.141846179962158,-51.868743896484375,300.7639465332031
0,462876,-67.49903106689453,-88.802978515625,-73.78372192382812,-54.827632904052734
0,462877,24.712879180908203,-55.237754821777344,-46.27702713012695,815.211669921875
0,462880,-42.01954650878906,2.9194159507751465,-48.4306640625,248.18064880371094
0,462881,-9.00501823425293,18.087953567504883,10.12800121307373,-710.5674438476562
0,462884,153.0842742919922,69.51165771484375,161.4146728515625,-582.14697265625
0,462885,-3.384986400604248,11.720510482788086,18.540971755981445,143.90206909179688
0,462888,-149.08956909179688,-83.52201843261719,-173.7609100341797,108.37152862548828
0,462890,34.55554962158203,-31.100818634033203,11.566990852355957,-752.0759887695312
0,462892,65.29006958007812,82.0350570678711,93.74677276611328,684.8966064453125
0,462894,-36.908451080322266,100.07801055908203,-4.628063678741455,1582.2227783203125
0,462896,-43.824886322021484,-42.91389465332031,26.007444381713867,-1140.345947265625
0,462898,102.90641784667969,-57.699127197265625,69.10304260253906,-1353.3154296875
0,462900,55.49277114868164,27.89122200012207,-27.79701042175293,1019.3218383789062
0,462902,-93.93453216552734,-7.311267375946045,-83.50708770751953,534.034912109375
0,462903,6.864114284515381,-0.6315891742706299,-11.562174797058105,-205.61961364746094
0,462906,-91.18323516845703,-30.49083709716797,-29.787813186645508,-168.053466796875
0,462907,-152.4182891845703,-52.86074447631836,-55.60344696044922,-531.6549072265625
0,462910,195.60401916503906,60.32240676879883,51.880279541015625,101.11051177978516
0,462911,227.87509155273438,51.90571975708008,119.25455474853516,381.48004150390625
0,462914,-184.9824676513672,-34.36763381958008,40.239017486572266,-21.493974685668945
0,462915,-114.10401916503906,19.5816593170166,-21.843297958374023,26.236663818359375
0,462919,78.9021987915039,-43.03564453125,-158.5785675048828,38.76950454711914
0,462920,-54.44712448120117,-103.4085922241211,-117.88646697998047,204.96775817871094
0,462921,49.803714752197266,82.53880310058594,170.6200408935547,-286.4940490722656
0,462924,132.7431640625,105.41948699951172,120.2231674194336,-558.72509765625
0,462925,-73.62793731689453,-44.01545715332031,-57.965415954589844,852.295166015625
0,462928,-121.77281188964844,-34.8048210144043,-63.06326675415039,473.3594970703125
0,462929,77.11869049072266,-0.3008752763271332,-24.70258140563965,-817.485595703125
0,462932,49.2122802734375,-49.50189208984375,-5.825738430023193,-678.0094604492188
0,462933,-80.01248168945312,11.125323295593262,20.45683479309082,163.150634765625
0,462936,-3.2314445972442627,96.32829284667969,18.443134307861328,1063.4002685546875
0,462937,54.18876266479492,28.723892211914062,4.9433207511901855,-282.6950378417969
0,462940,55.409217834472656,-86.57108306884766,56.327728271484375,-917.2837524414062
0,462941,19.85154151916504,-19.254398345947266,39.3936767578125,386.7839660644531
0,462944,-55.42782211303711,51.52560043334961,-63.73633575439453,721.6431274414062
0,462945,-92.67546081542969,-21.065385818481445,-74.27001953125,511.87030029296875
0,462948,-58.72116470336914,-22.165573120117188,25.685176849365234,-644.134033203125
0,462949,89.99468231201172,1.9099541902542114,45.23484802246094,-839.6492309570312
0,462952,123.21210479736328,-4.306160926818848,-33.67970275878906,353.0245361328125
0,462953,-20.464828491210938,17.377750396728516,-6.610145568847656,315.3631591796875
0,462956,-118.17310333251953,26.398073196411133,58.05033493041992,-123.51099395751953
0,462957,-14.928855895996094,-1.8390284776687622,11.58792781829834,-193.90963745117188
0,462960,56.170711517333984,-5.745932102203369,-47.73391342163086,86.85826873779297
0,462961,-15.670912742614746,-24.023258209228516,-36.488521575927734,167.98768615722656
0,462964,44.62532424926758,-31.47911262512207,11.2310152053833,-97.98817443847656
0,462965,-42.48243713378906,9.957091331481934,1.5892174243927002,-68.58673095703125
0,462968,-55.48281478881836,59.024105072021484,-28.482391357421875,59.9489860534668
0,462969,146.05174255371094,25.49757194519043,43.52505111694336,67.35478210449219
0,462972,31.16494369506836,-66.92597198486328,37.4433479309082,23.93478012084961
0,462973,-117.51810455322266,-50.106868743896484,-74.64582061767578,38.0074577331543
0,462976,-74.73928833007812,25.78428840637207,-36.933589935302734,-50.313472747802734
0,462977,26.784996032714844,48.6265754699707,65.5662612915039,-44.49774169921875
0,462980,78.41928100585938,-28.43514633178711,28.57631492614746,28.550735473632812
0,462981,-4.443411827087402,-31.575592041015625,-42.96500015258789,-55.227169036865234
0,462984,44.48069381713867,60.246498107910156,92.74772644042969,54.59555435180664
0,462985,-27.91759490966797,30.342355728149414,85.35073852539062,49.7109375
0,462988,-149.81103515625,-23.735689163208008,-109.58940887451172,-143.73190307617188
0,462989,88.4794921875,1.9557658433914185,-64.01972961425781,34.71738815307617
0,462992,127.1288070678711,-2.505976676940918,-11.920098304748535,146.44798278808594
0,462993,-82.53142547607422,-21.674097061157227,-7.397635459899902,10.183891296386719
0,462996,-89.33296966552734,-0.43032532930374146,22.38463020324707,-50.4731559753418
0,462997,30.106264114379883,-30.297595977783203,14.488058090209961,-79.74437713623047
0,463000,79.67903137207031,-4.80059814453125,8.50076675415039,-57.16069793701172
0,463001,-9.877861976623535,44.25358963012695,-30.01235008239746,18.86850929260254
0,463004,-21.708372116088867,12.809765815734863,-7.509068489074707,38.371131896972656
0,463005,-1.0597147941589355,6.808067321777344,32.54939270019531,44.64891052246094
0,463008,-24.954849243164062,-1.6499954462051392,8.609992027282715,6.640839576721191
0,463009,59.708251953125,-13.700152397155762,6.243606090545654,-39.92951965332031
0,463012,9.592400550842285,-24.36955451965332,8.141995429992676,19.43673324584961
0,463013,-116.1834716796875,-45.535667419433594,-55.18937683105469,18.49163246154785
0,463016,-6.708327770233154,19.933351516723633,-9.094666481018066,-28.547985076904297
0,463017,96.88711547851562,70.9554443359375,77.81970977783203,34.053855895996094
0,463020,18.15093994140625,-13.224613189697266,-20.15829086303711,-10.057074546813965
0,463021,-29.616046905517578,-40.403594970703125,-41.339874267578125,-61.719215393066406
0,463024,9.61352825164795,23.824220657348633,39.420677185058594,40.44837951660156
0,463025,-36.55723571777344,19.948345184326172,-0.5058022737503052,11.766475677490234
0,463028,-65.83837890625,-9.920103073120117,-18.987686157226562,-33.887577056884766
0,463029,96.43132781982422,12.30445671081543,33.74506759643555,-1.0342583656311035
0,463032,86.45199584960938,-23.867355346679688,-9.763089179992676,37.094940185546875
0,463033,-100.6012191772461,-36.822837829589844,-43.872215270996094,24.652423858642578
0,463036,-69.88764953613281,53.416358947753906,26.896728515625,-3.3853952884674072
0,463037,63.02251052856445,24.598907470703125,19.175737380981445,17.186077117919922
0,463040,15.067424774169922,-76.06932830810547,-37.98188400268555,-94.04317474365234
0,463041,-69.08502197265625,-17.12364387512207,-6.362341403961182,-108.4639892578125
0,463044,75.3747787475586,52.60295867919922,18.233226776123047,117.39710235595703
0,463045,23.975229263305664,-7.022396564483643,-12.579919815063477,126.0015640258789
0,463048,-78.13689422607422,-0.7777583599090576,19.90622329711914,-32.43035125732422
0,463049,86.48028564453125,3.777071952819824,19.611600875854492,-72.16786193847656
0,463052,21.436161041259766,8.09987735748291,-39.58828353881836,-60.9193115234375
0,463053,-86.73851013183594,47.69178771972656,9.862213134765625,56.842384338378906
0,463056,-20.203428268432617,-14.16146469116211,23.860937118530273,106.97220611572266
0,463057,51.72603988647461,-19.495441436767578,8.385761260986328,4.6922607421875
0,463060,11.392900466918945,-7.521402359008789,4.148775100708008,-83.99274444580078
0,463061,-52.02420425415039,-28.573732376098633,-36.201725006103516,-81.05329895019531
0,463064,44.794212341308594,21.442304611206055,20.613052368164062,65.93560791015625
0,463065,-11.820511817932129,-3.605787754058838,-8.683842658996582,40.265506744384766
0,463068,-92.23088836669922,-39.42475891113281,-54.41145706176758,-108.36002349853516
0,463069,95.76274871826172,12.22556209564209,61.74710464477539,20.75729751586914
0,463072,87.17276763916016,26.138248443603516,40.71548080444336,90.5948715209961
0,463073,-73.69771575927734,22.272769927978516,-28.602632522583008,16.86893081665039
0,463076,-73.66943359375,-6.256186008453369,-49.04259490966797,6.478528022766113
0,463077,-2.8021748065948486,-49.526241302490234,-54.7515983581543,-40.19682693481445
0,463080,81.37212371826172,-29.97126007080078,64.0859375,-27.444923400878906
0,463081,24.091270446777344,10.305849075317383,57.47344207763672,-100.79610443115234
0,463084,-28.9531307220459,70.02687072753906,-40.42607116699219,-77.29227447509766
0,463085,-34.23123550415039,57.13425827026367,-21.578248977661133,190.46078491210938
0,463088,-41.80221176147461,-24.27593994140625,9.873437881469727,151.72232055664062
0,463089,75.78156280517578,-23.98879051208496,53.740028381347656,-69.51394653320312
0,463092,44.22525405883789,-59.97917556762695,-7.790719509124756,-127.13426208496094
0,463093,-108.25859069824219,-25.7650089263916,-66.60459899902344,-67.20816040039062
0,463096,-37.9537467956543,73.2396469116211,17.988811492919922,77.93345642089844
0,463097,65.97351837158203,35.04942321777344,44.34220886230469,68.8027572631836
0,463100,24.475454330444336,-7.229870796203613,-0.7309719324111938,-28.691316604614258
0,463101,15.746760368347168,-39.147850036621094,-60.504573822021484,36.0791130065918
0,463104,43.7613525390625,3.8609466552734375,4.504465579986572,36.33972930908203
0,463105,-80.79104614257812,27.267475128173828,33.42333984375,-46.72380828857422
0,463108,-112.15888214111328,-46.297569274902344,-38.3626594543457,-94.5655746459961
0,463109,110.58924865722656,-32.08367156982422,22.485748291015625,-47.90503692626953
0,463112,82.11819458007812,-20.541645050048828,-0.015103079378604889,96.22581481933594
0,463113,-91.92098999023438,25.720752716064453,-11.156356811523438,30.058250427246094
0,463116,-59.062007904052734,71.58229064941406,64.1532974243164,-34.895904541015625
0,463117,70.27091217041016,-21.605167388916016,1.9520894289016724,30.108753204345703
0,463120,85.91718292236328,-24.429346084594727,-30.286487579345703,-15.897138595581055
0,463121,-41.862693786621094,40.507652282714844,-7.042693614959717,1.0232963562011719
0,463124,-6.682220458984375,8.663817405700684,7.628906726837158,7.640414237976074
0,463125,-36.12418746948242,-33.972686767578125,-19.589946746826172,3.4017715454101562
0,463128,-37.21176528930664,-25.72728157043457,-22.56031608581543,20.18268585205078
0,463129,129.62925720214844,47.77882766723633,50.308692932128906,-31.685327529907227
0,463132,3.453420877456665,16.320045471191406,-12.538758277893066,6.828970909118652
0,463133,-101.29927825927734,-58.788665771484375,-63.48897933959961,-15.01741886138916
0,463136,-38.639774322509766,-7.565157890319824,15.255640029907227,5.249921798706055
0,463137,9.892210960388184,23.127208709716797,15.859723091125488,4.939258575439453
0,463140,44.69761657714844,2.451221227645874,14.4840726852417,-56.82208251953125
0,463141,-3.036608934402466,-10.498634338378906,46.82378387451172,53.06412124633789
0,463144,45.66208267211914,17.682161331176758,-6.4207844734191895,39.8521842956543
0,463145,-33.25883483886719,-11.327190399169922,-53.21495819091797,-78.92876434326172
0,463148,-68.57306671142578,-23.081697463989258,15.883651733398438,8.895037651062012
0,463149,117.84993743896484,32.889678955078125,45.3386344909668,68.54271697998047
0,463152,-32.312782287597656,-35.504207611083984,-42.056495666503906,-76.57915496826172
0,463154,-149.45953369140625,-25.99636459350586,-59.77272415161133,-69.56613159179688
0,463156,38.163551330566406,88.69042205810547,23.202632904052734,91.99129486083984
0,463158,140.15203857421875,45.2960205078125,73.03627014160156,144.99188232421875
0,463162,65.6291732788086,-49.07039260864258,10.776342391967773,-66.05504608154297
0,463162,-76.80162048339844,-38.04500961303711,-41.56106185913086,-125.8071517944336
0,463163,-63.754310607910156,4.318973541259766,-38.142173767089844,49.08751678466797
0,463166,-36.31282424926758,-9.979616165161133,-25.36606788635254,16.09869956970215
0,463167,-79.79653930664062,11.793790817260742,27.5734920501709,-11.309545516967773
0,463170,111.92842864990234,60.87873077392578,60.291934967041016,77.9527816772461
0,463171,164.71524047851562,-20.103391647338867,27.282855987548828,38.03854751586914
0,463174,-159.87139892578125,-39.769264221191406,-48.46588134765625,-127.63755798339844
0,463175,-85.08160400390625,26.295528411865234,-24.889413833618164,-67.04273986816406
0,463178,134.07525634765625,-35.54373550415039,10.670098304748535,61.28242111206055
0,463179,-48.997703552246094,-30.5555362701416,-11.906514167785645,-8.142337799072266
0,463182,-6.1504693031311035,32.55364990234375,28.04060173034668,40.99103546142578
0,463183,97.88938903808594,-15.480522155761719,2.3408331871032715,62.461456298828125
0,463186,-92.8121109008789,7.574646472930908,-46.25249481201172,-139.33843994140625
0,463187,-113.25184631347656,22.258880615234375,4.743449687957764,-81.53306579589844
0,463190,166.07716369628906,-1.9633969068527222,68.91583251953125,185.9172821044922
0,463191,182.62901306152344,54.39315414428711,33.06019973754883,106.1700210571289
0,463194,-234.07101440429688,-38.84832763671875,-86.50440979003906,-161.8345947265625
0,463195,-134.86184692382812,-69.00846862792969,-53.00754928588867,-124.82566833496094
0,463198,199.54830932617188,54.14142990112305,84.28981018066406,135.2987823486328
0,463199,-13.847887992858887,6.548031330108643,-4.7581562995910645,96.39263153076172
0,463202,-50.424617767333984,-14.409337043762207,-35.820281982421875,-73.3420639038086
0,463203,81.61294555664062,26.349599838256836,51.01297378540039,-20.91045570373535
0,463206,-64.2786865234375,22.802642822265625,4.454378128051758,54.15824890136719
0,463207,-97.09099578857422,-22.89398956298828,-49.8089599609375,7.390501499176025
0,463210,113.10272979736328,-64.8421859741211,-27.356170654296875,-57.447044372558594
0,463211,88.58744812011719,8.041975975036621,36.40842056274414,-26.024127960205078
0,463214,-177.1903839111328,10.052653312683105,-12.506601333618164,8.476868629455566
0,463215,-24.83681869506836,-3.759052276611328,10.902318954467773,29.33357810974121
0,463218,160.82571411132812,54.09344482421875,57.88920211791992,26.035381317138672
0,463219,-23.141206741333008,-3.6941897869110107,-34.95949935913086,-21.030405044555664
0,463222,-10.816431045532227,-38.79441452026367,-2.201409101486206,-31.810596466064453
0,463223,13.267996788024902,10.475937843322754,25.907312393188477,5.182078838348389
0,463226,-95.8736343383789,-8.387590408325195,-100.5586929321289,25.255239486694336
0,463227,-57.24803161621094,-10.334516525268555,-28.79324722290039,39.31052780151367
0,463230,94.55066680908203,12.749493598937988,126.3788833618164,-40.267948150634766
0,463231,111.02050018310547,27.50118637084961,38.64210891723633,-88.36974334716797
0,463234,-97.39427185058594,19.262229919433594,-55.903961181640625,57.923580169677734
0,463235,-66.04791259765625,-9.057735443115234,-47.14192199707031,9.850838661193848
0,463238,77.08677673339844,13.043270111083984,7.918005466461182,-33.24545669555664
0,463239,23.758432388305664,-3.723794937133789,33.22279739379883,107.96640014648438
0,463242,9.097280502319336,-67.70056915283203,-9.939261436462402,-29.25113296508789
0,463243,-18.464275360107422,-54.30397415161133,-4.863492488861084,-115.26151275634766
0,463246,-54.5146598815918,72.21475219726562,22.831581115722656,62.45780563354492
0,463247,-35.68246078491211,92.60027313232422,-18.31021499633789,57.768821716308594
0,463250,80.51952362060547,-54.44773864746094,-0.7965826392173767,0.034211426973342896
0,463251,100.550537109375,-29.036104202270508,22.03793716430664,49.582801818847656
0,463254,-158.7825164794922,14.982245445251465,-64.1261215209961,-65.18812561035156
0,463255,-70.1424331665039,-46.74220657348633,-3.247042417526245,-83.37120819091797
0,463258,146.41680908203125,30.53238296508789,70.95445251464844,70.29412841796875
0,463259,-23.27135467529297,38.05546569824219,-15.366679191589355,30.303062438964844
0,463262,-31.86789321899414,-53.46815490722656,-29.148038864135742,-113.38928985595703
0,463263,94.51094818115234,-4.517157077789307,27.963165283203125,-37.905914306640625
0,463266,-35.299827575683594,56.455284118652344,17.84697914123535,106.78306579589844
0,463267,-98.06161499023438,0.4163483679294586,-31.848663330078125,39.50442123413086
0,463270,109.39488220214844,-33.13304901123047,25.052724838256836,1.573122501373291
0,463271,71.53336334228516,23.91268539428711,18.11349868774414,13.212635040283203
0,463274,-197.04962158203125,1.154535174369812,-70.01756286621094,6.70280122756958
0,463275,-24.76154136657715,-39.93954086303711,1.4219350814819336,-23.32099723815918
0,463278,133.66883850097656,-12.68256664276123,32.452423095703125,-111.82164001464844
0,463279,-24.276161193847656,15.20328140258789,12.065442085266113,-10.007155418395996
0,463282,23.358171463012695,22.42251968383789,8.630597114562988,131.33004760742188
0,463283,15.791163444519043,-26.853639602661133,-26.366525650024414,13.825313568115234
0,463286,-104.68130493164062,2.7894446849823,-30.920076370239258,-95.84140014648438
0,463287,-66.40774536132812,42.013999938964844,-20.59116554260254,-47.02339553833008
0,463290,144.33766174316406,16.006473541259766,77.69036865234375,81.05052185058594
0,463291,140.98886108398438,-26.185543060302734,36.51966857910156,54.907615661621094
0,463294,-200.00340270996094,-50.62569808959961,-89.26209259033203,-63.0336799621582
0,463295,-105.92212677001953,33.388423919677734,6.856102466583252,-14.589244842529297
0,463298,171.75009155273438,47.80835723876953,36.0400505065918,30.15325355529785
0,463299,18.91901969909668,-22.52072525024414,-10.862378120422363,41.16521072387695
0,463302,-24.20725440979004,-14.261322975158691,5.179548740386963,14.859394073486328
0,463303,36.06818771362305,-7.689524173736572,-1.2167620658874512,-18.896949768066406
0,463306,-106.73240661621094,-26.951438903808594,-16.54032325744629,-49.63917922973633
0,463307,-56.944095611572266,11.96899700164795,-10.394636154174805,-49.742652893066406
0,463310,165.17840576171875,29.36483383178711,33.78775405883789,49.16178512573242
0,463311,81.06716918945312,-13.002697944641113,31.63931655883789,38.721290588378906
0,463314,-163.89456176757812,6.0854644775390625,-31.420124053955078,-63.68208312988281
0,463315,-60.907997131347656,4.39082670211792,-17.525707244873047,-29.785255432128906
0,463318,109.43485260009766,-11.668521881103516,20.238021850585938,75.92071533203125
0,463319,22.47271728515625,4.584033489227295,-5.2941060066223145,57.2359619140625
0,463322,-27.089754104614258,-19.601659774780273,6.206690788269043,-55.095455169677734
0,463323,-5.537583351135254,-8.986623764038086,-6.2262091636657715,-83.16233825683594
0,463326,-45.34833526611328,38.289878845214844,-33.141475677490234,70.74778747558594
0,463327,-45.937416076660156,14.051974296569824,2.3470041751861572,72.80876159667969
0,463330,111.88567352294922,-32.29228591918945,13.214312553405762,-85.83976745605469
0,463331,87.3927001953125,-22.920494079589844,19.589696884155273,-23.6165771484375
0,463334,-185.91583251953125,10.730791091918945,-23.6476993560791,21.19821548461914
0,463335,-79.47269439697266,30.827926635742188,-41.682891845703125,-21.611337661743164
0,463338,147.529052734375,4.316764831542969,36.88527297973633,27.017087936401367
0,463339,49.81679153442383,6.769669055938721,28.3392391204834,44.01554489135742
0,463342,0.032684266567230225,19.453908920288086,16.834949493408203,-11.023133277893066
0,463343,-2.7297184467315674,-29.753110885620117,1.5509108304977417,-33.079097747802734
0,463346,-92.1065444946289,-31.062868118286133,-68.04559326171875,26.35536766052246
0,463347,-57.23114776611328,-13.263021469116211,-7.650143146514893,-3.2704861164093018
0,463350,127.84715270996094,-2.628997802734375,64.97115325927734,-63.79501724243164
0,463351,112.09112548828125,31.096214294433594,28.523475646972656,20.60664176940918
0,463354,-171.97618103027344,-14.193988800048828,-51.419490814208984,69.9222412109375
0,463355,-104.3675308227539,-17.620317459106445,-38.703224182128906,37.87759017944336
0,463358,119.1435546875,33.520503997802734,47.03260803222656,-75.2645492553711
0,463359,39.08216094970703,31.579910278320312,12.661303520202637,-67.5245132446289
0,463362,32.77629470825195,7.792420864105225,7.812952518463135,42.8568229675293
0,463363,11.048967361450195,-19.676382064819336,10.96440315246582,-1.6307932138442993
0,463366,-112.8628921508789,-26.814716339111328,-28.9816837310791,24.685428619384766
0,463367,-71.23983764648438,-1.649993658065796,-12.66541862487793,36.45344161987305
0,463370,149.83126831054688,24.27313232421875,4.052298069000244,-21.451162338256836
0,463371,128.2760009765625,-0.2597368061542511,30.293222427368164,4.040340423583984
0,463374,-208.45970153808594,-45.56946563720703,-41.2438850402832,-31.137117385864258
0,463375,-100.09490966796875,-18.853673934936523,-44.675323486328125,-39.13153076171875
0,463378,160.2057342529297,51.83869934082031,56.38795471191406,53.92794418334961
0,463379,40.708839416503906,21.588151931762695,8.098959922790527,29.503231048583984
0,463382,-4.540964603424072,-18.886661529541016,16.535982131958008,-38.529747009277344
0,463384,-16.924148559570312,-5.278331756591797,4.856576919555664,-28.096485137939453
0,463386,-68.20063018798828,-2.4288249015808105,-60.12102127075195,21.089014053344727
0,463388,-22.03209686279297,-1.469775915145874,11.451189994812012,33.79618835449219
0,463390,92.1266098022461,3.7367968559265137,25.84186553955078,-5.909727096557617
0,463392,71.12483215332031,7.343975067138672,-2.475576162338257,-28.421424865722656
0,463394,-170.3474884033203,-8.300265312194824,-21.288917541503906,-20.202564239501953
0,463396,-62.90046310424805,-14.982755661010742,-25.23404312133789,39.821990966796875
0,463397,190.27957153320312,-10.224413871765137,18.977113723754883,42.7150993347168
0,463400,11.557934761047363,8.676304817199707,41.3946647644043,-25.964073181152344
0,463401,-92.50703430175781,30.291587829589844,-2.3184123039245605,-30.99223518371582
0,463404,30.442903518676758,20.27435874938965,-26.785371780395508,0.18128055334091187
0,463405,-48.73790740966797,-15.637175559997559,-10.70485782623291,-8.686851501464844
0,463408,-11.068840980529785,-14.319957733154297,14.479535102844238,3.9179906845092773
0,463409,143.90127563476562,9.579560279846191,64.68815612792969,22.933759689331055
1,463413,-90.87451171875,-13.982009887695312,-18.291053771972656,-4.436656475067139
1,463414,-150.32618713378906,-42.76984786987305,-63.77495574951172,-15.329052925109863
1,463416,139.79745483398438,28.2329044342041,31.084739685058594,-14.402236938476562
1,463418,45.61335754394531,46.53847885131836,17.095905303955078,15.294953346252441
1,463420,-62.3609619140625,-26.57562255859375,-18.107263565063477,33.77497863769531
1,463422,59.82505416870117,-0.8590674996376038,-0.24005883932113647,-13.652584075927734
1,463424,-0.9430246353149414,6.175886631011963,-6.226342678070068,1.3234440088272095
1,463426,-70.765625,-3.30344557762146,-23.725629806518555,-14.855881690979004
1,463428,-21.650402069091797,-27.331005096435547,-4.385622024536133,-39.61748123168945
1,463430,126.47258758544922,-21.070045471191406,59.73040008544922,58.87860870361328
1,463432,58.52599334716797,46.28618621826172,7.823556423187256,5.087695121765137
1,463434,-214.61402893066406,13.472251892089844,-59.423770904541016,-81.46710205078125
1,463436,-36.8760986328125,0.7801580429077148,-1.048369288444519,43.27766799926758
1,463438,173.58412170410156,7.337804794311523,29.101757049560547,52.51115798950195
1,463440,1.1027292013168335,-23.06556510925293,17.31304359436035,-32.99811935424805
1,463442,-21.62249183654785,9.785103797912598,8.619915962219238,-3.618950605392456
1,463444,6.514199256896973,-12.250250816345215,-33.211326599121094,-7.196865558624268
1,463446,-109.2730484008789,-63.2762565612793,-58.333255767822266,9.722921371459961
1,463448,-15.886929512023926,27.254594802856445,18.838375091552734,80.41175079345703
1,463450,154.13412475585938,62.31028366088867,54.792236328125,-26.803762435913086
1,463452,52.96996307373047,8.995118141174316,8.960870742797852,-105.45482635498047
