Aktueller Finger,timestamp_ms,sensor_0,sensor_1,sensor_2,sensor_3
0,1787762,-5.016151428222656,31.933998107910156,94.0689926147461,-0.33810412883758545
0,1787763,25.05266761779785,-50.52304458618164,-26.752702713012695,-6.465914726257324
0,1787766,0.7026045322418213,7.759954929351807,5.6341657638549805,-27.94617462158203
0,1787767,-38.83012008666992,3.786965847015381,-37.04551315307617,-9.024223327636719
0,1787770,3.515490770339966,-63.65860366821289,-132.01220703125,23.197751998901367
0,1787771,41.46666717529297,21.924745559692383,48.84718322753906,2.1460373401641846
0,1787777,-29.198488235473633,35.159141540527344,3.075741767883301,-3.2417356967926025
0,1787777,-35.336055755615234,-28.4057674407959,-78.63707733154297,8.308846473693848
0,1787777,62.313297271728516,39.31951904296875,195.6902618408203,1.1088309288024902
0,1787780,18.56310272216797,31.4467716217041,75.42170715332031,-16.962499618530273
0,1787781,-39.93988800048828,-16.67793083190918,-97.3553466796875,-20.32735252380371
0,1787784,-2.37040376663208,-6.478362560272217,40.737205505371094,9.944183349609375
0,1787785,-14.08788013458252,14.20523738861084,19.830459594726562,24.464900970458984
0,1787788,-5.927661418914795,-7.204771995544434,-49.087852478027344,-0.4810483157634735
0,1787789,7.034086227416992,-43.448326110839844,-83.59014129638672,-13.750843048095703
0,1787792,20.61467933654785,40.92054748535156,125.47863006591797,18.570451736450195
0,1787793,38.01601028442383,55.466468811035156,181.34115600585938,12.214465141296387
0,1787796,-29.41990852355957,-65.14869689941406,-219.51446533203125,-15.16115951538086
0,1787797,-35.480812072753906,-42.33070373535156,-177.91221618652344,-24.71279525756836
0,1787800,31.571361541748047,32.644004821777344,108.23838806152344,19.361024856567383
0,1787801,-5.010550022125244,5.836930751800537,43.136566162109375,32.061912536621094
0,1787804,-25.98766326904297,-14.910021781921387,-6.660703659057617,-32.717308044433594
0,1787805,39.62190628051758,0.2542138695716858,6.601644992828369,-10.490133285522461
0,1787808,-11.881866455078125,7.69510555267334,-31.035480499267578,10.797499656677246
0,1787809,-36.66209030151367,-17.724523544311523,-76.08712005615234,-20.770349502563477
0,1787812,58.45231246948242,34.5507926940918,117.36820220947266,-14.83259391784668
0,1787813,7.869694232940674,47.35783004760742,205.9619140625,18.955055236816406
0,1787816,-56.158714294433594,-76.85040283203125,-186.91159057617188,19.794761657714844
0,1787817,8.070638656616211,-41.34180450439453,-186.0225830078125,-7.791968822479248
0,1787820,38.47618103027344,69.97007751464844,109.65132141113281,-1.3550753593444824
0,1787821,-17.045005798339844,10.167206764221191,51.6196403503418,6.141474723815918
0,1787824,-30.015117645263672,-31.590517044067383,-2.700576066970825,-9.537193298339844
0,1787825,31.313417434692383,22.837480545043945,32.86263656616211,7.448967933654785
0,1787828,-7.618255615234375,-3.574920892715454,-26.825109481811523,-6.256236553192139
0,1787829,-35.83447265625,-58.043582916259766,-101.06440734863281,-8.435909271240234
0,1787832,40.94467544555664,38.37498474121094,105.90449523925781,55.86113739013672
0,1787833,35.89006042480469,83.2475357055664,165.3098602294922,-1.9603511095046997
0,1787836,-48.65234375,-63.84738540649414,-178.91650390625,-51.66558837890625
0,1787837,-51.99498748779297,-59.1626091003418,-115.16680145263672,3.0589852333068848
0,1787840,32.18824768066406,54.887535095214844,109.56098937988281,4.5705976486206055
0,1787841,52.549644470214844,5.9717488288879395,25.492197036743164,3.82138729095459
0,1787844,-5.813410758972168,-15.6973876953125,0.16603250801563263,2.9350204467773438
0,1787845,-8.686412811279297,19.191425323486328,-6.963920593261719,-23.526607513427734
0,1787848,-29.376901626586914,-35.07943344116211,-56.570865631103516,4.609103679656982
0,1787849,-30.447776794433594,-23.745716094970703,-65.22415924072266,44.859806060791016
0,1787852,58.56256103515625,43.88441467285156,94.19461059570312,-22.307401657104492
0,1787853,26.519071578979492,35.27145767211914,167.6164093017578,-58.97637939453125
0,1787856,-47.39711380004883,-4.59195613861084,-144.16836547851562,29.183298110961914
0,1787857,-14.029086112976074,-34.35493850708008,-125.61042785644531,51.64854431152344
0,1787860,44.987823486328125,-6.2767720222473145,137.03753662109375,-0.22706395387649536
0,1787861,-2.192659854888916,30.203929901123047,45.27666473388672,-14.960615158081055
0,1787864,-36.94087600708008,-4.154982089996338,-53.94786071777344,-20.216028213500977
0,1787865,32.7457160949707,-10.565166473388672,-8.00483226776123,21.5460205078125
0,1787868,0.14468339085578918,8.87736701965332,-10.008203506469727,15.044244766235352
0,1787869,-34.84381866455078,-27.62771224975586,-77.55740356445312,-48.14021301269531
0,1787872,37.75020980834961,-16.847408294677734,74.54884338378906,-1.9911952018737793
0,1787873,4.8557562828063965,50.822086334228516,147.3353729248047,13.79323959350586
0,1787876,-55.86686325073242,3.098705291748047,-163.90501403808594,-3.8704206943511963
0,1787877,3.3020036220550537,-63.0322265625,-114.28195190429688,17.96189308166504
0,1787880,42.877376556396484,9.979360580444336,162.6772918701172,-2.810302495956421
0,1787881,14.072113037109375,38.82970428466797,49.434410095214844,-22.642959594726562
0,1787884,-22.141271591186523,-10.528144836425781,-43.334964752197266,11.276863098144531
0,1787885,-12.877751350402832,5.440738677978516,12.96978759765625,21.49029541015625
0,1787888,1.1266460418701172,-6.767963886260986,-45.439212799072266,0.7067732810974121
0,1787889,4.121777057647705,-27.907268524169922,-105.05404663085938,4.791586399078369
0,1787892,12.295334815979004,56.70941925048828,108.3922348022461,-14.667956352233887
0,1787893,5.003238677978516,31.918302536010742,196.1375732421875,-11.412757873535156
0,1787896,-12.638960838317871,-85.13782501220703,-176.4166717529297,2.930725336074829
0,1787897,-24.6987361907959,3.6674301624298096,-161.56138610839844,-7.19984245300293
0,1787900,14.9570951461792,45.3913459777832,112.57655334472656,-5.112155914306641
0,1787901,16.339691162109375,-45.85880661010742,54.3339729309082,-2.6455769538879395
0,1787904,-13.953559875488281,4.944894313812256,10.632915496826172,18.985322952270508
0,1787905,15.725981712341309,61.888912200927734,-14.192512512207031,21.757625579833984
0,1787908,-15.000677108764648,-9.200483322143555,-56.91267776489258,-11.910049438476562
0,1787909,-21.07908821105957,-66.86833953857422,-60.72946548461914,-18.461763381958008
0,1787912,30.945589065551758,9.460644721984863,97.97692108154297,-4.469910144805908
0,1787913,8.775978088378906,57.21464538574219,155.4210662841797,-14.786237716674805
0,1787916,-15.7180757522583,-29.147323608398438,-164.78623962402344,31.119495391845703
0,1787917,-18.471450805664062,-45.764217376708984,-134.71546936035156,29.53095054626465
0,1787920,25.60485076904297,33.40553665161133,119.27717590332031,-31.109962463378906
0,1787921,24.201072692871094,21.142309188842773,28.7108097076416,1.0486621856689453
0,1787924,-27.433019638061523,11.075939178466797,20.1827449798584,10.335190773010254
0,1787925,2.7734110355377197,-16.251754760742188,55.92477798461914,-21.470735549926758
0,1787928,-22.59427261352539,-37.38800811767578,-73.5275650024414,-0.08515240252017975
0,1787929,-21.870677947998047,22.090909957885742,-106.84955596923828,20.755565643310547
0,1787932,53.793251037597656,27.246973037719727,111.3603515625,-1.5615010261535645
0,1787933,2.8553590774536133,24.413232803344727,162.84642028808594,-12.677764892578125
0,1787936,-39.119598388671875,-58.57411193847656,-194.40505981445312,-19.495405197143555
0,1787937,-8.118643760681152,-58.68419647216797,-128.48728942871094,3.661470890045166
0,1787940,37.340911865234375,68.12313842773438,157.3610076904297,48.62432861328125
0,1787941,25.163028717041016,38.89345932006836,49.13679504394531,-4.156111240386963
0,1787944,-34.55839920043945,-18.03881072998047,0.19501279294490814,-42.58902359008789
0,1787945,18.522207260131836,8.37840461730957,0.9412440061569214,13.24450969696045
0,1787948,-8.311460494995117,-17.720129013061523,-68.08512115478516,4.634767532348633
0,1787949,-52.470787048339844,-51.64799118041992,-93.59378051757812,-3.028188467025757
0,1787952,42.485660552978516,46.90397262573242,83.60076141357422,6.31245231628418
0,1787953,28.052854537963867,67.5470962524414,170.54078674316406,-14.114453315734863
0,1787956,-47.77518844604492,-59.424415588378906,-152.37808227539062,2.453503370285034
0,1787957,-11.83132266998291,-48.2239875793457,-119.95831298828125,11.081963539123535
0,1787960,31.789836883544922,43.57004165649414,103.71097564697266,-5.738023281097412
0,1787961,5.77427864074707,32.76930618286133,20.27079200744629,-21.638036727905273
0,1787964,4.064866542816162,-20.036073684692383,41.24482727050781,1.8770346641540527
0,1787965,3.8417320251464844,-0.011223730631172657,18.420705795288086,41.80628967285156
0,1787968,-39.40443801879883,6.1882758140563965,-79.86174011230469,-3.262040853500366
0,1787969,-8.068696022033691,-62.16534423828125,-68.7582778930664,-39.38624954223633
0,1787972,56.088783264160156,6.593510150909424,101.69866943359375,21.1950740814209
0,1787973,26.299314498901367,79.54886627197266,154.4324493408203,27.000194549560547
0,1787976,-52.81114959716797,-31.642057418823242,-141.75753784179688,9.61763858795166
0,1787977,-42.760623931884766,-51.754337310791016,-124.94066619873047,3.743936061859131
0,1787980,45.534210205078125,55.44851303100586,123.70706176757812,-59.972412109375
0,1787981,26.66529655456543,16.495466232299805,38.079166412353516,-38.45707321166992
0,1787984,-1.236018419265747,-23.945877075195312,-4.7072906494140625,52.05385208129883
0,1788239,-18.508548736572266,-20.76303482055664,112.66893768310547,18.672815322875977
0,1788242,-87.02735137939453,-93.97374725341797,-216.87400817871094,-33.86366271972656
0,1788243,10.250457763671875,-4.197183609008789,-417.0584411621094,28.70878028869629
0,1788246,93.22572326660156,46.167598724365234,-2.843158006668091,10.30721378326416
0,1788247,47.129600524902344,1.2195427417755127,167.04444885253906,-55.2382926940918
0,1788250,3.501485586166382,57.17143630981445,248.3593292236328,32.02656173706055
0,1788252,-20.66698455810547,69.39314270019531,265.7051086425781,39.892784118652344
0,1789189,-12.811384201049805,31.134126663208008,74.06554412841797,-42.611698150634766
0,1789190,-6.344664573669434,5.11265230178833,126.0064468383789,-7.970545291900635
0,1789191,-20.765172958374023,-9.997574806213379,54.078102111816406,20.759132385253906
0,1789194,-62.729183197021484,-67.12288665771484,-283.342041015625,-8.579780578613281
0,1789195,-18.862632751464844,-108.01731872558594,-354.5322265625,-17.142513275146484
0,1789198,52.86555480957031,-24.661865234375,-133.11460876464844,22.893346786499023
0,1789199,-43.53295135498047,40.57342529296875,36.46305465698242,31.980636596679688
0,1789202,9.731559753417969,9.84048080444336,41.35186004638672,-19.7052059173584
0,1789203,143.50022888183594,55.69960021972656,47.193599700927734,-15.472258567810059
0,1789206,-12.460243225097656,45.65084457397461,173.58969116210938,-12.96975040435791
0,1789207,-80.98528289794922,-30.458480834960938,117.53388977050781,-2.1509721279144287
0,1789210,7.668812274932861,38.22842025756836,110.71795654296875,29.548564910888672
0,1789211,12.661148071289062,38.291282653808594,136.94175720214844,-1.875688076019287
0,1789214,-50.992820739746094,-84.64148712158203,-224.08352661132812,-3.926593780517578
0,1789215,-32.31425094604492,-71.27566528320312,-296.8105163574219,-12.196231842041016
0,1789218,56.77240753173828,18.404598236083984,-55.29146194458008,-7.589834213256836
0,1789219,34.85771942138672,15.774721145629883,8.353253364562988,5.508708477020264
0,1789222,-16.351469039916992,13.51085376739502,73.91743469238281,-1.5275003910064697
0,1789223,-2.950993537902832,26.119722366333008,79.40180969238281,25.9049129486084
0,1789226,1.9229555130004883,-7.471684455871582,53.16389083862305,-22.617801666259766
0,1789227,5.599229335784912,-25.558691024780273,28.002304077148438,-27.629432678222656
0,1789230,39.21500015258789,46.81855773925781,117.4039535522461,54.130035400390625
0,1789231,-38.80531692504883,51.21849060058594,149.57803344726562,9.06237506866455
0,1789234,-100.655517578125,-76.91212463378906,-221.81077575683594,-59.88022232055664
0,1789235,5.623233795166016,-37.6177864074707,-233.0784912109375,-2.2656078338623047
0,1789238,61.91001510620117,35.051170349121094,37.348533630371094,55.42036437988281
0,1789239,33.638126373291016,12.064199447631836,26.610858917236328,4.520288467407227
0,1789242,24.78464126586914,6.843502044677734,59.79835891723633,-41.922908782958984
0,1789243,3.3014466762542725,-15.374024391174316,42.850189208984375,-5.096590518951416
0,1789246,-49.14523696899414,-12.719623565673828,-18.868661880493164,37.40093994140625
0,1789247,-20.798412322998047,5.909054279327393,-16.853076934814453,16.847856521606445
0,1789250,58.720027923583984,29.554380416870117,100.71411895751953,-24.262367248535156
0,1789251,5.788285255432129,17.144908905029297,145.7472686767578,-24.411535263061523
0,1789254,-68.14012908935547,-45.71475601196289,-168.42138671875,-12.66891098022461
0,1789255,-7.042323112487793,-29.186079025268555,-187.32765197753906,43.81313705444336
0,1789258,35.10973358154297,37.19499588012695,42.80945587158203,14.020883560180664
0,1789259,-3.8642916679382324,1.463125467300415,54.28313446044922,-46.106624603271484
0,1789262,1.8160991668701172,-18.437482833862305,44.626976013183594,-2.1290595531463623
0,1789263,19.276153564453125,8.540717124938965,-7.256150722503662,1.4230862855911255
0,1789266,-13.735095024108887,-2.3488850593566895,-18.269081115722656,16.42316246032715
0,1789267,-20.405200958251953,-8.50849723815918,-21.785083770751953,6.875268936157227
0,1789270,13.212346076965332,37.094757080078125,81.13766479492188,-37.83897018432617
0,1789271,38.77162551879883,30.258508682250977,152.81993103027344,-0.3115033507347107
0,1789274,-31.75823974609375,-69.30877685546875,-149.11434936523438,35.96186065673828
0,1789275,-62.32699966430664,-24.714204788208008,-169.2282257080078,-2.9496214389801025
0,1789278,50.221439361572266,33.93747329711914,51.29451370239258,12.816000938415527
0,1789279,32.061214447021484,-1.7357704639434814,46.24127960205078,22.807437896728516
0,1789282,-18.225391387939453,2.3668971061706543,45.3709602355957,-46.722900390625
0,1789283,19.535442352294922,23.309724807739258,30.764345169067383,9.172292709350586
0,1789286,-9.83129596710205,7.807638168334961,-17.556291580200195,23.732561111450195
0,1789287,-21.106698989868164,-20.427303314208984,-103.07968139648438,-24.79058074951172
0,1789290,15.87120246887207,27.055009841918945,45.64812088012695,16.348718643188477
0,1789291,13.576081275939941,34.25301742553711,193.37478637695312,-11.813321113586426
0,1789294,-11.791491508483887,-69.12628936767578,-138.99786376953125,-17.60769271850586
0,1789295,-17.307594299316406,-60.91691970825195,-154.47813415527344,-10.973790168762207
0,1789298,-5.048130512237549,64.32466888427734,90.46248626708984,0.7083122134208679
0,1789299,5.234055042266846,28.81264877319336,34.884552001953125,23.574100494384766
0,1789302,16.013559341430664,-26.248964309692383,17.15439796447754,-9.192517280578613
0,1789303,16.867734909057617,11.795467376708984,18.263460159301758,39.247840881347656
0,1789306,-30.973106384277344,-2.742089033126831,-26.040233612060547,0.2218536138534546
0,1789307,-38.94001388549805,-38.02703094482422,-77.3241195678711,-63.397560119628906
0,1789310,51.97943115234375,3.859604835510254,66.83808898925781,15.240202903747559
0,1789311,38.7962646484375,70.76962280273438,171.14598083496094,14.013578414916992
0,1789314,-62.97705841064453,-2.700293779373169,-141.59095764160156,4.39409065246582
0,1789315,-28.30088996887207,-53.679901123046875,-140.98590087890625,7.114502429962158
0,1789318,36.8233642578125,8.477744102478027,70.68936157226562,2.015322685241699
0,1789319,-0.12161778658628464,21.517213821411133,33.695682525634766,3.2899420261383057
0,1789322,2.536289930343628,-12.20123291015625,44.5687141418457,-25.784130096435547
0,1789323,39.71644973754883,-13.609331130981445,-19.422300338745117,16.176116943359375
0,1789326,-21.96192169189453,7.065036296844482,-65.07967376708984,-2.814462900161743
0,1789327,-44.9137077331543,-12.946842193603516,-28.82773780822754,-16.968921661376953
0,1789330,30.35518455505371,2.794581890106201,79.45684051513672,16.846689224243164
0,1789331,26.385211944580078,43.65937805175781,158.44564819335938,-3.5026116371154785
0,1789334,-47.79532241821289,-26.549837112426758,-110.41378784179688,-1.4960081577301025
0,1789335,-28.899272918701172,-62.804473876953125,-155.60702514648438,6.849647521972656
0,1789338,50.1479377746582,15.53935432434082,47.59154510498047,-0.8488783836364746
0,1789339,33.52817916870117,56.784820556640625,63.70952606201172,13.456062316894531
0,1789342,-13.010125160217285,2.7419686317443848,49.086692810058594,-3.475576639175415
0,1789343,-25.401935577392578,-36.06767654418945,-21.684396743774414,-31.670576095581055
0,1789346,-4.378645420074463,-14.004312515258789,-65.19249725341797,15.585570335388184
0,1789347,-6.92423677444458,0.8007220029830933,-90.47236633300781,9.826640129089355
0,1789350,24.88548469543457,76.35881805419922,118.41157531738281,-5.371937274932861
0,1789351,59.934574127197266,41.51327133178711,217.27639770507812,23.319395065307617
0,1789354,-67.29122924804688,-114.07705688476562,-209.6168670654297,-0.7141347527503967
0,1789355,-33.75905227661133,-35.84632873535156,-178.3441619873047,-24.00667953491211
0,1789358,54.18666458129883,64.71598052978516,135.728759765625,-24.196002960205078
0,1789359,-13.460762023925781,4.269812107086182,89.59420776367188,4.606088161468506
0,1789362,-3.9981391429901123,7.660743713378906,13.444206237792969,20.462053298950195
0,1789363,5.512002468109131,14.025795936584473,-33.2593879699707,-12.226530075073242
0,1789366,-36.963932037353516,-34.06947708129883,-27.837100982666016,14.726747512817383
0,1789367,-10.315774917602539,-10.70825481414795,-87.14995574951172,28.5869197845459
0,1789370,50.891990661621094,18.184553146362305,37.48154830932617,-23.934736251831055
0,1789371,29.499309539794922,12.92923355102539,188.08203125,-20.093074798583984
0,1789374,-42.27585220336914,1.2370145320892334,-116.89871215820312,10.953701972961426
0,1789375,-36.40068435668945,-16.385967254638672,-144.5061492919922,4.151268482208252
0,1789378,52.858001708984375,11.916695594787598,93.03238677978516,-12.36996078491211
0,1789379,18.91840171813965,-2.5524630546569824,48.02465057373047,-5.020954608917236
0,1789382,-35.78170394897461,-21.554269790649414,7.165477752685547,15.851967811584473
0,1789383,2.5488028526306152,23.816875457763672,14.309303283691406,6.192684173583984
0,1789386,-14.2099027633667,0.40027159452438354,-46.28354263305664,-36.88893127441406
0,1789388,-3.5158848762512207,-34.13996887207031,-74.45885467529297,10.071953773498535
0,1789390,29.532503128051758,4.029430866241455,92.38995361328125,46.64173889160156
0,1789392,33.39255905151367,42.903114318847656,157.7350616455078,-16.898597717285156
0,1789394,-45.71767807006836,-12.247227668762207,-177.9624786376953,-5.146716594696045
0,1789396,-44.25821304321289,-47.09189987182617,-149.4442901611328,23.278949737548828
0,1789398,42.57090759277344,26.706878662109375,157.36732482910156,-9.833365440368652
0,1789400,1.5773627758026123,21.166305541992188,52.88762664794922,-22.340456008911133
0,1789401,-13.265466690063477,-4.818227291107178,-73.9642333984375,-2.088745355606079
0,1789404,11.464081764221191,24.415359497070312,26.848915100097656,12.902436256408691
0,1789405,-5.1033525466918945,-13.747246742248535,20.157007217407227,6.052344799041748
0,1789408,-4.030160427093506,-53.31692886352539,-132.80702209472656,9.875532150268555
0,1789409,31.415586471557617,-10.90648365020752,-29.28636360168457,-13.060677528381348
0,1789412,-17.377490997314453,58.03308868408203,198.8331298828125,-42.491363525390625
0,1789413,-31.601131439208984,29.670644760131836,121.20230102539062,20.092899322509766
0,1789416,23.306039810180664,-52.497406005859375,-151.74969482421875,35.2901496887207
0,1789417,24.44830322265625,-2.3774971961975098,-100.4948959350586,-15.867669105529785
0,1789420,3.499974489212036,32.381507873535156,73.66915130615234,-9.954920768737793
0,1789421,-24.758413314819336,-1.5965911149978638,12.169699668884277,-0.7118856906890869
0,1789424,10.221611976623535,-5.195265769958496,16.574129104614258,-10.540679931640625
0,1789425,-6.2906107902526855,-31.138368606567383,-23.887128829956055,0.7088586091995239
0,1789428,-27.972978591918945,-23.365108489990234,-110.69490814208984,7.9155097007751465
0,1789429,44.30741500854492,37.17102813720703,11.585086822509766,1.5188937187194824
0,1789432,-5.869754791259766,17.62529945373535,144.38568115234375,11.76205062866211
0,1789433,-40.71554183959961,-19.536540985107422,55.675682067871094,-8.497078895568848
0,1789439,42.98469924926758,-0.8056039214134216,-235.3197021484375,-17.620615005493164
0,1789439,12.362738609313965,3.6627790927886963,-87.98942565917969,35.148101806640625
0,1789439,-41.37486267089844,21.585208892822266,283.14263916015625,-10.9349365234375
0,1789442,-7.066591262817383,-13.969694137573242,58.46742248535156,-30.502897262573242
0,1789443,32.77410888671875,-21.595617294311523,-78.19223022460938,51.39554977416992
0,1789446,-17.828109741210938,30.94736671447754,2.575707197189331,-9.618173599243164
0,1789447,-27.954227447509766,11.94200325012207,-101.83766174316406,-36.530208587646484
0,1789450,64.94703674316406,-0.3422456979751587,45.107845306396484,35.7304573059082
0,1789451,24.155630111694336,10.60659408569336,181.2165069580078,-1.9686756134033203
0,1789454,-58.968196868896484,-52.87677764892578,-138.297607421875,-22.281782150268555
0,1789455,-30.429277420043945,-30.802980422973633,-164.7632598876953,10.481040000915527
0,1789458,24.940013885498047,50.972164154052734,95.1124496459961,2.3900089263916016
0,1789459,33.96260452270508,5.2135210037231445,37.934722900390625,-15.26763916015625
0,1789462,-22.97614288330078,-32.745296478271484,26.1776123046875,3.457850933074951
0,1789463,-20.78744125366211,27.72314453125,20.92578887939453,31.773157119750977
0,1789466,14.272175788879395,33.763309478759766,-83.02793884277344,-12.668939590454102
0,1789467,-22.098318099975586,-58.62533187866211,-96.76678466796875,-34.31003952026367
0,1789470,13.382365226745605,-9.907302856445312,91.76656341552734,9.578265190124512
0,1789471,49.1871337890625,69.17664337158203,189.22415161132812,23.905439376831055
0,1789474,-29.919713973999023,-19.165517807006836,-121.66839599609375,-8.543142318725586
0,1789475,-39.57149124145508,-47.15962219238281,-163.52464294433594,-16.37261390686035
0,1789478,49.87681198120117,42.299739837646484,108.07957458496094,17.478376388549805
0,1789479,24.535900115966797,20.369482040405273,80.07294464111328,-10.191911697387695
0,1789482,-44.31542205810547,-52.30973434448242,-22.115535736083984,-9.628288269042969
0,1789483,-7.411800861358643,-0.1712314635515213,-14.56989574432373,37.197566986083984
0,1789486,9.593696594238281,37.14415740966797,-49.59760665893555,-11.027396202087402
0,1789487,-16.48931884765625,-27.964893341064453,-76.29996490478516,-13.680861473083496
0,1789490,15.184226036071777,3.9883646965026855,81.18804168701172,24.08365249633789
0,1789491,24.140037536621094,52.4813117980957,159.19969177246094,-2.0651333332061768
0,1789494,-47.30179977416992,-34.184234619140625,-119.2646713256836,-13.72437572479248
0,1789495,5.471118450164795,-30.495145797729492,-125.15596771240234,-24.324230194091797
0,1789498,56.25434875488281,17.329015731811523,83.78453826904297,19.111635208129883
0,1789499,-40.5396728515625,-6.699218273162842,43.09592056274414,35.75606918334961
0,1789502,-17.7919864654541,7.942795753479004,15.626062393188477,-40.45018768310547
0,1789503,38.4456672668457,16.187631607055664,-3.9326319694519043,-13.107060432434082
0,1789506,-19.3986873626709,-18.179418563842773,-44.94660568237305,28.95475959777832
0,1789507,-35.53682327270508,-23.64664649963379,-69.15328216552734,-20.065034866333008
0,1789510,21.47164535522461,24.043407440185547,80.68335723876953,8.946002006530762
0,1789511,45.41950607299805,29.745542526245117,168.1174774169922,28.589723587036133
0,1789514,-13.64277172088623,-42.61568832397461,-165.37411499023438,-24.391677856445312
0,1789515,-38.309906005859375,-28.705549240112305,-140.00852966308594,-17.522932052612305
0,1789518,24.644855499267578,49.39336013793945,122.80233001708984,9.775595664978027
0,1789519,33.12467575073242,14.537739753723145,29.68009376525879,20.297025680541992
0,1789522,-13.670665740966797,-25.383560180664062,6.0460991859436035,6.382290363311768
0,1789523,-7.722054958343506,24.116344451904297,23.1976375579834,-28.423219680786133
0,1789526,-16.292463302612305,-13.507412910461426,-45.41939926147461,-24.77489471435547
0,1789527,-5.7348432540893555,-65.26338195800781,-100.54390716552734,16.979248046875
0,1789530,35.782527923583984,32.63470458984375,76.67778778076172,11.954580307006836
0,1789531,-4.0795817375183105,54.719913482666016,181.479736328125,10.14188289642334
0,1789534,-67.7093734741211,-21.554222106933594,-144.4145050048828,5.176098823547363
0,1789535,-2.5215678215026855,-3.507760524749756,-119.74591827392578,-29.749265670776367
0,1789538,66.81454467773438,16.67559814453125,105.72283172607422,10.765961647033691
0,1789539,-10.77523136138916,-8.6786470413208,15.78113079071045,16.33644676208496
0,1789542,-15.419330596923828,-15.500503540039062,14.8473482131958,-13.661334037780762
0,1789543,22.274982452392578,6.997631549835205,21.201976776123047,6.449535846710205
0,1789546,1.2114503383636475,1.8395869731903076,-49.645503997802734,-22.852962493896484
0,1789547,-16.351606369018555,-30.571483612060547,-101.08007049560547,-12.13166332244873
0,1789550,10.972147941589355,16.42545509338379,63.91263961791992,63.41615676879883
0,1789551,29.862966537475586,60.03694152832031,193.9006805419922,0.3231223225593567
0,1789554,-43.300018310546875,-28.706708908081055,-124.33203125,-38.90108108520508
0,1789555,-55.604984283447266,-72.61087799072266,-159.651611328125,-4.443660736083984
0,1789558,41.58484649658203,23.01103973388672,112.00675964355469,-6.604005813598633
0,1789559,63.78620529174805,50.54549026489258,71.47730255126953,21.61066246032715
0,1789562,-29.903270721435547,-12.458290100097656,-22.114761352539062,10.118683815002441
0,1789563,-43.30587387084961,-29.643495559692383,-10.764801979064941,-8.928894996643066
0,1789566,-2.9035675525665283,19.01367950439453,-39.3107795715332,-11.916633605957031
0,1789567,-9.293278694152832,-4.603982448577881,-86.74279022216797,-0.1312454789876938
0,1789570,45.49276351928711,-7.190946578979492,79.77278137207031,11.804771423339844
0,1789571,53.261417388916016,56.45511245727539,189.9661865234375,12.895626068115234
0,1789574,-65.08422088623047,-43.99207305908203,-154.4580535888672,-6.076129913330078
0,1789575,-32.400634765625,-58.34424591064453,-148.3247528076172,-37.92591094970703
0,1789578,62.01321792602539,46.21337127685547,119.4706039428711,-3.9267380237579346
0,1789579,1.0049253702163696,30.473623275756836,57.466651916503906,32.36465072631836
0,1789582,-32.3069953918457,18.586013793945312,35.24260330200195,18.043638229370117
0,1789583,11.423057556152344,-3.8830630779266357,-39.47127914428711,-15.306402206420898
0,1789586,9.254007339477539,-29.641403198242188,-88.37459564208984,7.006446838378906
0,1789587,-35.84653854370117,-18.315820693969727,-44.51091766357422,14.682212829589844
0,1789590,32.95866012573242,32.26374816894531,112.04134368896484,-21.700345993041992
0,1789591,41.02119445800781,16.308095932006836,155.5999755859375,2.0780351161956787
0,1789594,-87.18331146240234,-73.0557632446289,-174.37130737304688,9.03300952911377
0,1789595,-31.240175247192383,-14.712958335876465,-119.91182708740234,-10.630608558654785
0,1789598,60.92119216918945,52.338218688964844,101.18338775634766,3.014800548553467
0,1789599,2.6389412879943848,5.0876784324646,26.513582229614258,-8.014911651611328
0,1789602,8.853483200073242,2.2755932807922363,34.041866302490234,-2.0351362228393555
0,1789603,16.29117774963379,17.04889488220215,14.849739074707031,-4.245903015136719
0,1789606,-38.37727355957031,-8.386152267456055,-63.492637634277344,-31.44402503967285
0,1789607,-5.164952754974365,-42.61233139038086,-100.39876556396484,17.53990936279297
0,1789610,32.27769470214844,15.490123748779297,74.5654525756836,17.31821632385254
0,1789611,27.212404251098633,65.82384490966797,188.25852966308594,-9.598331451416016
0,1789614,-25.081161499023438,-51.71302032470703,-136.42840576171875,16.01470184326172
0,1789615,-27.741199493408203,-18.596927642822266,-130.28976440429688,20.494359970092773
0,1789618,20.004472732543945,52.31136703491211,102.15161895751953,-6.737785339355469
0,1789619,-1.2729427814483643,-36.64723205566406,41.80958557128906,-11.16369342803955
0,1789622,5.18599271774292,-28.443693161010742,26.868906021118164,-11.076798439025879
0,1789623,3.0041277408599854,23.29122543334961,6.916612148284912,-14.776962280273438
0,1789626,-39.73137283325195,2.716834545135498,-75.9851303100586,29.720905303955078
0,1789627,-7.731670379638672,-13.427071571350098,-107.34342956542969,9.426844596862793
0,1789630,50.24422073364258,35.62336730957031,93.00775146484375,-32.18579864501953
0,1789631,26.94102668762207,32.499778747558594,181.3384552001953,-6.665538787841797
0,1789634,-48.30061340332031,-50.320457458496094,-138.93321228027344,48.63517379760742
0,1789635,-44.47196578979492,-23.14925193786621,-133.8920440673828,13.984336853027344
0,1789638,52.3343505859375,35.11323547363281,90.33103942871094,-39.86857223510742
0,1789639,22.834606170654297,-39.68922805786133,51.10737609863281,-24.746124267578125
0,1789642,-39.021915435791016,-6.017942905426025,12.383079528808594,-20.97692108154297
0,1789643,-0.3736571967601776,62.51494598388672,1.0168001651763916,47.851654052734375
0,1789646,5.422593593597412,-32.79744338989258,-43.362972259521484,27.55946922302246
0,1789647,-7.688583850860596,-46.64902114868164,-86.14087677001953,-35.314613342285156
0,1789650,20.418825149536133,39.93092346191406,90.81329345703125,9.168536186218262
0,1789651,32.56684875488281,54.24724197387695,183.18157958984375,-1.7647161483764648
0,1789654,-43.92338180541992,-40.5622673034668,-160.35906982421875,-16.231595993041992
0,1789655,-20.956995010375977,-21.474040985107422,-155.66616821289062,3.2792484760284424
0,1789658,57.992916107177734,30.618186950683594,101.20892333984375,11.743406295776367
0,1789659,3.5477609634399414,-10.748854637145996,56.82364273071289,-8.361835479736328
0,1789662,-40.01158905029297,10.693584442138672,30.94890785217285,-10.313495635986328
0,1789663,5.935427188873291,17.716230392456055,-13.3724946975708,33.846126556396484
0,1789666,12.256945610046387,-9.182573318481445,-56.58869552612305,1.0991466045379639
0,1789668,-23.887653350830078,-47.821815490722656,-52.23506546020508,-1.7260181903839111
0,1789670,38.00777816772461,0.4053328335285187,74.95976257324219,27.736465454101562
0,1789672,26.322587966918945,55.178035736083984,159.14736938476562,-25.94342803955078
0,1789674,-57.79736328125,-40.38289260864258,-179.0689697265625,-62.222328186035156
0,1789676,-32.46519470214844,-22.549222946166992,-151.52610778808594,-26.08313751220703
0,1789678,30.525859832763672,63.42646026611328,165.59490966796875,47.9804801940918
0,1789680,37.01847839355469,-6.974067211151123,37.848182678222656,29.295373916625977
0,1789681,-25.254047393798828,-39.737640380859375,-27.94869613647461,-13.731141090393066
0,1789684,-16.086383819580078,19.173614501953125,61.452518463134766,3.6863319873809814
0,1789685,10.562385559082031,19.287891387939453,-71.61776733398438,0.4767366349697113
0,1789688,-19.20496368408203,-48.51319122314453,-149.8783721923828,-6.753552436828613
0,1789689,13.359407424926758,-32.36144256591797,80.99703979492188,21.05361557006836
0,1789692,4.14010763168335,59.901424407958984,191.03363037109375,24.163877487182617
0,1789693,-17.846698760986328,29.021602630615234,-14.468358993530273,-20.0714054107666
0,1789697,36.507728576660156,-36.92608642578125,-188.9083251953125,-19.935115814208984
0,1789697,-10.220091819763184,0.6840528845787048,-9.413912773132324,-13.507801055908203
0,1789700,-13.716075897216797,37.19606018066406,140.6729736328125,38.027061462402344
0,1789701,31.055444717407227,-16.111125946044922,-29.52945327758789,35.46841812133789
0,1789704,-25.651079177856445,-16.093069076538086,29.58905792236328,-67.37257385253906
0,1789705,-9.138751029968262,20.72862434387207,25.166616439819336,-46.54796600341797
0,1789708,-9.301399230957031,-46.07857894897461,-181.7989959716797,19.108732223510742
0,1789709,2.1859238147735596,-2.2054390907287598,5.394166469573975,31.04669189453125
0,1789712,42.54155731201172,68.65647888183594,191.8843231201172,8.400373458862305
0,1789713,-30.682151794433594,-32.295406341552734,-15.634336471557617,-28.614229202270508
0,1789716,-4.460515022277832,-55.66524887084961,-156.14329528808594,7.4109039306640625
0,1789717,32.41767501831055,22.796951293945312,46.972023010253906,39.246070861816406
0,1789720,-30.199125289916992,25.717819213867188,116.0625991821289,26.53514862060547
0,1789721,12.718791007995605,-12.755481719970703,-74.99862670898438,-11.076020240783691
0,1789724,35.684757232666016,28.503143310546875,-28.591035842895508,-54.63566970825195
0,1789725,-46.33452224731445,21.986270904541016,28.506715774536133,5.460402011871338
0,1789728,-16.967788696289062,-38.37078094482422,-78.55758666992188,39.74177169799805
0,1789729,49.643592834472656,31.77018165588379,15.284501075744629,-8.159008979797363
0,1789732,-3.6262154579162598,14.231971740722656,135.4566650390625,-46.226837158203125
0,1789733,-27.509538650512695,-39.58516311645508,27.782344818115234,-9.309903144836426
0,1789736,5.878753662109375,-13.893119812011719,-135.23838806152344,46.383548736572266
0,1789737,-7.218052387237549,-27.311006546020508,-57.31627655029297,5.6929755210876465
0,1789740,-0.06882929801940918,13.550219535827637,96.38008117675781,-26.20296287536621
0,1789741,28.08194923400879,3.0486397743225098,2.6430282592773438,-7.763071537017822
0,1789744,-21.493803024291992,-13.889209747314453,26.081968307495117,14.880845069885254
0,1789745,-26.687162399291992,59.63359451293945,22.74646759033203,-3.782318592071533
0,1789748,5.4511590003967285,-10.4811429977417,-151.4909210205078,-3.4226467609405518
0,1789749,12.179695129394531,-48.748287200927734,15.750307083129883,28.497634887695312
0,1789752,59.154457092285156,64.10276794433594,158.52825927734375,-8.138187408447266
0,1789753,-27.832246780395508,3.709064483642578,-2.1390795707702637,-9.884560585021973
0,1789756,-82.5312728881836,-45.44014358520508,-234.14732360839844,-22.48526954650879
0,1789757,35.821075439453125,4.72812032699585,25.8092098236084,2.8885786533355713
0,1789760,49.9472541809082,-13.017563819885254,285.2420654296875,76.02940368652344
0,1789761,15.418384552001953,61.846397399902344,-95.14568328857422,-33.095760345458984
0,1789764,-16.371566772460938,23.253662109375,-50.237274169921875,-70.33308410644531
0,1789765,-54.537601470947266,-96.62312316894531,15.614886283874512,12.91753101348877
0,1789768,6.742247104644775,-32.50027084350586,-151.80560302734375,50.469661712646484
0,1789769,45.76938247680664,35.724586486816406,82.78277587890625,36.49494552612305
0,1789772,3.0483810901641846,46.86423110961914,168.3060302734375,-31.178464889526367
0,1789773,-16.782245635986328,13.730046272277832,-53.287193298339844,-3.1233811378479004
0,1789776,-1.959495186805725,-46.226802825927734,-142.197509765625,11.083552360534668
0,1789777,-5.352055549621582,-29.203744888305664,3.0066869258880615,-49.9918098449707
0,1789780,-11.429522514343262,49.05059051513672,75.8685302734375,-9.164116859436035
0,1789781,13.89634895324707,25.027353286743164,19.202680587768555,34.87985610961914
0,1789784,14.085357666015625,-5.054317474365234,42.069580078125,10.616959571838379
0,1789785,-16.82097053527832,-11.143819808959961,-52.464622497558594,2.506438970565796
0,1789788,-17.656259536743164,-54.1390495300293,-151.6311798095703,-41.93425369262695
0,1789789,31.978511810302734,17.216285705566406,55.97835159301758,-18.095766067504883
0,1789792,21.15900993347168,38.337772369384766,177.3020477294922,76.8490982055664
0,1789793,-54.56280517578125,-13.168030738830566,-1.5822339057922363,17.903766632080078
0,1789796,-16.43321418762207,4.695115089416504,-144.4864501953125,-74.77910614013672
0,1789797,23.946800231933594,-4.735373020172119,-4.166046619415283,-6.355882167816162
0,1789800,18.711545944213867,-11.832080841064453,64.6706771850586,43.560279846191406
0,1789801,8.184648513793945,22.57023811340332,-56.791664123535156,-10.525476455688477
0,1789804,-37.469303131103516,26.336135864257812,60.30062484741211,-14.14993953704834
0,1789805,-4.025378704071045,-25.915878295898438,35.594688415527344,24.63949203491211
0,1789808,14.501585960388184,-65.11888885498047,-143.25628662109375,9.882325172424316
0,1789809,25.433305740356445,11.479286193847656,34.82042694091797,-35.490543365478516
0,1789812,37.538368225097656,68.2208023071289,162.10765075683594,-19.872011184692383
0,1789813,-48.27808380126953,-1.9246838092803955,-8.40585994720459,24.10780143737793
0,1789816,-32.20458984375,-33.28435134887695,-159.48033142089844,11.215797424316406
0,1789817,39.2670783996582,-12.030781745910645,-38.24550247192383,-1.3258804082870483
0,1789820,6.687606334686279,3.7686474323272705,105.22138214111328,12.921992301940918
0,1789821,-18.271970748901367,12.524681091308594,24.037124633789062,0.6791916489601135
0,1789824,-11.152932167053223,14.490864753723145,16.19869041442871,-20.332624435424805
0,1789825,-7.000053882598877,-22.310009002685547,-40.553768157958984,-28.731042861938477
0,1789828,3.490511655807495,-15.970487594604492,-115.30156707763672,12.069890975952148
0,1789829,33.00492858886719,34.080814361572266,79.59314727783203,25.327632904052734
0,1789832,1.0358775854110718,-1.5232502222061157,115.471435546875,-21.02373695373535
0,1789833,-73.22279357910156,0.6225504875183105,-56.957862854003906,-6.65779972076416
0,1789836,2.806568145751953,-3.1361329555511475,-95.71558380126953,28.302656173706055
0,1789837,60.600215911865234,-25.958101272583008,11.241374969482422,33.47825622558594
0,1789840,22.516860961914062,13.458576202392578,70.43281555175781,11.453398704528809
0,1789841,11.776022911071777,17.471006393432617,31.873031616210938,-26.606374740600586
0,1789844,-18.414588928222656,24.521854400634766,61.9113883972168,-46.43574523925781
0,1789845,-21.134878158569336,-4.133518218994141,-54.239234924316406,7.625894546508789
0,1789848,-23.642438888549805,-75.98551940917969,-175.77894592285156,16.891498565673828
0,1789849,30.197622299194336,8.185046195983887,63.66004180908203,-22.469892501831055
0,1789852,34.01024627685547,74.02460479736328,151.70274353027344,22.91837501525879
0,1789853,-41.089569091796875,-23.32607650756836,-53.79627227783203,17.658161163330078
0,1789856,-18.65011215209961,-61.574947357177734,-140.1937713623047,-20.131591796875
0,1789857,22.985164642333984,17.21753692626953,14.459431648254395,-22.937274932861328
0,1789860,17.654375076293945,50.16279602050781,112.19400787353516,-13.269265174865723
0,1789861,-22.931049346923828,-10.410019874572754,3.99945068359375,38.12348937988281
0,1789864,-32.42530059814453,-5.276653289794922,12.93274211883545,8.78546142578125
0,1789865,-7.23723840713501,12.563605308532715,-21.954547882080078,-32.970062255859375
0,1789868,12.518148422241211,-18.99976921081543,-113.90559387207031,26.841609954833984
0,1789869,37.034767150878906,23.19716453552246,63.258548736572266,15.407740592956543
0,1789872,13.183903694152832,15.681803703308105,159.37448120117188,-41.272544860839844
0,1789873,-25.59503173828125,-40.951026916503906,-80.44976043701172,10.695911407470703
0,1789876,4.400543212890625,-11.440053939819336,-164.53933715820312,33.20145797729492
0,1789877,10.296419143676758,-10.744866371154785,53.40423583984375,-27.40030860900879
0,1789880,-14.387495040893555,19.308509826660156,118.77324676513672,26.92205047607422
0,1789881,14.601234436035156,51.763885498046875,4.546257972717285,42.34734344482422
0,1789884,9.461435317993164,-32.16505432128906,-10.160326957702637,-34.45714569091797
0,1789885,-35.4765739440918,-61.008541107177734,-84.48629760742188,-42.95992660522461
0,1789888,-0.7982733845710754,11.45440673828125,-86.98189544677734,-6.169693946838379
0,1789889,25.3240909576416,71.97437286376953,119.10894012451172,18.613746643066406
0,1789892,-17.778640747070312,17.83884048461914,108.92617797851562,-8.11268138885498
0,1789893,-30.197906494140625,-56.00360107421875,-80.68925476074219,-14.020340919494629
0,1789896,2.868434429168701,0.1650501787662506,-107.7616958618164,16.74772834777832
0,1789897,-1.1550335884094238,14.470849990844727,23.685062408447266,21.42828369140625
0,1789900,29.315536499023438,-20.432083129882812,74.901123046875,-30.000383377075195
0,1789901,29.818029403686523,-6.033580303192139,-15.260825157165527,-18.79960060119629
0,1789904,-11.014835357666016,17.79250717163086,14.062663078308105,33.152732849121094
0,1789905,5.485865592956543,-7.05081033706665,7.384987831115723,16.29227638244629
0,1789908,-32.243804931640625,-37.04064178466797,-119.9923095703125,-7.561267375946045
0,1789909,23.584583282470703,51.61048126220703,79.97413635253906,11.104455947875977
0,1789912,34.74055862426758,45.85274124145508,156.1982879638672,3.4522855281829834
0,1789913,-53.647560119628906,-76.09073638916016,-94.94249725341797,-45.337100982666016
0,1789916,7.491262435913086,-35.72568893432617,-130.6801300048828,0.29691630601882935
0,1789917,14.065457344055176,71.87477111816406,35.4759521484375,23.951522827148438
0,1789920,-24.69072151184082,18.969898223876953,99.18443298339844,-10.724739074707031
0,1789921,-4.931772708892822,-26.976308822631836,-24.661365509033203,13.494357109069824
0,1789924,22.947858810424805,23.038490295410156,21.40410614013672,20.308740615844727
0,1789925,-1.4381728172302246,-25.813058853149414,-24.246248245239258,-9.28768253326416
0,1789928,-17.831287384033203,-43.38207244873047,-155.8327178955078,-27.84546661376953
0,1789929,31.335058212280273,43.962215423583984,108.89957427978516,-11.932357788085938
0,1789932,-17.9412841796875,35.51347351074219,125.31815338134766,15.306129455566406
0,1789934,-31.478961944580078,-40.88248062133789,-134.69972229003906,-2.070443868637085
0,1789936,16.990697860717773,-46.395172119140625,-57.01280212402344,1.9597324132919312
0,1789938,18.746623992919922,12.361621856689453,86.46170043945312,17.423614501953125
0,1789940,13.584067344665527,55.29945755004883,59.12720489501953,-12.76580810546875
0,1789942,-20.816879272460938,-3.1092710494995117,-15.982175827026367,-1.144094467163086
0,1789944,-2.728297233581543,-14.449183464050293,20.549461364746094,6.712320327758789
0,1789946,-7.193661689758301,-0.6221070885658264,-36.754207611083984,-1.3830368518829346
0,1789947,-20.888572692871094,-62.69371795654297,-159.2247314453125,25.545940399169922
0,1789950,63.16459655761719,47.27304458618164,107.96647644042969,-2.805086374282837
0,1789951,8.531989097595215,88.6502456665039,211.79713439941406,-15.990228652954102
0,1789954,-68.45569610595703,-78.52498626708984,-167.6912841796875,27.031232833862305
0,1789955,22.11844825744629,-32.09201431274414,-136.6232147216797,8.693451881408691
0,1789958,38.756813049316406,66.09600830078125,99.29411315917969,-51.49519348144531
0,1789959,-35.13125991821289,-21.78014373779297,38.73855209350586,-35.903202056884766
0,1789963,7.098921775817871,1.234381914138794,59.75068283081055,33.168983459472656
0,1789964,29.173967361450195,20.275890350341797,10.211495399475098,17.04412078857422
0,1789965,-58.101680755615234,-76.38831329345703,-140.2940673828125,-8.804550170898438
0,1789968,-15.749464988708496,11.901498794555664,-77.80172729492188,-1.9061267375946045
0,1789969,67.83726501464844,84.00790405273438,140.6234130859375,-13.879034042358398
0,1789972,13.161239624023438,-21.107860565185547,98.69843292236328,2.425766706466675
0,1789973,-57.035858154296875,-59.678627014160156,-114.45336151123047,4.620573997497559
0,1789976,-17.67730712890625,-13.978652954101562,-105.23612213134766,4.430616855621338
0,1789977,19.196592330932617,39.981746673583984,41.15781021118164,8.519898414611816
0,1789980,20.6994571685791,36.88428497314453,83.25720977783203,32.393917083740234
0,1789981,13.476046562194824,-28.790273666381836,-2.3032963275909424,12.234326362609863
0,1789984,-19.970611572265625,-7.711469650268555,41.50249099731445,-69.62586975097656
0,1789985,-2.563650131225586,16.683090209960938,-34.255348205566406,-5.611692428588867
0,1789988,-0.432084858417511,-32.024925231933594,-113.18145751953125,52.2861213684082
0,1789989,19.960420608520508,4.741537094116211,113.13733673095703,6.021788597106934
0,1789992,-4.324457168579102,28.213008880615234,102.92760467529297,-20.756954193115234
0,1789993,-52.2179069519043,-14.85912799835205,-88.40264129638672,-28.936511993408203
0,1789996,29.69438934326172,-10.639119148254395,-101.24407196044922,3.5489771366119385
0,1789997,32.41128921508789,3.0830349922180176,-3.1296534538269043,-12.840049743652344
0,1790000,-11.058012962341309,2.8458449840545654,69.40351104736328,3.089616537094116
0,1790001,-1.0285916328430176,21.245243072509766,31.72024154663086,41.09267807006836
0,1790004,-7.019779682159424,16.671113967895508,12.448992729187012,-17.858308792114258
0,1790005,-31.198198318481445,-34.233524322509766,-85.03063201904297,0.7792478799819946
0,1790008,8.706717491149902,-17.742359161376953,-64.9173355102539,29.64860725402832
0,1790009,73.96817779541016,46.67467498779297,159.2898712158203,-5.950705528259277
0,1790012,-39.027565002441406,-5.27556848526001,62.76936721801758,-21.15994644165039
0,1790013,-51.44062042236328,-60.755550384521484,-116.67811584472656,-6.504696846008301
0,1790016,46.003116607666016,9.23958969116211,-61.39139175415039,29.8847599029541
0,1790017,-22.06764793395996,32.83829116821289,55.67008972167969,-7.386089324951172
0,1790020,6.216392517089844,-1.1469218730926514,45.719120025634766,-40.444679260253906
0,1790021,44.9620246887207,-2.8795647621154785,-38.86908721923828,20.89447784423828
0,1790024,-39.08662414550781,-0.33319222927093506,50.50978088378906,19.54723358154297
0,1790025,-32.47119903564453,3.576678514480591,-10.993968963623047,-10.134224891662598
0,1790028,17.904075622558594,-28.814598083496094,-159.10641479492188,-4.213740348815918
0,1790029,42.47846984863281,19.900218963623047,72.82748413085938,-8.405759811401367
0,1790032,-1.7990150451660156,35.17873001098633,166.74578857421875,20.758739471435547
0,1790033,-37.09449005126953,-48.28297805786133,-99.51119232177734,4.574204921722412
0,1790036,-2.70827317237854,12.870636940002441,-115.65560150146484,-19.197113037109375
0,1790037,1.5549927949905396,35.72023010253906,80.01698303222656,20.380102157592773
0,1790040,21.880952835083008,5.156220436096191,74.68230438232422,-2.554687738418579
0,1790041,16.142959594726562,-5.636881351470947,-32.50689697265625,-32.22526550292969
0,1790044,-22.399396896362305,-21.84119987487793,12.684514999389648,-3.0652225017547607
0,1790045,-22.776165008544922,-20.273365020751953,-43.72725296020508,11.649352073669434
0,1790048,20.26598358154297,1.4863898754119873,-112.82042694091797,22.609399795532227
0,1790049,41.99683380126953,57.87415313720703,108.76052856445312,-2.060117721557617
0,1790052,-16.527301788330078,-15.441197395324707,111.41321563720703,-34.02650833129883
0,1790053,-50.16892623901367,-75.72676086425781,-81.92733001708984,7.579523086547852
0,1790056,2.5232908725738525,9.492881774902344,-75.57698059082031,31.10144805908203
0,1790057,46.66035461425781,44.87226104736328,38.21034622192383,10.212474822998047
0,1790060,-4.477348327636719,3.8059072494506836,39.67839431762695,-35.471458435058594
0,1790061,-42.56084442138672,-14.193629264831543,-46.22480010986328,-36.14330291748047
0,1790064,8.861078262329102,-0.2556411027908325,70.88270568847656,30.398447036743164
0,1790065,21.648637771606445,-10.168633460998535,-7.065488338470459,39.12178421020508
0,1790068,-9.94189167022705,-21.179136276245117,-140.70225524902344,-12.241739273071289
0,1790069,-2.2919232845306396,33.04633712768555,110.76017761230469,-27.073442459106445
0,1790072,-17.002758026123047,30.368234634399414,108.04354095458984,-3.4870994091033936
0,1790073,-0.441015362739563,-17.072629928588867,-118.7388687133789,4.571164131164551
0,1790076,19.433061599731445,-11.312402725219727,-102.39144134521484,11.541129112243652
0,1790077,0.8727176189422607,-22.85084342956543,46.149349212646484,-19.104734420776367
0,1790080,29.110116958618164,33.51276779174805,93.29985809326172,17.324270248413086
0,1790081,-0.2409875988960266,21.765579223632812,-5.309961318969727,59.9141960144043
0,1790084,-31.511226654052734,-60.1823844909668,13.770672798156738,-41.8638916015625
0,1790085,-13.989239692687988,-5.201687335968018,-25.569599151611328,-52.713050842285156
0,1790088,12.267762184143066,17.684144973754883,-111.47489166259766,11.944393157958984
0,1790089,45.233802795410156,7.0073418617248535,93.41307067871094,40.66801452636719
0,1790092,-25.856765747070312,12.588653564453125,119.59822845458984,27.78667640686035
0,1790093,-40.597129821777344,11.722647666931152,-79.2990951538086,-44.273826599121094
0,1790096,21.19151496887207,1.7824151515960693,-115.96185302734375,-23.244131088256836
0,1790097,-13.240260124206543,-36.38030242919922,5.1827521324157715,14.7612943649292
0,1790100,20.904617309570312,4.948235511779785,82.90399932861328,-4.3334879875183105
0,1790101,31.653987884521484,18.474061965942383,-2.6363067626953125,29.967241287231445
0,1790104,-40.09891128540039,-3.015451192855835,45.262306213378906,12.683029174804688
0,1790105,-26.97808837890625,-11.396774291992188,-44.99600601196289,-47.810264587402344
0,1790108,-2.2735183238983154,-24.91455841064453,-142.4541778564453,8.921149253845215
0,1790109,42.774192810058594,34.348236083984375,153.73622131347656,25.428470611572266
0,1790112,14.52831745147705,30.046607971191406,109.95257568359375,-25.138662338256836
0,1790113,-34.382816314697266,-14.321663856506348,-138.38804626464844,21.441164016723633
0,1790116,14.575629234313965,-42.877498626708984,-88.43415069580078,3.5932445526123047
0,1790117,6.841458797454834,-0.7515233159065247,32.49871826171875,-36.83285140991211
0,1790120,4.179398536682129,39.03112030029297,89.54420471191406,0.9533406496047974
0,1790121,11.164835929870605,-7.96925163269043,-10.798298835754395,6.634170055389404
0,1790124,-36.25847244262695,24.191024780273438,16.27851676940918,32.46397018432617
0,1790125,-13.55211067199707,-7.345694541931152,-6.839456081390381,-5.217562675476074
0,1790128,34.180084228515625,-41.91078186035156,-113.35394287109375,-37.763118743896484
0,1790129,16.238515853881836,46.350284576416016,94.30029296875,32.096710205078125
0,1790132,-41.980064392089844,17.85553741455078,88.14299774169922,-4.86687707901001
0,1790133,-24.313234329223633,-45.056304931640625,-108.77833557128906,-2.666029930114746
0,1790136,66.8232421875,-29.31081771850586,-66.12503051757812,54.691612243652344
0,1790137,-6.065359592437744,-22.63298797607422,55.429710388183594,-4.563497066497803
0,1790140,-33.68581771850586,56.283382415771484,80.39505004882812,-33.70419692993164
0,1790141,10.465270042419434,52.3474235534668,-28.55332374572754,-39.729705810546875
0,1790144,-10.270548820495605,-53.1748046875,4.547674655914307,-7.988749027252197
0,1790145,21.2230281829834,-26.917551040649414,-21.66522979736328,11.6578950881958
0,1790148,-10.836922645568848,7.581384181976318,-110.59549713134766,17.298202514648438
0,1790149,10.132718086242676,21.669313430786133,106.32786560058594,18.486724853515625
0,1790152,13.869853019714355,20.83676528930664,88.34503173828125,-33.50018310546875
0,1790153,-38.7980842590332,-28.359712600708008,-98.53050231933594,5.369035243988037
0,1790156,22.485557556152344,-10.356806755065918,-45.5593376159668,18.460216522216797
0,1790157,21.635164260864258,26.9973201751709,38.419612884521484,0.289092481136322
0,1790160,-27.47895050048828,-10.949389457702637,31.65998649597168,19.604339599609375
0,1790161,-5.473889350891113,-46.37489318847656,-29.63009262084961,2.333634853363037
0,1790164,7.208972930908203,32.815860748291016,33.80997848510742,-38.38533020019531
0,1790165,-16.783823013305664,28.599853515625,-18.20183563232422,-3.8255693912506104
0,1790168,-1.2042948007583618,-49.490142822265625,-91.66051483154297,33.74553298950195
0,1790169,46.77840805053711,37.24808883666992,113.37796020507812,-11.15322208404541
0,1790172,-12.713052749633789,33.36534881591797,72.4271240234375,-31.225988388061523
0,1790173,-56.51532745361328,-47.50896453857422,-130.10667419433594,-31.035146713256836
0,1790176,30.073932647705078,-7.060303688049316,-48.32504653930664,18.535676956176758
0,1790177,45.54123306274414,26.857357025146484,77.9969253540039,46.302616119384766
0,1790180,-19.271989822387695,-7.014573574066162,53.57520294189453,26.340124130249023
0,1790181,-27.360414505004883,-40.61478042602539,-24.83657455444336,-12.55530834197998
0,1790184,18.92197608947754,39.1258430480957,29.597169876098633,-29.9334659576416
0,1790185,0.2274245023727417,14.967877388000488,-37.89387512207031,5.5001983642578125
0,1790188,-4.332493305206299,-33.54317092895508,-109.18553924560547,4.874521255493164
0,1790190,25.90631866455078,55.723899841308594,129.8654327392578,2.4153456687927246
0,1790192,-29.3569393157959,9.419132232666016,61.51034164428711,16.535385131835938
0,1790194,-46.63397979736328,-51.29668426513672,-153.08937072753906,8.101829528808594
0,1790196,45.85289764404297,-11.70270824432373,-45.83584976196289,-23.786462783813477
0,1790198,50.088111877441406,26.008588790893555,73.65113830566406,-32.68828201293945
0,1790200,-50.25825881958008,-0.9398770928382874,61.72643280029297,-3.3475327491760254
0,1790202,-27.120121002197266,-40.279457092285156,-14.409052848815918,1.7385354042053223
0,1790203,42.97743225097656,18.490983963012695,-46.39069366455078,12.191205978393555
0,1790206,-4.142087936401367,6.996675491333008,-51.85273742675781,36.21727752685547
0,1790207,-42.74691390991211,-33.72270584106445,-52.72798538208008,-27.66957664489746
0,1790210,29.81810760498047,31.92142105102539,144.56541442871094,-23.004314422607422
0,1790211,33.619022369384766,46.06776809692383,197.55398559570312,22.627904891967773
0,1790214,-45.87736129760742,-35.784671783447266,-177.9642333984375,4.287291049957275
0,1790215,-0.9236224889755249,-26.21400260925293,-131.14138793945312,9.051417350769043
0,1790218,30.320602416992188,48.55615234375,116.54271697998047,-13.129531860351562
0,1790219,-37.234397888183594,0.07146092504262924,-0.2925034463405609,8.553481101989746
0,1790222,0.027380572631955147,-33.151126861572266,12.697750091552734,31.561677932739258
0,1790223,41.421112060546875,17.88213348388672,-2.6585676670074463,-17.695844650268555
0,1790229,-6.459598064422607,11.405869483947754,41.7738151550293,-37.74625778198242
0,1790229,2.7568914890289307,-21.76972198486328,58.82196044921875,-12.451172828674316
0,1790230,-5.440927982330322,-10.106889724731445,-140.16641235351562,32.697811126708984
0,1790231,-9.897647857666016,-6.156604766845703,-39.7197380065918,34.74876403808594
0,1790234,4.1052141189575195,-19.892433166503906,-14.701988220214844,-14.093037605285645
0,1790235,-25.637453079223633,-13.0745849609375,-64.09461212158203,-23.847827911376953
0,1790238,30.608577728271484,31.171321868896484,75.90962982177734,-21.073436737060547
0,1790239,-0.8793948292732239,45.09651184082031,54.13859176635742,11.901900291442871
0,1790242,-36.88993835449219,-9.390616416931152,17.860790252685547,23.257829666137695
0,1790243,48.036651611328125,-6.239939212799072,1.711478590965271,-19.758319854736328
0,1790246,-9.552019119262695,-24.76254653930664,-96.19393157958984,8.423595428466797
0,1790247,-52.93851852416992,-46.42423629760742,-95.00965118408203,15.06623649597168
0,1790250,26.298839569091797,83.24877166748047,179.74826049804688,-14.883927345275879
0,1790251,39.11978530883789,28.77081298828125,185.8737030029297,-22.030960083007812
0,1790254,-19.794925689697266,-90.05569458007812,-245.7944793701172,7.212869167327881
0,1790255,-16.27008819580078,4.469575881958008,-110.78809356689453,23.120573043823242
0,1790258,34.42741775512695,58.27988052368164,217.68743896484375,-2.4802958965301514
0,1790259,9.503379821777344,35.172794342041016,18.61266326904297,-1.6280142068862915
0,1790262,-30.768489837646484,-37.810245513916016,-62.94047164916992,-2.5443944931030273
0,1790263,-4.163602352142334,-51.530208587646484,40.78346633911133,6.401515483856201
0,1790266,-8.629441261291504,-6.961485862731934,-65.49459838867188,12.233431816101074
0,1790267,-16.957744598388672,23.552278518676758,-138.9016876220703,-19.599706649780273
0,1790270,26.805830001831055,47.139854431152344,145.92088317871094,-12.793343544006348
0,1790271,25.882596969604492,-11.152594566345215,203.4805450439453,7.5844855308532715
0,1790274,-5.3729658126831055,-54.92565155029297,-206.75376892089844,1.0705889463424683
0,1790275,-20.410978317260742,-2.7674477100372314,-124.59642791748047,25.12889862060547
0,1790278,11.455395698547363,37.04920196533203,166.33999633789062,-4.326216220855713
0,1790279,-8.274131774902344,8.01403522491455,14.521738052368164,-53.364234924316406
0,1790282,-23.805618286132812,5.572007656097412,-28.31110382080078,21.838682174682617
0,1790283,40.991241455078125,19.955581665039062,22.576950073242188,52.023468017578125
0,1790286,-13.885580062866211,-69.16084289550781,-81.3639144897461,-31.33785629272461
0,1790287,-33.800270080566406,-55.30303955078125,-112.28234100341797,-16.62705421447754
0,1790290,45.796958923339844,89.77659606933594,133.59031677246094,11.533220291137695
0,1790291,20.194744110107422,48.58426284790039,181.41748046875,-10.713854789733887
0,1790294,-32.08940887451172,-69.14875793457031,-170.32826232910156,14.793424606323242
0,1790295,-24.472288131713867,-15.15927791595459,-89.25919342041016,13.075562477111816
0,1790298,5.2405219078063965,68.40023803710938,143.3482666015625,-26.085180282592773
0,1790299,-2.7262725830078125,-28.19148063659668,-0.5133421421051025,-16.941173553466797
0,1790302,4.726193904876709,-39.69889450073242,-51.73566436767578,18.227542877197266
0,1790303,19.162504196166992,53.10026168823242,21.528596878051758,35.54429626464844
0,1790306,-25.70510482788086,-17.0310115814209,-62.7186279296875,-0.605604887008667
0,1790307,12.072608947753906,-25.96713638305664,-103.41246795654297,-30.677614212036133
0,1790310,45.27307891845703,47.06664276123047,161.04208374023438,-8.400959014892578
0,1790311,-24.949655532836914,7.398941993713379,169.00230407714844,-9.32192325592041
0,1790314,-29.198148727416992,-44.603370666503906,-209.6909637451172,14.507551193237305
0,1790315,14.786971092224121,-24.60689926147461,-111.99197387695312,15.761048316955566
0,1790318,14.768815040588379,20.68398094177246,156.4893341064453,-18.616798400878906
0,1790319,2.1598169803619385,32.044795989990234,20.4974308013916,-14.162833213806152
0,1790322,-9.693910598754883,14.940409660339355,-6.423985004425049,31.456377029418945
0,1790323,18.58498191833496,-4.656351089477539,38.7874870300293,38.717899322509766
0,1790326,-6.98946475982666,-22.637557983398438,-103.50199127197266,-33.88098907470703
0,1790327,-44.703739166259766,-6.473214149475098,-86.51168060302734,-23.74626350402832
0,1790330,20.988534927368164,27.288150787353516,155.16586303710938,11.26740550994873
0,1790331,6.553560733795166,-8.075478553771973,113.35790252685547,-21.901960372924805
0,1790334,-5.8434343338012695,-57.141685485839844,-193.0614776611328,5.998239994049072
0,1790335,25.7211971282959,13.387436866760254,-93.72520446777344,41.537837982177734
0,1790338,-7.6178879737854,43.058189392089844,140.5225830078125,-32.64982223510742
0,1790339,-8.822181701660156,-6.1562933921813965,55.52761459350586,-24.694686889648438
0,1790342,14.762014389038086,5.61088228225708,12.900604248046875,47.368560791015625
0,1790343,-16.173782348632812,-27.8493595123291,-21.298856735229492,-13.288527488708496
0,1790346,-27.631196975708008,-14.768407821655273,-108.41817474365234,-38.31451416015625
0,1790347,11.11580753326416,20.043670654296875,-74.19684600830078,18.710857391357422
0,1790350,20.676647186279297,-0.8392897844314575,150.63523864746094,28.770029067993164
0,1790351,-11.024978637695312,35.045501708984375,178.08082580566406,5.47946310043335
0,1790354,-39.58863067626953,-32.753665924072266,-221.67828369140625,-12.420916557312012
0,1790355,19.05722427368164,-45.222129821777344,-130.54434204101562,-5.3469462394714355
0,1790358,51.380924224853516,60.05655288696289,166.2711181640625,12.575414657592773
0,1790359,-6.264302730560303,0.8693670630455017,20.584247589111328,-3.6898646354675293
0,1790362,-2.9244115352630615,-3.7507131099700928,-12.617355346679688,-26.602996826171875
0,1790363,-1.4675143957138062,36.413387298583984,21.822458267211914,-4.139354705810547
0,1790366,-31.086429595947266,-77.87103271484375,-73.70632934570312,27.49575424194336
0,1790367,14.624332427978516,-56.041255950927734,-70.41185760498047,20.45939064025879
0,1790370,23.025630950927734,81.42217254638672,135.7413330078125,-32.63132095336914
0,1790371,13.482001304626465,98.82173919677734,140.74400329589844,-3.6247735023498535
0,1790374,-11.010900497436523,-30.32151222229004,-207.39842224121094,54.9460334777832
0,1790375,-60.17391586303711,-77.59154510498047,-116.49239349365234,0.2999972403049469
0,1790378,30.23202133178711,27.82439422607422,169.68626403808594,-73.04020690917969
0,1790379,28.811058044433594,-14.02741813659668,38.44795227050781,-36.90399169921875
0,1790382,-33.960506439208984,-12.384248733520508,-14.180500030517578,82.80265808105469
0,1790383,19.408647537231445,68.37662506103516,19.904211044311523,34.127899169921875
0,1790386,-3.259754180908203,-26.656200408935547,-65.37001037597656,-72.79440307617188
0,1790387,-18.253568649291992,-74.75585174560547,-100.29022216796875,-20.298988342285156
0,1790390,-0.5079735517501831,35.794219970703125,106.30316162109375,57.13138961791992
0,1790391,-0.6630207300186157,47.40472412109375,154.74893188476562,10.836631774902344
0,1790394,24.960908889770508,-56.92576217651367,-193.08984375,-40.42209243774414
0,1790395,-11.63818645477295,-20.414371490478516,-114.0157241821289,5.2450480461120605
0,1790398,-21.56521224975586,47.9271240234375,165.6665802001953,20.366844177246094
0,1790399,9.861977577209473,-0.14713650941848755,37.313655853271484,-14.395812034606934
0,1790402,14.239997863769531,-2.252977132797241,-25.675687789916992,-21.38210105895996
0,1790403,21.784154891967773,17.0794734954834,6.453348636627197,9.545985221862793
0,1790406,-18.742202758789062,-8.47272777557373,-67.5873794555664,11.664634704589844
0,1790407,-16.69982147216797,-21.381357192993164,-78.61946868896484,0.8929585814476013
0,1790410,38.98252487182617,21.762380599975586,122.35060119628906,-11.229236602783203
0,1790411,9.28423023223877,32.403160095214844,142.10130310058594,-0.7181903719902039
0,1790414,-39.10419464111328,-63.94456481933594,-179.43539428710938,28.308561325073242
0,1790415,-22.646474838256836,-45.2851676940918,-97.3079605102539,15.49433708190918
0,1790418,18.80229377746582,45.501853942871094,141.14678955078125,-26.731739044189453
0,1790419,0.9229402542114258,44.61748504638672,36.3753776550293,-24.37378692626953
0,1790422,-6.747612476348877,18.345407485961914,-12.876995086669922,5.697206497192383
0,1790424,21.62799835205078,-22.014162063598633,3.064216136932373,28.705385208129883
0,1790426,-13.924039840698242,-27.449390411376953,-85.27520751953125,42.36891174316406
0,1790428,5.279297351837158,2.2308335304260254,-80.74818420410156,-17.531606674194336
0,1790430,30.355703353881836,21.432558059692383,148.1699981689453,-53.126747131347656
0,1790432,-30.882827758789062,17.332462310791016,132.84848022460938,-25.518875122070312
0,1790434,-35.6834831237793,-31.202777862548828,-201.74871826171875,23.138011932373047
0,1790436,38.972450256347656,-10.048213005065918,-88.38898468017578,44.54545974731445
0,1790437,27.645891189575195,29.170856475830078,171.4419708251953,-0.49067890644073486
0,1790440,-31.87654685974121,-37.704124450683594,-2.07145094871521,-46.91655731201172
0,1790441,15.1328125,-8.8158540725708,-66.95084381103516,-14.889086723327637
0,1790444,-1.1444779634475708,28.953855514526367,56.674232482910156,21.571630477905273
0,1790445,-42.79881286621094,-37.05373764038086,-45.42516326904297,7.466316223144531
0,1790448,5.902879238128662,-3.4637746810913086,-92.58663940429688,16.844289779663086
0,1790449,33.51552200317383,65.96287536621094,126.84626770019531,7.737615585327148
0,1790452,0.9867681860923767,17.736881256103516,128.10128784179688,-12.290179252624512
0,1790453,-25.9095516204834,-66.75398254394531,-105.6068115234375,-13.83395004272461
0,1790456,6.996439456939697,-31.534852981567383,-107.76686096191406,9.889554977416992
0,1790457,23.766321182250977,72.84468841552734,73.3153076171875,1.6152527332305908
0,1790460,11.753087043762207,45.10347366333008,40.06192398071289,-8.198223114013672
0,1790461,-9.188349723815918,-49.381256103515625,-45.81130599975586,6.866975784301758
0,1790464,-11.328519821166992,-32.744422912597656,27.36581039428711,-20.367422103881836
0,1790465,-12.855230331420898,-8.275923728942871,-56.04899978637695,8.711779594421387
0,1790468,-2.2677042484283447,-0.8452339172363281,-78.51029968261719,21.47096824645996
0,1790469,29.79161262512207,34.54186248779297,130.59075927734375,-13.884784698486328
0,1790472,-10.851151466369629,9.170920372009277,97.95211791992188,0.0017327782697975636
0,1790473,-31.71466827392578,-30.243663787841797,-105.08721923828125,-4.255944728851318
0,1790476,11.699006080627441,-6.359661102294922,-86.28871154785156,-22.327756881713867
0,1790477,18.361915588378906,20.201231002807617,57.35118103027344,19.134166717529297
0,1790480,-22.29833221435547,20.892358779907227,53.22613525390625,34.94824981689453
0,1790481,-31.098922729492188,-21.613872528076172,-58.439395904541016,-9.408744812011719
0,1790484,44.70573425292969,-22.66509437561035,16.625911712646484,-5.597426414489746
0,1790485,21.586936950683594,12.865131378173828,9.47150993347168,-11.596358299255371
0,1790488,-28.230257034301758,0.08860720694065094,-76.06319427490234,-24.463584899902344
0,1790489,34.23361587524414,55.18685531616211,109.68182373046875,12.641084671020508
0,1790494,-29.178552627563477,-39.49265670776367,-69.05657196044922,29.731372833251953
0,1790495,-44.53627395629883,-100.95428466796875,-194.38839721679688,8.209907531738281
0,1790496,66.54910278320312,100.60868072509766,193.01490783691406,-20.36333465576172
0,1790497,21.57715606689453,71.74635314941406,139.42581176757812,1.316008448600769
0,1790500,-37.6465950012207,-73.52151489257812,-46.42942428588867,-16.505306243896484
0,1790501,-21.142059326171875,-27.827882766723633,-20.508886337280273,-38.15062713623047
0,1790504,14.565656661987305,50.30510711669922,14.61056900024414,63.21147918701172
0,1790505,9.644068717956543,-12.63944149017334,-32.07991027832031,22.714082717895508
0,1790508,-16.99353790283203,-38.925018310546875,-48.37167739868164,-65.08987426757812
0,1790509,20.461095809936523,44.54730224609375,117.47570037841797,24.61249351501465
0,1790512,-13.514238357543945,1.9141250848770142,2.8688747882843018,4.5325469970703125
0,1790513,-10.203157424926758,-28.734588623046875,-110.63629150390625,-36.14906311035156
0,1790516,20.31730842590332,-14.835471153259277,-33.45379638671875,25.750585556030273
0,1790517,-22.30138397216797,-16.28668785095215,6.301309585571289,3.996840000152588
0,1790520,26.145313262939453,25.864118576049805,53.39363098144531,28.707258224487305
0,1790521,7.528947353363037,12.713115692138672,-6.279673099517822,18.062116622924805
0,1790524,-36.44648361206055,-20.85764503479004,-16.439167022705078,-46.32805252075195
0,1790525,-3.052734613418579,3.8128738403320312,-21.357263565063477,0.550386369228363
0,1790528,2.102971076965332,44.76322937011719,-27.829355239868164,21.34811782836914
0,1790529,42.13314437866211,22.356714248657227,122.4949951171875,-13.135703086853027
0,1790532,-1.5314768552780151,-42.845458984375,21.700424194335938,-28.019245147705078
0,1790533,-46.888980865478516,-31.925390243530273,-129.14585876464844,19.195810317993164
0,1790536,17.709035873413086,4.028933048248291,-12.528646469116211,18.63536262512207
0,1790537,15.335501670837402,6.560461044311523,47.09040832519531,-28.234230041503906
0,1790540,-3.975255250930786,24.645263671875,28.23638343811035,9.793498039245605
0,1790541,18.397258758544922,7.733051300048828,-3.836456775665283,36.097328186035156
0,1790544,-5.05392599105835,-15.017817497253418,4.768660068511963,-35.81373596191406
0,1790545,-38.35444259643555,-12.217460632324219,-40.46677017211914,-32.053436279296875
0,1790548,1.2039837837219238,-5.408511638641357,-42.40978240966797,39.39043045043945
0,1790549,47.7646484375,21.21687126159668,116.46621704101562,28.388948440551758
0,1790552,-4.1731672286987305,-12.32384967803955,27.491512298583984,-11.25121784210205
0,1790553,-31.781620025634766,-23.269594192504883,-105.83515167236328,-37.445621490478516
0,1790556,13.949564933776855,38.56611251831055,-30.64687156677246,0.2141226828098297
0,1790557,15.649243354797363,16.606189727783203,35.95429992675781,48.91890335083008
0,1790560,-24.198322296142578,-30.68053436279297,53.09135818481445,-10.617549896240234
0,1790561,-24.615266799926758,-13.164510726928711,0.3703000247478485,-59.04620361328125
0,1790564,9.488797187805176,22.511629104614258,-2.696213960647583,14.004868507385254
0,1790565,-4.137187957763672,-11.543021202087402,-71.07620239257812,31.902536392211914
0,1790568,25.04972267150879,-3.344207763671875,-34.3956184387207,5.27727746963501
0,1790569,42.21200942993164,62.86678695678711,165.1532745361328,12.679671287536621
0,1790572,-36.20210266113281,-24.225196838378906,1.6433638334274292,-27.927568435668945
0,1790573,-39.700347900390625,-68.1466064453125,-121.08778381347656,-39.76568603515625
0,1790576,3.2832119464874268,24.934778213500977,-10.768943786621094,20.535654067993164
0,1790577,19.391368865966797,37.9437370300293,41.70828628540039,30.149099349975586
0,1790580,18.851228713989258,-22.94829559326172,16.57973289489746,-14.28487777709961
0,1790581,-14.373289108276367,-18.709152221679688,-51.74449157714844,-17.905792236328125
0,1790584,-7.636991024017334,31.14742660522461,58.634586334228516,1.7877486944198608
0,1790585,-0.2107950747013092,-14.983671188354492,-15.080212593078613,36.0512580871582
0,1790588,14.498919486999512,-27.829116821289062,-85.5543212890625,19.877492904663086
0,1790589,48.44630813598633,61.838409423828125,133.5934600830078,-31.13260269165039
0,1790592,-28.20853614807129,-18.04409408569336,15.412527084350586,-17.42061424255371
0,1790593,-50.313331604003906,-52.21769332885742,-134.35952758789062,7.663646221160889
0,1790596,6.589386463165283,44.03434753417969,-15.214133262634277,0.1735784411430359
0,1790597,29.044050216674805,18.39533233642578,56.971832275390625,2.756229877471924
0,1790600,19.828182220458984,10.9865140914917,80.15245819091797,20.03692054748535
0,1790601,-24.749170303344727,-26.70395851135254,3.965853452682495,5.759359836578369
0,1790604,14.37582778930664,-33.25775909423828,-29.605731964111328,-25.11115837097168
0,1790605,-10.074226379394531,-3.5327982902526855,-75.02848815917969,-11.364787101745605
0,1790608,-45.02940368652344,4.677109718322754,-56.82017517089844,28.359405517578125
0,1790609,42.38741683959961,32.622581481933594,156.3771514892578,-18.411239624023438
0,1790612,11.165922164916992,-22.91709327697754,28.841392517089844,-30.484142303466797
0,1790613,-34.56745910644531,-11.565357208251953,-142.36087036132812,31.9011173248291
0,1790616,16.780498504638672,30.266590118408203,-19.163070678710938,15.286563873291016
0,1790617,-1.706760048866272,5.36337947845459,51.1813850402832,8.271112442016602
0,1790620,-14.98731517791748,-12.052730560302734,50.06913375854492,-3.197209596633911
0,1790621,16.941585540771484,-7.087295055389404,12.53073787689209,-30.404211044311523
0,1790624,1.3284530639648438,-12.777012825012207,1.2420048713684082,2.309126377105713
0,1790625,-12.7040433883667,7.375559329986572,-68.36163330078125,9.817606925964355
0,1790628,13.523846626281738,40.10572052001953,-37.409114837646484,-7.20780086517334
0,1790629,35.69914245605469,6.791430950164795,122.46558380126953,-16.856197357177734
0,1790632,-36.052818298339844,-26.6358585357666,16.998567581176758,-1.653249740600586
0,1790633,-25.16252326965332,-9.052291870117188,-103.81895446777344,57.49239730834961
0,1790636,27.032033920288086,-14.992228507995605,-67.8331527709961,40.088111877441406
0,1790637,-14.14101505279541,-42.65064239501953,48.95808410644531,-71.8603744506836
0,1790640,52.38180923461914,32.64593505859375,105.70137786865234,-49.26472091674805
0,1790641,10.926462173461914,64.09125518798828,-36.964630126953125,42.578365325927734
0,1790644,-57.70055389404297,0.42906057834625244,-21.371198654174805,0.33892855048179626
0,1790645,-13.259188652038574,-48.17000198364258,-25.319137573242188,-11.094182014465332
0,1790648,-9.802864074707031,9.133245468139648,-26.8515625,28.217872619628906
0,1790649,39.74974060058594,67.37696838378906,151.84954833984375,23.72918701171875
0,1790652,-10.561254501342773,-69.28695678710938,-17.782949447631836,-26.562715530395508
0,1790653,-43.31495666503906,-67.65796661376953,-148.52420043945312,-20.775524139404297
0,1790656,36.48670196533203,99.91543579101562,14.499553680419922,23.370807647705078
0,1790657,13.086142539978027,26.059711456298828,57.57450866699219,-18.27052879333496
0,1790660,-2.6564114093780518,-72.95726013183594,41.9828987121582,-8.052973747253418
0,1790661,4.899516582489014,13.401155471801758,-25.654695510864258,12.526206016540527
0,1790664,-22.568214416503906,4.84810733795166,-6.846917629241943,-1.6344783306121826
0,1790665,-13.059296607971191,-40.68663787841797,-31.18765640258789,5.296838760375977
0,1790668,47.42197799682617,23.818979263305664,-45.1494140625,-2.9462080001831055
0,1790669,32.72242736816406,40.368560791015625,141.98886108398438,14.928808212280273
0,1790672,-65.41508483886719,-13.702220916748047,9.379980087280273,-5.727017402648926
0,1790673,-25.007892608642578,8.715435028076172,-137.85533142089844,-17.626388549804688
0,1790676,34.900054931640625,-1.8094323873519897,-12.20537281036377,16.44276237487793
0,1790677,3.2558748722076416,-43.9248046875,53.634456634521484,-18.19533920288086
0,1790680,9.812692642211914,8.197114944458008,59.02039337158203,8.949841499328613
0,1790681,-5.440370082855225,2.3241775035858154,-42.06542205810547,30.853145599365234
0,1790684,-22.843767166137695,9.510740280151367,-9.094035148620605,-2.85286808013916
0,1790685,-3.001448154449463,11.68496322631836,-34.290164947509766,6.207054138183594
0,1790688,16.73077392578125,-23.42207908630371,-65.81745147705078,-32.56879425048828
0,1790689,46.324012756347656,31.018566131591797,152.68240356445312,-38.16437911987305
0,1790692,-40.00517272949219,-18.075223922729492,26.557435989379883,27.269908905029297
0,1790693,-56.567466735839844,-22.223299026489258,-124.00162506103516,35.176334381103516
0,1790696,59.892059326171875,63.399173736572266,-15.437002182006836,6.915097236633301
0,1790697,28.995506286621094,-11.855534553527832,40.61664962768555,-13.663460731506348
0,1790700,-13.881701469421387,-19.53233528137207,64.44471740722656,-52.18096923828125
0,1790702,0.46027907729148865,14.83077335357666,0.2406543791294098,-0.9461650848388672
0,1790704,-3.1306350231170654,2.7160069942474365,-19.895143508911133,58.40734100341797
0,1790706,-44.027408599853516,-29.592283248901367,-71.14334869384766,0.8407363295555115
0,1790708,-14.927842140197754,-36.89275360107422,-20.946931838989258,-33.62062454223633
0,1790710,50.899085998535156,47.99652862548828,149.3370361328125,-22.71394920349121
0,1790712,-15.18896484375,7.525303840637207,-43.74055099487305,5.686120510101318
0,1790714,-18.31847381591797,-28.672348022460938,-121.3656005859375,32.566490173339844
1,1790715,26.933063507080078,31.22245216369629,69.72720336914062,9.865995407104492
1,1790718,15.745745658874512,5.274361610412598,48.796142578125,-19.133285522460938
1,1790719,-6.396373748779297,-31.296106338500977,-18.572179794311523,-14.44072437286377
1,1790722,-22.084495544433594,-5.628820896148682,3.5557188987731934,21.417037963867188
1,1790723,0.5739441514015198,19.53500747680664,-10.567795753479004,25.357101440429688
1,1790726,-5.7362775802612305,-15.482748031616211,-77.82476043701172,-1.298856496810913
1,1790727,-30.009239196777344,-32.6621208190918,-103.22259521484375,-23.147531509399414
1,1790730,45.10379409790039,63.700157165527344,151.77105712890625,-12.778923034667969
1,1790731,77.84725952148438,64.19329071044922,245.04415893554688,48.99789047241211
1,1790734,-48.848388671875,-78.08815002441406,-186.45199584960938,-12.019140243530273
1,1790735,-44.335174560546875,-45.9598274230957,-150.23455810546875,-66.45941925048828
1,1790738,21.88060760498047,62.74551010131836,141.14791870117188,41.238582611083984
1,1790739,-32.959205627441406,-4.064069747924805,12.315778732299805,31.356287002563477
1,1790742,9.701140403747559,8.693672180175781,3.1927759647369385,-43.23597717285156
1,1790743,34.604801177978516,39.02280044555664,18.28530502319336,-4.002089977264404
1,1790746,-32.009727478027344,-62.1882209777832,-122.94589233398438,1.9088135957717896
1,1790747,7.960343360900879,-62.085636138916016,-126.51087188720703,-5.67047119140625
1,1790750,26.47747039794922,17.990047454833984,170.31393432617188,15.935904502868652
1,1790751,-19.68392562866211,70.20074462890625,238.1717987060547,11.116854667663574
1,1790754,-33.25838851928711,-28.271778106689453,-216.17340087890625,11.029168128967285
1,1790755,-2.358264207839966,-49.95576858520508,-179.02328491210938,-15.695847511291504
1,1790760,58.70781326293945,65.16384887695312,143.90797424316406,6.7643351554870605
1,1790760,16.317163467407227,10.51797866821289,58.144657135009766,20.76097297668457
1,1790761,-55.157772064208984,-39.71879196166992,3.6313838958740234,-41.67354965209961
1,1790764,-22.46112632751465,9.630002975463867,1.47393798828125,1.6588404178619385
1,1790765,1.7332719564437866,10.339133262634277,-95.66964721679688,5.016428470611572
1,1790768,23.398557662963867,-34.938846588134766,-23.764328002929688,-43.276248931884766
1,1790769,38.598182678222656,27.71689796447754,167.47398376464844,22.25881576538086
1,1790772,-19.899789810180664,36.48153305053711,26.797529220581055,45.27280044555664
1,1790773,-9.839299201965332,-53.43347930908203,-128.77804565429688,-12.59418773651123
1,1790776,9.627107620239258,-2.231863021850586,-61.14877700805664,-35.878238677978516
1,1790777,-25.932682037353516,43.56654739379883,42.20095443725586,2.776308059692383
1,1790780,6.083739757537842,0.062107473611831665,103.44298553466797,22.655630111694336
1,1790781,19.188074111938477,-17.64669418334961,-24.717754364013672,14.303619384765625
1,1790784,3.614561080932617,11.971758842468262,-12.898420333862305,28.390127182006836
1,1790785,5.35835599899292,-28.326271057128906,-28.463621139526367,5.826467037200928
1,1790788,3.5808298587799072,-10.79537582397461,-89.59812927246094,-54.477294921875
1,1790789,10.81359577178955,47.36912155151367,120.82201385498047,-32.87447738647461
1,1790792,-20.27800750732422,-22.57518768310547,58.32804870605469,38.346641540527344
1,1790793,-34.492977142333984,-1.7477657794952393,-98.87748718261719,28.492252349853516
1,1790796,-2.808136224746704,3.932983160018921,-31.250144958496094,-41.03807067871094
1,1790797,8.052242279052734,-43.812435150146484,6.974886894226074,-2.400322437286377
1,1790800,22.076595306396484,20.133995056152344,25.17547607421875,26.071474075317383
1,1790801,24.653310775756836,20.37595558166504,2.8781087398529053,-25.763761520385742
1,1790804,4.507601261138916,18.304697036743164,49.02503967285156,14.64151382446289
1,1790805,-18.96075439453125,3.313718795776367,-42.26124954223633,13.234881401062012
1,1790808,-13.935672760009766,-42.42367935180664,-101.27928924560547,-11.398361206054688
1,1790809,11.277544975280762,25.451004028320312,139.58261108398438,23.655872344970703
1,1790812,-29.11034393310547,10.3903169631958,57.16029357910156,-19.559457778930664
1,1790813,-20.010787963867188,-21.159862518310547,-129.5656280517578,-33.719783782958984
1,1790816,42.34679412841797,9.416625022888184,-27.931020736694336,38.99117660522461
1,1790817,23.055912017822266,-12.551979064941406,60.16024398803711,38.90618896484375
1,1790820,-15.731094360351562,14.881645202636719,39.68568420410156,-45.063751220703125
1,1790821,-16.729778289794922,29.929189682006836,-25.259092330932617,-51.47240447998047
1,1790824,2.777431011199951,-55.08684539794922,7.053756237030029,57.14076614379883
1,1790825,-7.262958526611328,-18.641874313354492,-34.35988235473633,28.408552169799805
1,1790828,-6.048647403717041,52.20315933227539,-40.03886413574219,-29.612781524658203
1,1790829,43.75034713745117,11.450475692749023,114.31403350830078,-0.5183438062667847
1,1790832,-13.941899299621582,-9.192154884338379,-5.37362813949585,-11.505568504333496
1,1790833,-60.30591583251953,-12.850973129272461,-108.52953338623047,-0.35923001170158386
1,1790836,43.399017333984375,-2.268449068069458,-7.522003650665283,-2.914083480834961
1,1790837,37.23625564575195,0.23297284543514252,73.88174438476562,-10.51858139038086
1,1790840,-30.841238021850586,-7.894146919250488,44.06344985961914,8.680036544799805
1,1790841,-10.501490592956543,5.999142169952393,-72.31126403808594,36.2717399597168
1,1790844,-2.0513172149658203,35.3487663269043,26.0770206451416,-2.8517324924468994
1,1790845,-12.082786560058594,-25.322467803955078,-17.196693420410156,-51.093746185302734
1,1790848,26.922100067138672,-47.491390228271484,-86.46199798583984,24.954130172729492
1,1790849,31.27008628845215,26.53644561767578,119.15702819824219,38.51101303100586
1,1790852,-38.02395248413086,13.987950325012207,48.92650604248047,-33.95670700073242
1,1790853,-18.89406967163086,-3.0064163208007812,-86.95243835449219,-12.323575019836426
1,1790856,24.969520568847656,10.250140190124512,-35.96675491333008,14.300951957702637
1,1790857,2.65582013130188,-1.7470672130584717,35.67500305175781,4.413803577423096
1,1790860,4.491113662719727,-3.8088390827178955,62.6623649597168,14.873056411743164
1,1790861,-19.25065803527832,-10.47158145904541,-28.492033004760742,-40.34527587890625
1,1790864,-31.027875900268555,-36.078548431396484,-7.112233638763428,-36.51605987548828
1,1790865,25.819238662719727,21.677677154541016,-22.71744728088379,57.38063049316406
1,1790868,30.265356063842773,50.77268981933594,-50.63400650024414,23.54984474182129
1,1790869,10.015493392944336,-7.250087261199951,114.33660888671875,-33.995418548583984
1,1790872,-22.788761138916016,-36.32078170776367,7.312889575958252,-28.863269805908203
1,1790873,-35.768150329589844,-26.995885848999023,-126.25286102294922,3.2132232189178467
1,1790876,27.272647857666016,25.059293746948242,15.000218391418457,43.467445373535156
1,1790877,27.2353572845459,29.003080368041992,55.23398971557617,27.03543472290039
1,1790880,-22.623376846313477,9.334198951721191,26.914936065673828,-8.692859649658203
1,1790881,-6.845221042633057,-18.008869171142578,-18.442079544067383,-30.281444549560547
1,1790884,9.931411743164062,-11.290903091430664,4.824412822723389,-9.265768051147461
1,1790885,-8.82485580444336,10.432615280151367,-48.97861099243164,15.149121284484863
1,1790888,-8.221319198608398,-30.028961181640625,-77.67776489257812,4.913581848144531
1,1790889,24.423250198364258,27.288986206054688,145.09747314453125,-6.874081134796143
1,1790892,19.96703338623047,21.384565353393555,67.62128448486328,8.099447250366211
1,1790893,-32.187705993652344,-37.66774368286133,-119.55311584472656,0.6886764168739319
1,1790896,-16.675926208496094,5.066921710968018,-38.56342697143555,-18.03819465637207
1,1790897,8.738719940185547,22.576419830322266,37.318939208984375,4.925841331481934
1,1790900,7.416239261627197,3.4077072143554688,22.88337516784668,2.4659290313720703
1,1790901,8.546014785766602,-43.822025299072266,-1.574256181716919,-8.414207458496094
1,1790904,-14.084284782409668,16.001008987426758,25.137775421142578,2.96364688873291
1,1790905,0.10611073672771454,24.646215438842773,-57.73674392700195,6.146401882171631
1,1790908,32.438880920410156,-15.017284393310547,-51.15069580078125,-24.003873825073242
1,1790909,-4.22298526763916,47.25660705566406,148.89654541015625,15.090777397155762
1,1790912,-39.620052337646484,-20.382619857788086,26.996118545532227,53.2351188659668
1,1790913,-5.8131256103515625,-44.43762969970703,-140.82711791992188,-38.21491622924805
1,1790916,2.3158557415008545,4.1851677894592285,-24.14628028869629,-42.799285888671875
1,1790917,28.874101638793945,1.5202744007110596,65.58785247802734,29.985069274902344
1,1790920,29.288808822631836,28.044286727905273,46.73152542114258,16.880048751831055
1,1790921,-37.318397521972656,-21.33762550354004,-33.62479782104492,-14.322478294372559
1,1790924,4.9884233474731445,-15.218677520751953,0.47553208470344543,0.06770079582929611
1,1790925,0.3185812532901764,28.747121810913086,-43.636024475097656,-14.699838638305664
1,1790928,-17.95722198486328,3.5856854915618896,-67.63317108154297,24.515989303588867
1,1790929,52.91621017456055,19.321657180786133,177.28607177734375,38.22555923461914
1,1790932,-18.365854263305664,-17.975881576538086,45.1467170715332,-56.74135208129883
1,1790933,-56.90296173095703,-20.905075073242188,-169.63536071777344,8.373069763183594
1,1790936,14.604249000549316,2.9355876445770264,-29.747068405151367,33.59934616088867
1,1790937,14.090455055236816,9.417696952819824,47.10916519165039,-30.5170841217041
1,1790940,7.988907337188721,5.579836368560791,54.03219223022461,-13.911704063415527
1,1790941,-0.8534203767776489,-37.78271484375,6.786463737487793,19.180538177490234
1,1790944,-34.91108703613281,4.355099678039551,-23.592315673828125,11.670944213867188
1,1790945,-9.380462646484375,35.307594299316406,-37.22446060180664,-9.173093795776367
1,1790948,66.41805267333984,2.503960609436035,-19.451242446899414,-0.24766910076141357
1,1790949,23.73491668701172,-4.828629493713379,96.6192855834961,-34.21541976928711
1,1790952,-48.53800964355469,7.399681568145752,35.75115966796875,-0.02804555557668209
1,1790953,-21.056182861328125,-34.658714294433594,-131.71121215820312,47.295562744140625
1,1790956,8.042220115661621,-43.56988525390625,-76.72400665283203,2.9844324588775635
1,1790957,59.7338752746582,48.129093170166016,115.86775207519531,-12.890103340148926
1,1790960,11.4231595993042,59.464210510253906,100.05206298828125,-15.962157249450684
1,1790961,-50.556095123291016,-11.251852989196777,-36.151485443115234,-20.61208152770996
1,1790964,-16.035371780395508,-36.67626190185547,-14.246335983276367,17.150209426879883
1,1790965,-16.56568717956543,-27.232036590576172,-75.96466827392578,22.370519638061523
1,1790968,27.111804962158203,24.284133911132812,-44.692134857177734,-12.304829597473145
1,1790969,27.704683303833008,48.228050231933594,133.92051696777344,-15.659967422485352
1,1790972,-52.181339263916016,-42.18817138671875,-10.347840309143066,15.569168090820312
1,1790973,-7.260885238647461,-33.491390228271484,-109.08572387695312,5.761354923248291
1,1790976,58.59275436401367,32.82772445678711,12.832414627075195,-24.409683227539062
1,1790977,-8.421396255493164,-6.393027305603027,46.64459228515625,14.371788024902344
1,1790980,-10.809085845947266,33.0060920715332,36.12824249267578,14.859003067016602
1,1790981,4.377816677093506,15.501933097839355,-9.03763484954834,-27.26344108581543
1,1791236,-2.5794477462768555,-21.71488380432129,143.3400421142578,12.793268203735352
1,1791239,-23.54759407043457,-11.547504425048828,102.46849822998047,14.133379936218262
1,1791240,-80.44302368164062,-72.89157104492188,-346.2535400390625,-8.27136516571045
1,1791243,21.949636459350586,-6.431336879730225,-314.7676086425781,14.479113578796387
1,1791244,63.139366149902344,43.89149856567383,73.0101547241211,-21.48260498046875
1,1791247,36.82159423828125,22.8530330657959,180.89805603027344,-27.8463077545166
1,1791248,42.922542572021484,22.614273071289062,119.9033432006836,24.87527847290039
1,1791251,-17.777442932128906,29.318500518798828,203.2484588623047,30.68412208557129
1,1791255,-9.369885444641113,34.01071548461914,149.18496704101562,-10.951757431030273
1,1791255,-11.831374168395996,-49.75304412841797,-130.92494201660156,-15.25361442565918
1,1791256,-23.260141372680664,-32.23356628417969,-102.46222686767578,12.220600128173828
1,1791259,-16.58945655822754,19.104019165039062,31.614280700683594,-12.428034782409668
1,1791260,-37.51089096069336,-27.182933807373047,-135.81277465820312,-16.065637588500977
1,1791263,-2.5142881870269775,-63.768211364746094,-255.41354370117188,38.172950744628906
1,1791264,33.34202575683594,-14.532283782958984,-41.677066802978516,-4.474557876586914
1,1791267,59.554386138916016,73.08612823486328,156.23463439941406,-19.915157318115234
1,1791268,-3.6383864879608154,25.549299240112305,126.0484390258789,36.679752349853516
1,1791271,-57.50392150878906,14.797876358032227,128.36517333984375,-36.59555435180664
1,1791272,5.006919860839844,0.4148250222206116,49.43866729736328,-19.956632614135742
1,1791275,3.4242300987243652,-35.85526657104492,-105.54226684570312,40.53176498413086
1,1791276,21.446922302246094,49.234580993652344,-18.64112663269043,-17.973773956298828
1,1791279,-1.9454615116119385,15.471027374267578,84.32299041748047,-19.329174041748047
1,1791280,-62.37430191040039,-74.50425720214844,-57.219505310058594,6.8216094970703125
1,1791283,5.117802619934082,-41.8287239074707,-218.7554931640625,10.32893180847168
1,1791284,62.884925842285156,33.16292953491211,-67.47899627685547,2.129469633102417
1,1791287,9.72196102142334,9.978404998779297,135.4239501953125,1.522045612335205
1,1791288,-47.04214096069336,-5.253849983215332,100.7657470703125,16.739948272705078
1,1791291,29.53650665283203,57.773311614990234,94.8094711303711,-1.0515912771224976
1,1791292,25.87761116027832,20.5225887298584,19.120864868164062,-24.17162322998047
1,1791295,-51.708580017089844,-47.32722091674805,-114.02690124511719,-0.5817163586616516
1,1791296,19.241270065307617,-17.27089500427246,-9.953426361083984,6.559084415435791
1,1791299,21.66223907470703,56.073768615722656,113.86636352539062,-12.459968566894531
1,1791300,-41.15279006958008,-8.69786262512207,-39.422969818115234,21.08010482788086
1,1791303,-12.863663673400879,-125.48085021972656,-238.07025146484375,32.960575103759766
1,1791304,18.714427947998047,-21.34726905822754,-31.913196563720703,-17.261693954467773
1,1791307,27.1719913482666,121.52361297607422,187.56825256347656,-17.912006378173828
1,1791308,3.638579845428467,17.856529235839844,26.872034072875977,-6.834660530090332
1,1791311,-8.581473350524902,-45.308494567871094,24.49504280090332,-16.909862518310547
1,1791312,-6.56117582321167,38.90126419067383,50.987953186035156,10.147093772888184
1,1791315,-2.4601809978485107,-14.540289878845215,-125.6452865600586,0.21795564889907837
1,1791316,29.688453674316406,-20.674808502197266,17.85076332092285,1.7169532775878906
1,1791319,-19.831193923950195,41.8986701965332,143.4436798095703,13.93941879272461
1,1791320,-33.50288391113281,-17.59028434753418,-65.80255126953125,-23.348308563232422
1,1791323,26.4310302734375,-34.15129470825195,-169.83224487304688,14.181070327758789
1,1791324,-13.294585227966309,26.80863380432129,0.6928375363349915,27.300369262695312
1,1791327,-9.262749671936035,11.277813911437988,99.19408416748047,-36.043556213378906
1,1791328,26.140756607055664,-28.429584503173828,7.061042785644531,-3.0434536933898926
1,1791331,11.511381149291992,17.592308044433594,70.3765869140625,39.26905822753906
1,1791332,-5.429386138916016,8.950626373291016,11.013399124145508,2.787597179412842
1,1791335,-38.66046905517578,-35.79191589355469,-152.46055603027344,-11.282478332519531
1,1791336,-13.930453300476074,-9.616909980773926,9.584243774414062,-12.807631492614746
1,1791339,39.93274688720703,17.483461380004883,153.43450927734375,-11.07106876373291
1,1791340,21.14212417602539,16.761098861694336,-7.282810211181641,25.591745376586914
1,1791343,-31.291223526000977,-7.184680461883545,-197.3126983642578,-11.012234687805176
1,1791344,-15.460480690002441,-6.681839466094971,-26.342674255371094,-35.9475212097168
1,1791347,42.63556671142578,10.676522254943848,155.8367919921875,20.733322143554688
1,1791348,19.190706253051758,6.210538864135742,16.242734909057617,15.244097709655762
1,1791351,-40.51346206665039,19.864526748657227,26.780683517456055,-0.5566307306289673
1,1791352,-24.172292709350586,-3.6830341815948486,-8.78084945678711,-16.199260711669922
1,1791355,15.708440780639648,-40.769798278808594,-143.648681640625,9.00633716583252
1,1791356,25.929969787597656,16.050031661987305,44.441829681396484,31.426307678222656
1,1791359,-1.0973057746887207,15.909387588500977,152.00685119628906,-34.02206802368164
1,1791360,-24.72078514099121,-41.482444763183594,-45.43033981323242,-5.8218770027160645
1,1791363,-22.16445541381836,-30.6046199798584,-178.994140625,18.43794059753418
1,1791364,24.550508499145508,46.69575119018555,16.589170455932617,-5.615232467651367
1,1791367,52.35342025756836,56.12582015991211,127.84439849853516,21.34976577758789
1,1791368,-10.160922050476074,-40.02876281738281,-21.212661743164062,-15.247458457946777
1,1791371,-16.74257469177246,-4.7965264320373535,49.399410247802734,-20.087657928466797
1,1791372,-8.470681190490723,20.88465690612793,14.949692726135254,22.02012825012207
1,1791375,-26.183452606201172,-44.36753463745117,-135.5556182861328,-7.494714260101318
1,1791376,5.087644577026367,22.7100772857666,34.96609115600586,-26.302082061767578
1,1791379,0.4142797589302063,35.28694152832031,130.6851043701172,2.8319106101989746
1,1791380,3.0951969623565674,-35.43798828125,-11.447225570678711,23.01844024658203
1,1791383,7.059898853302002,7.750743865966797,-158.38525390625,0.6457543969154358
1,1791384,-15.50784969329834,3.1974833011627197,-41.60939407348633,-12.114246368408203
1,1791387,1.2608723640441895,-22.320905685424805,152.07583618164062,17.206769943237305
1,1791388,14.67287826538086,7.601194858551025,16.8924560546875,-17.493206024169922
1,1791391,16.093826293945312,-0.4267570376396179,-40.93999099731445,-20.728565216064453
1,1791392,-15.788331031799316,14.90353775024414,21.252750396728516,24.61669158935547
1,1791395,-25.47679901123047,-12.581404685974121,-105.02831268310547,-9.233227729797363
1,1791396,29.263866424560547,-5.98969030380249,9.430575370788574,7.26248025894165
1,1791399,23.28313636779785,39.44709777832031,168.12648010253906,42.51154708862305
1,1791400,-7.448552131652832,-19.289886474609375,-52.83039093017578,-10.70964527130127
1,1791403,4.027406215667725,-24.96883773803711,-140.03890991210938,-20.764785766601562
1,1791404,-17.80943489074707,-25.735252380371094,12.298816680908203,0.5568327307701111
1,1791407,-14.188364028930664,-6.154223442077637,77.39081573486328,-4.655582427978516
1,1791408,7.207403182983398,37.11666488647461,11.695669174194336,-3.9758553504943848
1,1791411,27.69786262512207,38.9438362121582,50.171627044677734,0.5507504940032959
1,1791412,5.594630718231201,-2.675262689590454,10.14956283569336,38.41899108886719
1,1791415,-50.655113220214844,-72.89012908935547,-174.82565307617188,0.8144364953041077
1,1791416,11.63578987121582,-6.429866313934326,4.777621746063232,-34.71508026123047
1,1791419,21.743534088134766,68.53459930419922,181.50534057617188,-4.120333671569824
1,1791420,-29.38802146911621,24.767160415649414,-6.567925453186035,-12.884612083435059
1,1791423,-8.302416801452637,-44.7646484375,-171.4555206298828,-16.121212005615234
1,1791424,14.622801780700684,-27.52779769897461,8.979808807373047,4.562224864959717
1,1791427,8.513607025146484,43.0904655456543,129.79888916015625,48.666595458984375
1,1791428,-1.7727779150009155,29.21147918701172,-45.07605743408203,18.52326011657715
1,1791431,0.4806268811225891,-3.970686197280884,13.649298667907715,-64.1945571899414
1,1791432,3.920241117477417,-31.652441024780273,15.372794151306152,-18.70502281188965
1,1791435,5.173064708709717,-41.572776794433594,-129.6110382080078,73.59493255615234
1,1791436,-2.9156720638275146,33.54072570800781,6.79325532913208,12.951324462890625
1,1791439,1.3663731813430786,27.04935073852539,147.50770568847656,-67.68241882324219
1,1791440,-1.7183661460876465,-25.53118324279785,34.711326599121094,11.98022174835205
1,1791443,-24.280345916748047,-24.70256996154785,-134.9014892578125,-24.592689514160156
1,1791444,2.8332245349884033,-8.677809715270996,-35.96183395385742,-5.789599895477295
1,1791447,36.3940315246582,37.96902084350586,108.60938262939453,170.7127227783203
1,1791448,-2.221365451812744,22.053848266601562,1.3239065408706665,-73.30223846435547
1,1791451,-6.846165657043457,-26.60942268371582,15.653076171875,-199.83631896972656
1,1791452,-21.194650650024414,-23.65377426147461,12.956591606140137,104.53541564941406
1,1791455,-40.07294464111328,1.3260161876678467,-136.44131469726562,119.90605926513672
1,1791456,53.94526290893555,54.05873489379883,34.055145263671875,-41.373870849609375
1,1791459,23.411579132080078,-5.218371868133545,126.08931732177734,-74.267578125
1,1791460,-60.8941535949707,-48.27876663208008,-40.72446823120117,-0.6064297556877136
1,1791463,28.35419464111328,8.423648834228516,-103.18299102783203,81.64745330810547
1,1791464,41.131614685058594,-23.263710021972656,0.08712819218635559,-2.8393714427948
1,1791467,-29.90623664855957,19.97452163696289,75.91896057128906,-66.13915252685547
1,1791468,2.4797749519348145,37.227691650390625,-13.69221305847168,22.40212059020996
1,1791471,-6.696669578552246,-12.032941818237305,35.359962463378906,24.636009216308594
1,1791472,-27.710899353027344,13.72581958770752,-3.5474600791931152,-18.587902069091797
1,1791475,15.861775398254395,-16.863027572631836,-110.96883392333984,-16.049606323242188
1,1791476,71.67289733886719,-34.80238723754883,48.528358459472656,12.86988353729248
1,1791479,-1.4802424907684326,31.927648544311523,122.64224243164062,0.14357849955558777
1,1792131,-104.31085968017578,22.55267333984375,-55.48438262939453,-27.386322021484375
1,1792134,47.464176177978516,-17.92360496520996,-135.21575927734375,13.421487808227539
1,1792135,40.60221481323242,-5.08144474029541,38.322509765625,24.23203468322754
1,1792140,-61.31829071044922,-15.543905258178711,109.58370971679688,5.964452266693115
1,1792140,18.805727005004883,-4.714617729187012,27.494670867919922,-46.59335708618164
1,1792141,-4.987756252288818,35.35641098022461,-30.846267700195312,13.026540756225586
1,1792144,-8.708160400390625,5.460576057434082,-83.60519409179688,41.378013610839844
1,1792145,6.699563026428223,-45.11715316772461,-96.26500701904297,-24.37449836730957
1,1792148,12.763422012329102,22.5642147064209,119.41020202636719,4.877032279968262
1,1792149,47.758323669433594,39.342201232910156,183.23635864257812,15.398438453674316
1,1792152,-41.9227294921875,-48.4415283203125,-175.9680938720703,14.840538024902344
1,1792153,-58.093299865722656,-22.169986724853516,-127.77678680419922,-10.915501594543457
1,1792156,20.318340301513672,28.83051300048828,131.9713134765625,-20.614702224731445
1,1792157,29.75798225402832,29.575162887573242,39.52315139770508,1.5539588928222656
1,1792160,14.181639671325684,-12.086111068725586,-6.3557963371276855,-32.83955001831055
1,1792161,-7.08061408996582,-31.017961502075195,25.44614601135254,-18.847496032714844
1,1792164,-33.278221130371094,14.715851783752441,-56.65408706665039,34.32946014404297
1,1792165,-9.04185962677002,-27.881975173950195,-113.03829193115234,27.206762313842773
1,1792168,52.51955032348633,-7.264991760253906,126.05120849609375,-3.585209846496582
1,1792169,17.866289138793945,78.02226257324219,174.0148468017578,-5.134979248046875
1,1792172,-63.5810661315918,-25.95398712158203,-204.23690795898438,-1.4787256717681885
1,1792173,-8.1425199508667,-62.91802215576172,-136.65980529785156,8.43614673614502
1,1792176,52.12046432495117,20.940597534179688,112.33550262451172,-14.957403182983398
1,1792177,-14.507026672363281,0.929024338722229,35.27051544189453,-28.686376571655273
1,1792180,-4.248445987701416,16.44314956665039,24.985389709472656,15.463460922241211
1,1792181,11.23963451385498,38.178245544433594,39.257198333740234,13.415850639343262
1,1792184,-56.58761215209961,-20.54994773864746,-46.5999755859375,21.500307083129883
1,1792185,-6.573261260986328,-49.131099700927734,-142.85345458984375,3.530050039291382
1,1792188,72.45243072509766,33.037071228027344,114.4582290649414,-19.134326934814453
1,1792189,32.11424255371094,80.33491516113281,237.5592041015625,14.138718605041504
1,1792192,-41.012332916259766,-31.827985763549805,-180.1036376953125,25.218067169189453
1,1792193,-36.82822036743164,-59.442386627197266,-254.15606689453125,-68.6557388305664
1,1792196,22.65085220336914,2.8580901622772217,91.673583984375,-51.545806884765625
1,1792197,-2.017540454864502,6.404109477996826,189.9998779296875,64.0216293334961
1,1792200,7.371564865112305,24.72925567626953,11.101421356201172,44.377132415771484
1,1792201,30.911277770996094,29.344606399536133,-26.91689682006836,8.956905364990234
1,1792204,-28.646038055419922,-48.63027572631836,-53.49028396606445,-44.258609771728516
1,1792205,-22.26346206665039,-57.245094299316406,-130.51832580566406,-19.519439697265625
1,1792208,5.187328815460205,22.842313766479492,135.74449157714844,2.6891915798187256
1,1792209,34.13691711425781,53.70956802368164,241.8641357421875,-0.7464993000030518
1,1792212,60.00812911987305,25.953357696533203,-191.50962829589844,0.027329185977578163
1,1792213,16.117595672607422,-29.955711364746094,-183.65072631835938,2.936293840408325
1,1792216,-107.07012176513672,-43.57320022583008,106.85485076904297,49.076812744140625
1,1792217,-77.79712677001953,12.299027442932129,6.286290168762207,-0.6690409779548645
1,1792220,96.36974334716797,67.75724792480469,17.162702560424805,-23.045642852783203
1,1792221,39.79448318481445,-6.303578853607178,35.24053192138672,-15.47327995300293
1,1792224,-54.21773147583008,-50.96691131591797,-74.2969970703125,5.67310905456543
1,1792225,-32.93938064575195,-23.7927303314209,-97.64376831054688,3.9256467819213867
1,1792228,-5.165398120880127,-8.253975868225098,101.45457458496094,-21.757238388061523
1,1792229,41.41643524169922,48.97393035888672,205.00753784179688,23.88530731201172
1,1792232,-21.24240493774414,4.9166460037231445,-143.38226318359375,15.129484176635742
1,1792233,-42.842308044433594,-49.11494064331055,-156.71844482421875,-11.563956260681152
1,1792236,60.26983642578125,38.71624755859375,111.9021987915039,-5.167847633361816
1,1792237,32.90226745605469,29.41594696044922,53.02187728881836,-3.9438986778259277
1,1792240,-18.810630798339844,-32.73651885986328,12.522489547729492,10.699329376220703
1,1792241,11.420761108398438,26.975955963134766,22.8269100189209,15.2206392288208
1,1792244,-16.547222137451172,-17.114641189575195,-94.5726089477539,-20.964479446411133
1,1792245,-26.04990005493164,-46.4144287109375,-114.15738677978516,-23.218490600585938
1,1792248,12.279228210449219,40.176212310791016,117.11935424804688,7.201224327087402
1,1792249,27.480897903442383,48.80913543701172,159.90208435058594,-5.893221378326416
1,1792252,-31.015417098999023,-52.7059440612793,-146.36390686035156,-12.628937721252441
1,1792253,-52.63936233520508,-71.95549774169922,-121.31440734863281,34.93612289428711
1,1792256,62.724090576171875,48.967769622802734,100.06881713867188,38.68002700805664
1,1792257,57.95633316040039,37.159698486328125,70.76288604736328,-20.54224967956543
1,1792260,-28.729862213134766,-5.420389175415039,31.456024169921875,-29.158361434936523
1,1792261,-20.366025924682617,13.162981986999512,-4.6792731285095215,-12.2940034866333
1,1792264,-7.044700622558594,-26.544160842895508,-84.35698699951172,18.94141960144043
1,1792265,5.04013729095459,-18.299667358398438,-95.80287170410156,25.223230361938477
1,1792268,10.868353843688965,19.556665420532227,105.36007690429688,-20.655019760131836
1,1792269,-14.594216346740723,7.495194911956787,146.34791564941406,-16.991230010986328
1,1792272,-37.57769012451172,-21.697032928466797,-165.47129821777344,7.903656005859375
1,1792273,15.223440170288086,-12.739323616027832,-85.38233947753906,-3.032155752182007
1,1792276,66.63642120361328,50.34925842285156,126.10359954833984,7.047897815704346
1,1792277,-20.755613327026367,20.276670455932617,-14.323506355285645,20.482295989990234
1,1792280,-37.92021942138672,-23.852567672729492,6.8830246925354,-14.470878601074219
1,1792281,33.1879997253418,4.274949550628662,64.00471496582031,-8.935741424560547
1,1792284,-21.506881713867188,-30.893997192382812,-86.64506530761719,-0.22354678809642792
1,1792285,-22.44010353088379,-39.66806411743164,-113.34298706054688,2.055039882659912
1,1792288,47.746055603027344,52.80947494506836,132.35595703125,14.705657958984375
1,1792289,3.433302879333496,58.63178634643555,168.84286499023438,3.1726419925689697
1,1792292,-45.95072555541992,-69.4979019165039,-184.5882110595703,3.830293655395508
1,1792293,-10.175569534301758,-38.87223815917969,-117.2686996459961,-45.46800231933594
1,1792296,37.21200942993164,59.947052001953125,128.8218994140625,3.611929178237915
1,1792297,10.646583557128906,0.2785927653312683,0.8266852498054504,47.84321212768555
1,1792300,-16.646242141723633,-17.14519500732422,4.096629619598389,-31.373126983642578
1,1792301,-7.26224422454834,22.529273986816406,58.368465423583984,-1.8502782583236694
1,1792304,-18.51758575439453,-12.597047805786133,-75.01350402832031,30.771303176879883
1,1792305,-0.17668524384498596,-25.469499588012695,-138.65858459472656,-1.9017503261566162
1,1792308,36.79363250732422,34.66532897949219,145.20997619628906,-37.01659393310547
1,1792309,20.766422271728516,39.02522659301758,236.7449493408203,-10.087923049926758
1,1792312,-22.403966903686523,-37.92878723144531,-196.23419189453125,31.351417541503906
1,1792313,-36.932395935058594,-63.30974578857422,-191.109375,1.1392301321029663
1,1792316,22.34380531311035,-8.042699813842773,119.0764389038086,4.447660446166992
1,1792317,38.517478942871094,44.72429656982422,92.05949401855469,-8.954450607299805
1,1792320,-27.37431526184082,28.349632263183594,6.703970432281494,-28.26934051513672
1,1792321,-7.821938514709473,0.26132532954216003,-41.087284088134766,15.223122596740723
1,1792324,2.8911237716674805,-14.92452335357666,-83.41368103027344,29.104976654052734
1,1792325,-22.433923721313477,-36.9960823059082,-61.74661636352539,3.3334732055664062
1,1792328,13.749008178710938,41.59305953979492,150.6311798095703,-39.76166534423828
1,1792329,33.635860443115234,62.03622817993164,184.7629852294922,-9.744976043701172
1,1792332,-25.41020393371582,-79.84793090820312,-179.4124755859375,53.26449966430664
1,1792333,-25.66639518737793,-55.32649230957031,-195.31243896484375,18.75404167175293
1,1792336,45.18656539916992,82.4935302734375,52.57612228393555,-35.84894943237305
1,1792337,1.9087406396865845,29.762012481689453,59.20461654663086,-44.95349884033203
1,1792340,-21.424854278564453,-47.28434371948242,78.63980102539062,35.47431564331055
1,1792341,14.518056869506836,-18.67188262939453,63.68721008300781,32.42412567138672
1,1792344,-29.57845687866211,2.2987658977508545,-78.29730987548828,-28.55727195739746
1,1792345,-5.153244972229004,-15.120929718017578,-117.37664031982422,16.7701416015625
1,1792348,27.842823028564453,27.92820930480957,97.14186096191406,-0.1981135457754135
1,1792349,-27.797565460205078,49.05692672729492,180.4332733154297,-33.85719299316406
1,1792352,3.302576780319214,-54.98442840576172,-166.15090942382812,-16.999755859375
1,1792354,0.1611156016588211,-37.150917053222656,-106.54776000976562,14.442790031433105
1,1792356,-14.263162612915039,61.27062225341797,152.0492706298828,23.458574295043945
1,1792358,32.007965087890625,5.862393379211426,-13.939960479736328,-3.333714485168457
1,1792360,24.511306762695312,-11.171181678771973,-24.018159866333008,-3.439725399017334
1,1792362,-6.775388717651367,18.222166061401367,40.80766677856445,-4.025428771972656
1,1792364,-44.49653625488281,-54.67515563964844,-91.44189453125,11.667319297790527
1,1792366,8.99744701385498,-22.537202835083008,-120.45401000976562,9.728825569152832
1,1792367,56.290733337402344,71.27220916748047,75.93080139160156,-7.856720924377441
1,1792370,0.5335392951965332,44.83695602416992,201.94430541992188,-13.457914352416992
1,1792371,-36.692848205566406,-23.855390548706055,-6.077520847320557,-18.472232818603516
1,1792374,-31.313793182373047,-59.64204788208008,-199.68499755859375,10.111247062683105
1,1792375,5.00873327255249,-10.342698097229004,16.926225662231445,3.2491250038146973
1,1792378,26.81211280822754,45.585575103759766,137.10519409179688,-1.949505090713501
1,1792379,-4.786595821380615,-31.081523895263672,-54.4172248840332,37.521907806396484
1,1792382,-8.08316421508789,-32.183807373046875,6.265961647033691,-13.204916954040527
1,1792383,8.973907470703125,58.50014877319336,7.76804780960083,-51.21066665649414
1,1792386,-16.946300506591797,6.31841516494751,-149.7881317138672,24.090858459472656
1,1792387,-0.32334691286087036,-13.356760025024414,84.63101959228516,36.43292999267578
1,1792391,20.120176315307617,-8.649834632873535,81.94774627685547,-2.694894313812256
1,1792392,-9.518470764160156,-10.39901351928711,-174.26344299316406,-13.163185119628906
1,1792393,6.377114772796631,27.258028030395508,42.218772888183594,4.476662635803223
1,1792396,34.722232818603516,-32.59331512451172,123.29995727539062,7.112936973571777
1,1792397,-1.371556282043457,4.800057411193848,-7.5311455726623535,-18.558944702148438
1,1792400,-25.640954971313477,46.787322998046875,67.66192626953125,-10.983662605285645
1,1792401,-4.768232822418213,-24.749223709106445,22.85150909423828,-2.926146984100342
1,1792404,-33.564422607421875,-15.766169548034668,-108.64195251464844,-0.360611230134964
1,1792405,-14.479227066040039,-14.66385555267334,-106.279541015625,21.65089225769043
1,1792408,68.55130767822266,2.7097978591918945,86.9909439086914,7.609980583190918
1,1792409,25.478778839111328,31.251018524169922,168.8843994140625,-31.590028762817383
1,1792412,-43.15018081665039,-5.298435211181641,-118.04232788085938,15.95122241973877
1,1792413,-24.36468505859375,-16.90567970275879,-119.97073364257812,39.75868225097656
1,1792416,-3.9826431274414062,1.6717252731323242,91.79036712646484,-34.235633850097656
1,1792417,-2.6556968688964844,11.968133926391602,14.905471801757812,-17.099233627319336
1,1792420,14.131048202514648,11.528246879577637,-44.40448760986328,21.1773738861084
1,1792421,30.607025146484375,7.860461711883545,-18.096790313720703,-18.917240142822266
1,1792424,-28.78291893005371,-28.558351516723633,-28.862152099609375,-5.136302947998047
1,1792425,-32.38522720336914,-47.4313850402832,-91.56217193603516,29.10865592956543
1,1792428,58.14907455444336,55.376319885253906,112.54360961914062,-4.955150604248047
1,1792429,48.11384201049805,78.32167053222656,252.24270629882812,-10.00420093536377
1,1792432,-60.847225189208984,-75.31470489501953,-170.57167053222656,3.98677659034729
1,1792433,-53.93471145629883,-55.33076477050781,-192.99212646484375,3.666287899017334
1,1792436,36.444091796875,76.71288299560547,162.27459716796875,27.3057861328125
1,1792437,17.752580642700195,10.860252380371094,75.09737396240234,-16.164365768432617
1,1792440,16.081680297851562,-49.396881103515625,-31.44574546813965,-46.39887237548828
1,1792441,-1.9302213191986084,11.531732559204102,-3.2904751300811768,11.087008476257324
1,1792444,-43.37316131591797,-1.3719618320465088,-67.53146362304688,38.64730453491211
1,1792445,-8.450752258300781,-28.48158073425293,-98.06610870361328,2.5457258224487305
1,1792448,34.700340270996094,26.44379425048828,103.22913360595703,-27.924610137939453
1,1792449,30.28346824645996,50.69804000854492,158.0571746826172,-17.634151458740234
1,1792452,-29.1942081451416,-48.961936950683594,-160.11727905273438,24.828330993652344
1,1792453,-24.127079010009766,-57.65828323364258,-129.4993438720703,27.811716079711914
1,1792456,27.141216278076172,55.833900451660156,121.87316131591797,-24.450122833251953
1,1792457,-10.316875457763672,15.186427116394043,61.054359436035156,-36.888423919677734
1,1792460,-33.77228546142578,-16.87274742126465,-28.910751342773438,-10.1611909866333
1,1792461,38.87514114379883,37.66277313232422,-12.81667709350586,5.738415241241455
1,1792464,30.636077880859375,-20.13121223449707,-20.54608917236328,44.951663970947266
1,1792465,-33.0864143371582,-68.51875305175781,-69.59134674072266,55.52129364013672
1,1792468,5.292015075683594,40.294776916503906,94.78734588623047,-47.69314956665039
1,1792469,35.316505432128906,58.88103485107422,191.4446563720703,-47.35129928588867
1,1792472,-36.33098602294922,-46.9306526184082,-203.60748291015625,24.541566848754883
1,1792473,-42.61528396606445,-13.668815612792969,-162.64260864257812,29.631994247436523
1,1792476,43.877872467041016,34.00326156616211,178.71742248535156,5.4108076095581055
1,1792477,23.487552642822266,-12.857848167419434,62.435726165771484,-28.797985076904297
1,1792480,-20.845291137695312,0.42606109380722046,25.49837303161621,7.650853633880615
1,1792481,1.2049070596694946,26.293384552001953,1.160766839981079,7.692593097686768
1,1792484,-41.6461296081543,-56.53334045410156,-146.26869201660156,-23.60869026184082
1,1792485,-32.42451477050781,-42.24388122558594,-117.92245483398438,-3.6994268894195557
1,1792488,60.05144500732422,85.02963256835938,171.1005401611328,20.50105094909668
1,1792489,29.184253692626953,38.48203659057617,210.48805236816406,-6.392761707305908
1,1792492,-29.359813690185547,-49.63446044921875,-225.0596466064453,8.095539093017578
1,1792493,-5.041910171508789,-9.303873062133789,-162.38600158691406,27.01697540283203
1,1792496,23.61492156982422,10.553199768066406,88.2158203125,-74.8728256225586
1,1792497,30.97580909729004,-14.371670722961426,3.8024098873138428,-34.10282897949219
1,1792500,17.61288833618164,13.138310432434082,101.08050537109375,91.51434326171875
1,1792501,-21.08719825744629,13.077106475830078,55.700531005859375,31.436382293701172
1,1792504,-62.64014434814453,-31.092144012451172,-66.27656555175781,-45.6274299621582
1,1792505,-3.5726351737976074,-6.050051689147949,-31.281883239746094,-14.920568466186523
1,1792508,50.454566955566406,17.320384979248047,53.80727767944336,-8.17699909210205
1,1792509,-30.02305793762207,13.4425687789917,139.1225128173828,-6.027434825897217
1,1792512,-56.22871780395508,-6.99306058883667,-125.48051452636719,-11.892541885375977
1,1792513,14.807815551757812,-35.59818649291992,-121.30066680908203,-11.231561660766602
1,1792516,25.724489212036133,14.644122123718262,146.27203369140625,56.640865325927734
1,1792517,-4.424677848815918,37.52409362792969,-28.971132278442383,21.271503448486328
1,1792520,27.4567928314209,-14.84287166595459,-100.41716766357422,-48.28750991821289
1,1792521,45.8491325378418,-19.407209396362305,24.415735244750977,7.059409141540527
1,1792524,-35.133663177490234,-7.849218368530273,-12.797978401184082,50.26748275756836
1,1792525,-36.26675033569336,2.30405592918396,-93.53581237792969,-4.305838108062744
1,1792528,71.65823364257812,57.46448516845703,129.28118896484375,-3.0922768115997314
1,1792529,22.886348724365234,26.982446670532227,229.11737060546875,-19.937814712524414
1,1792532,-85.56632995605469,-81.13099670410156,-215.946044921875,-51.885169982910156
1,1792533,-31.688974380493164,-33.32291793823242,-194.34490966796875,45.16498947143555
1,1792536,56.060543060302734,49.911109924316406,136.85121154785156,17.742412567138672
1,1792537,46.166664123535156,20.378326416015625,88.19315338134766,-24.080299377441406
1,1792540,-40.29053497314453,-8.158884048461914,55.69739532470703,10.892953872680664
1,1792541,-37.29795455932617,-3.5580170154571533,14.751919746398926,-30.7052059173584
1,1792544,-9.528000831604004,-12.309622764587402,-104.47389221191406,0.798205554485321
1,1792545,-11.658448219299316,-36.62721633911133,-123.57868194580078,11.994987487792969
1,1792548,49.155391693115234,39.195106506347656,158.06106567382812,9.100459098815918
1,1792549,15.574331283569336,67.77936553955078,186.40252685546875,17.769819259643555
1,1792552,-54.48003005981445,-80.72660827636719,-208.309814453125,-42.51890563964844
1,1792553,-14.301370620727539,-73.98262023925781,-151.29458618164062,-22.436992645263672
1,1792556,75.26578521728516,81.40380859375,26.220590591430664,33.03187561035156
1,1792557,28.986534118652344,40.921844482421875,19.041610717773438,22.74254608154297
1,1792560,-68.48772430419922,-44.41453552246094,133.87625122070312,-0.27316370606422424
1,1792561,8.177742004394531,18.767364501953125,77.75810241699219,6.361956596374512
1,1792564,46.85308074951172,45.35340881347656,-99.2300033569336,15.389554023742676
1,1792565,-14.560745239257812,-50.973018646240234,-120.53948211669922,-6.889681816101074
1,1792568,-29.445371627807617,-19.6464786529541,106.7052993774414,-19.13093376159668
1,1792569,-17.591793060302734,61.014976501464844,184.99098205566406,-13.645063400268555
1,1792572,-4.607348442077637,-51.65937423706055,-178.35684204101562,-11.543301582336426
1,1792573,-3.605369806289673,-36.506614685058594,-99.72451782226562,22.253398895263672
1,1792576,19.27416229248047,63.88277053833008,167.59349060058594,27.774351119995117
1,1792577,-8.27917766571045,-7.269728660583496,-39.51251983642578,-17.128337860107422
1,1792580,-18.722503662109375,-19.088726043701172,-24.823274612426758,-4.97637939453125
1,1792581,25.050186157226562,28.05012321472168,57.595848083496094,-4.375621795654297
1,1792584,-7.774380207061768,-48.19868469238281,-100.610595703125,-38.92519760131836
1,1792585,1.8861773014068604,-51.38524627685547,-110.43193817138672,-16.653974533081055
1,1792588,49.02658462524414,89.7620849609375,84.9847183227539,11.80178451538086
1,1792589,17.643259048461914,56.70505142211914,143.4937744140625,46.41029357910156
1,1792592,-25.933670043945312,-75.61621856689453,-141.50396728515625,28.380657196044922
1,1792593,-22.212121963500977,-12.63400650024414,-118.22765350341797,-29.801000595092773
1,1792596,4.834805488586426,42.59177017211914,180.97373962402344,-25.56362533569336
1,1792597,-0.4242576062679291,-20.06125259399414,104.31190490722656,9.155362129211426
1,1792600,-21.156177520751953,-26.2006893157959,-30.10483169555664,39.32295227050781
1,1792601,21.754535675048828,-3.5140597820281982,-37.4897346496582,-11.503426551818848
1,1792604,-4.174557209014893,-6.5828680992126465,-104.85324096679688,-28.295127868652344
1,1792605,-26.414608001708984,-1.2783297300338745,-88.70172119140625,43.426822662353516
1,1792608,42.630611419677734,47.957027435302734,155.792724609375,-3.5478875637054443
1,1792609,-19.429668426513672,46.48561096191406,165.25518798828125,-33.527565002441406
1,1792612,-56.9475212097168,-51.664710998535156,-183.98858642578125,-4.736105918884277
1,1792613,19.249616622924805,-60.40485763549805,-99.47319030761719,1.9786947965621948
1,1792616,33.56813049316406,18.459917068481445,148.0738067626953,21.857723236083984
1,1792617,-2.632357597351074,51.867984771728516,9.545563697814941,-9.000450134277344
1,1792620,7.557803153991699,34.56792449951172,-25.550811767578125,-0.1185142993927002
