Aktueller Finger,timestamp_ms,sensor_0,sensor_1,sensor_2,sensor_3
0,18254,2389.354736328125,2368.929443359375,2354.574951171875,2381.800537109375
0,18255,2150.732421875,2132.190185546875,2135.107177734375,2141.65380859375
0,18258,-2229.58642578125,-2193.02490234375,-2171.914306640625,-2217.219970703125
0,18259,-1327.7999267578125,-1316.142333984375,-1312.725341796875,-1324.4443359375
0,18262,532.5022583007812,502.31085205078125,506.6816101074219,524.1851196289062
0,18263,-300.5171203613281,-295.14727783203125,-319.9202880859375,-286.33380126953125
0,18266,-231.4408721923828,-211.37771606445312,-237.61012268066406,-243.99148559570312
0,18267,-245.17471313476562,-260.4036865234375,-229.077392578125,-251.25755310058594
0,18270,-439.7948913574219,-448.856201171875,-448.60260009765625,-427.6454162597656
0,18271,-491.2332458496094,-458.1974182128906,-489.2904357910156,-499.3614501953125
0,18274,-402.04443359375,-394.880615234375,-367.36175537109375,-382.0850830078125
0,18276,-219.50546264648438,-245.46963500976562,-201.92213439941406,-226.62213134765625
0,18277,-27.259647369384766,-40.740116119384766,-56.095516204833984,-61.735843658447266
0,18280,151.95291137695312,166.94931030273438,134.9257049560547,171.7423553466797
0,18281,262.0445556640625,280.1399841308594,293.2088317871094,295.319091796875
0,18284,278.86895751953125,282.69207763671875,278.587890625,264.9708557128906
0,18285,229.97308349609375,221.34487915039062,204.2335205078125,211.96072387695312
0,18288,69.7711410522461,35.64014434814453,64.29972839355469,84.20849609375
0,18289,-99.18831634521484,-97.29776763916016,-99.51667785644531,-95.37155151367188
0,18292,-169.2633514404297,-136.30886840820312,-167.84779357910156,-191.57496643066406
0,18293,-140.10174560546875,-162.1612548828125,-127.31192016601562,-136.87158203125
0,18296,-63.019832611083984,-82.27217864990234,-48.23606491088867,-57.38975143432617
0,18297,6.464871406555176,29.880708694458008,-1.0374360084533691,-0.4552881419658661
0,18300,86.04133605957031,95.29376983642578,78.6484146118164,111.60717010498047
0,18301,170.78164672851562,176.08428955078125,182.853515625,196.41253662109375
0,18304,174.98936462402344,168.04367065429688,155.225341796875,157.1611785888672
0,18305,109.99890899658203,120.33460235595703,110.13674926757812,79.04606628417969
0,18308,29.448843002319336,30.279468536376953,46.9046630859375,16.358842849731445
0,18309,-85.03822326660156,-108.44171905517578,-116.39466857910156,-96.42566680908203
0,18313,-144.4746551513672,-122.01248931884766,-130.09915161132812,-127.64289855957031
0,18314,-118.87202453613281,-117.44329071044922,-107.50462341308594,-99.60749816894531
0,18315,-80.65663146972656,-90.57562255859375,-101.97157287597656,-67.58036804199219
0,18318,13.218693733215332,28.331954956054688,33.54143524169922,9.423203468322754
0,18319,95.5243911743164,97.8801498413086,82.8524398803711,66.7799072265625
0,18322,60.54026412963867,46.71581268310547,47.76505661010742,70.35740661621094
0,18323,38.06669998168945,34.52836990356445,90.2207260131836,73.24922180175781
0,18326,94.91063690185547,101.83499145507812,91.08435821533203,84.48448181152344
0,18327,26.06078338623047,15.71038818359375,-16.206586837768555,-3.6480720043182373
0,18330,-89.4383316040039,-100.09156799316406,-61.72343063354492,-76.26441192626953
0,18331,-65.89374542236328,-68.23885345458984,-76.02690124511719,-66.34197998046875
0,18334,-48.87987518310547,-47.25285720825195,-68.23783111572266,-71.72691345214844
0,18335,-34.6716194152832,-30.76386260986328,2.4107987880706787,-26.770055770874023
0,18338,6.413858890533447,15.184222221374512,19.888282775878906,32.39578628540039
0,18339,0.8189074993133545,21.501693725585938,8.109365463256836,6.01604700088501
0,18342,25.4974422454834,34.39644241333008,-4.757630825042725,30.628921508789062
0,18343,87.6142349243164,66.05802917480469,61.52790832519531,75.77781677246094
0,18346,62.243045806884766,48.608272552490234,72.34558868408203,25.40667152404785
0,18347,-3.7186074256896973,-12.757946014404297,-19.70554542541504,3.3143250942230225
0,18350,-27.737102508544922,-29.34603500366211,-31.022777557373047,-6.767052173614502
0,18351,-55.94111251831055,-22.910476684570312,-45.63521957397461,-39.621437072753906
0,18354,-45.77676773071289,-53.87079620361328,-42.101444244384766,-59.420658111572266
0,18355,-30.979053497314453,-49.82662582397461,-7.829652786254883,-58.12895202636719
0,18358,-11.032830238342285,11.175182342529297,-6.154858589172363,8.208528518676758
0,18359,37.84235382080078,27.555971145629883,12.489093780517578,48.843204498291016
0,18362,41.46330261230469,14.882387161254883,35.13448715209961,18.68115997314453
0,18363,21.505342483520508,41.878536224365234,37.481258392333984,22.653772354125977
0,18365,22.108625411987305,38.42277145385742,20.55123519897461,40.80241012573242
0,18368,23.70857810974121,-0.630848228931427,17.48859214782715,8.205650329589844
0,18369,-41.554229736328125,-7.0141777992248535,-11.377899169921875,-10.980782508850098
0,18372,-43.231353759765625,-13.127076148986816,-47.20524978637695,-17.867595672607422
0,18373,11.739500045776367,-42.87016677856445,-10.647599220275879,-36.739688873291016
0,18376,-25.262495040893555,-44.514774322509766,-39.22016525268555,-61.1983642578125
0,18377,-14.143794059753418,-5.805087089538574,-17.639789581298828,-10.899019241333008
0,18380,24.356998443603516,10.285844802856445,46.91758728027344,53.853309631347656
0,18381,8.05179214477539,17.727121353149414,-6.395256996154785,39.17671585083008
0,18384,31.87962532043457,54.03776168823242,22.206785202026367,29.84254264831543
0,18385,1.609569787979126,6.943471908569336,31.46430206298828,-12.510007858276367
0,18388,-10.15147590637207,-44.63813400268555,-20.5467529296875,-12.29012393951416
0,18389,16.704252243041992,-11.759621620178223,1.055614709854126,-2.176823139190674
0,18392,-37.70477294921875,7.752830982208252,4.791114330291748,-27.899263381958008
0,18393,-25.10080909729004,25.245084762573242,-22.077198028564453,-18.616355895996094
0,18396,9.091629028320312,4.114346027374268,3.524453639984131,9.76090145111084
0,18397,4.773332595825195,-37.38798904418945,9.226143836975098,16.4862003326416
0,18400,6.645028114318848,-10.484109878540039,-53.57648849487305,-28.73969841003418
0,18401,6.230422019958496,18.79808235168457,10.867315292358398,2.400416374206543
0,18404,34.23682403564453,38.35976028442383,67.63660430908203,44.762939453125
0,18405,11.531837463378906,24.665847778320312,3.1611812114715576,2.591676712036133
0,18408,-39.96538543701172,-18.13165855407715,8.226753234863281,-13.546299934387207
0,18409,-3.3521265983581543,-3.1646924018859863,-22.80608558654785,11.334711074829102
0,18412,18.88712501525879,-24.05291748046875,-59.15590286254883,-0.8473485708236694
0,18413,-21.709508895874023,-19.453266143798828,17.849498748779297,-20.998092651367188
0,18416,-24.72864532470703,-5.021578311920166,22.606786727905273,2.467301607131958
0,18417,5.4458699226379395,-18.32390594482422,-28.54779815673828,12.095048904418945
0,18420,6.469883441925049,38.471282958984375,5.892502784729004,-12.114893913269043
0,18421,0.3881937861442566,25.665143966674805,31.35115623474121,-24.59365463256836
0,18424,12.059247970581055,-18.040637969970703,18.285058975219727,14.932324409484863
0,18425,24.244741439819336,11.556233406066895,-0.8341411352157593,25.787254333496094
0,18428,14.996702194213867,6.810211181640625,-24.186492919921875,4.019275665283203
0,18429,-31.4916934967041,-42.38201904296875,-39.28950500488281,0.8707515597343445
0,18432,-15.58188247680664,-13.955224990844727,-2.762251853942871,-24.749431610107422
0,18433,17.07636260986328,21.06960105895996,50.80842208862305,-6.300756454467773
0,18435,-8.091530799865723,18.61105728149414,2.488741159439087,20.038026809692383
0,18438,17.781770706176758,16.60213851928711,-17.194608688354492,-2.5639772415161133
0,18439,11.147793769836426,-22.61551284790039,10.376895904541016,-7.623993873596191
0,18442,-41.942626953125,-16.94107437133789,-5.306214809417725,-0.5134127140045166
0,18443,-15.775376319885254,26.1696834564209,8.938712120056152,3.3442797660827637
0,18446,43.629093170166016,-10.883840560913086,2.1986629962921143,-0.47937440872192383
0,18447,10.650239944458008,-31.81814193725586,-25.62942123413086,-20.425670623779297
0,18450,-12.504206657409668,29.93295669555664,3.4272215366363525,-2.6187498569488525
0,18451,16.057071685791016,15.570340156555176,10.413946151733398,33.55541229248047
0,18454,-29.70711898803711,-6.915074348449707,-7.059329032897949,-7.88865327835083
0,18455,-4.633926868438721,1.2618589401245117,4.614837169647217,-16.006431579589844
0,18458,21.2946834564209,-25.336626052856445,2.005291223526001,33.444950103759766
0,18459,-28.682329177856445,-10.57901382446289,-27.379066467285156,12.331472396850586
0,18462,-1.086471438407898,22.522274017333984,0.18896126747131348,-47.38330078125
0,18463,19.988557815551758,18.608020782470703,37.036293029785156,-15.532984733581543
0,18466,-3.2884702682495117,-4.819140434265137,-4.0476508140563965,49.51444625854492
0,18467,18.166858673095703,11.605329513549805,-0.534119188785553,13.874635696411133
0,18470,6.214481353759766,6.426571846008301,-1.576722502708435,-11.410539627075195
0,18471,-33.80036163330078,-25.44817352294922,-23.992666244506836,-19.59796142578125
0,18474,-1.670050024986267,-19.578344345092773,16.851224899291992,-17.819799423217773
0,18475,7.23833703994751,-5.07969331741333,5.811279773712158,-6.763120651245117
0,18478,-18.590930938720703,10.819791793823242,-23.24528694152832,-7.895998954772949
0,18479,5.238831520080566,14.42379093170166,13.275240898132324,43.39447021484375
0,18482,25.783273696899414,-3.3034043312072754,17.061452865600586,15.322258949279785
0,18483,16.309139251708984,-8.326701164245605,-7.383128643035889,-27.460445404052734
0,18486,9.93880844116211,14.891645431518555,18.735877990722656,11.115836143493652
0,18487,-28.142316818237305,17.34270477294922,7.7974138259887695,4.44892692565918
0,18490,-28.913419723510742,-5.501692771911621,-32.506935119628906,-12.06770133972168
0,18491,20.387895584106445,-27.991363525390625,-9.106931686401367,-11.621930122375488
0,18494,9.306017875671387,2.5954458713531494,14.431310653686523,-6.867988109588623
0,18495,-9.943561553955078,19.456371307373047,-18.16452407836914,5.656252384185791
0,18498,13.990169525146484,-5.943487167358398,-13.607037544250488,12.729673385620117
0,18499,10.51050090789795,-6.172626495361328,32.541072845458984,7.968847274780273
0,18502,-23.94919204711914,-11.91695499420166,1.2003878355026245,6.122239589691162
0,18503,-21.484634399414062,9.621975898742676,-14.97174072265625,-46.83889389038086
0,18506,21.332931518554688,18.23863410949707,-6.142049789428711,-56.04217529296875
0,18507,29.835556030273438,-0.32651448249816895,8.448565483093262,84.67512512207031
0,18510,-18.641189575195312,-12.346373558044434,30.96303939819336,74.18095397949219
0,18511,-20.169069290161133,-6.025256633758545,-16.302183151245117,-64.47777557373047
0,18514,4.826425552368164,-6.1677350997924805,6.345522880554199,-33.26739501953125
0,18515,-1.6721545457839966,-20.096603393554688,6.813920021057129,16.91099739074707
0,18518,3.287665367126465,31.899410247802734,-48.20720291137695,-1.5793449878692627
0,18519,4.697967529296875,27.20277976989746,17.99732780456543,8.905984878540039
0,18521,-8.713040351867676,-28.921432495117188,11.58503532409668,16.495534896850586
0,18524,16.107532501220703,-15.757068634033203,-23.926286697387695,-1.522135615348816
0,18525,22.09821319580078,-0.16392028331756592,18.461360931396484,-13.538166999816895
0,18528,-31.550382614135742,-5.077548980712891,-11.030954360961914,-8.111503601074219
0,18529,-5.279557228088379,16.73969841003418,40.47695541381836,7.156747341156006
0,18532,24.441743850708008,18.759029388427734,14.567224502563477,15.907708168029785
0,18533,-8.428743362426758,-15.04849624633789,-88.03488159179688,-30.816125869750977
0,18536,-1.5553053617477417,-2.3433916568756104,24.136728286743164,3.7246553897857666
0,18537,5.082450866699219,23.841035842895508,55.11191177368164,42.08820343017578
0,18540,-12.025888442993164,-3.6375906467437744,-35.53199005126953,-27.453845977783203
0,18541,-7.3527326583862305,-31.74982452392578,-27.71306800842285,-7.73147439956665
0,18544,1.5622045993804932,-6.746916770935059,34.415863037109375,19.922374725341797
0,18545,-5.3515214920043945,13.119146347045898,15.149585723876953,-25.745508193969727
0,18548,-2.184647560119629,12.809832572937012,-28.031814575195312,0.21840819716453552
0,18549,12.055145263671875,15.967103004455566,1.4970375299453735,32.38483810424805
0,18552,16.640087127685547,-0.055783770978450775,11.521010398864746,-20.852855682373047
0,18553,-0.9704040288925171,-14.719062805175781,17.9478816986084,-21.10367774963379
0,18556,-28.85611915588379,-12.925395011901855,5.924642562866211,19.394927978515625
0,18557,5.592504978179932,8.350868225097656,-31.15374183654785,-2.590583324432373
0,18560,28.956527709960938,7.683551788330078,-0.44667577743530273,0.8575329184532166
0,18561,-22.494293212890625,-17.516014099121094,11.312921524047852,9.840712547302246
0,18564,1.2180548906326294,8.38084602355957,1.0794585943222046,-13.510954856872559
0,18565,16.897705078125,10.084793090820312,1.6807518005371094,-9.179018020629883
0,18568,-5.4292073249816895,-14.817753791809082,-29.90938949584961,23.6474609375
0,18569,10.57772445678711,-8.331332206726074,-24.24180030822754,-7.847468852996826
0,18572,-7.933915138244629,12.98587417602539,19.888858795166016,-25.80467414855957
0,18573,-21.475597381591797,16.32158851623535,49.19119644165039,48.014015197753906
0,18576,3.5943126678466797,-14.62850570678711,0.8008038997650146,-16.407594680786133
0,18577,3.484090805053711,-4.907991409301758,-28.005939483642578,-38.251827239990234
0,18580,-11.349869728088379,0.31847497820854187,4.106611728668213,38.571327209472656
0,18581,22.200820922851562,-1.5731724500656128,-0.18045592308044434,-8.030078887939453
0,18584,17.294349670410156,7.868804931640625,-0.40819403529167175,12.196374893188477
0,18585,-21.429380416870117,-14.527833938598633,-0.9289000630378723,17.64923667907715
0,18588,-23.39853286743164,0.8023340106010437,-2.4835052490234375,-46.67359161376953
0,18589,7.0440192222595215,19.101150512695312,26.553739547729492,0.9086860418319702
0,18592,20.12087059020996,-13.55898666381836,0.937556266784668,14.305036544799805
0,18593,-9.115152359008789,-3.4110023975372314,-36.18284225463867,2.6944093704223633
0,18596,-18.45041275024414,15.643253326416016,10.435190200805664,16.301799774169922
0,18597,15.997038841247559,-14.858527183532715,-21.288619995117188,-22.942609786987305
0,18600,35.08395767211914,12.409952163696289,-16.893539428710938,-13.356343269348145
0,18601,-16.063949584960938,2.616781234741211,62.65900421142578,22.910219192504883
0,18604,-17.9278507232666,-17.79176902770996,-0.9590311646461487,-3.989919424057007
0,18605,-7.922309875488281,12.281671524047852,-49.14163589477539,0.801899790763855
0,18608,-11.63204288482666,2.6710472106933594,-1.235295057296753,18.40406036376953
0,18609,20.07504653930664,16.263307571411133,37.113006591796875,-17.276792526245117
0,18612,21.533178329467773,-7.154547214508057,0.46812692284584045,-6.930659770965576
0,18613,-5.913971424102783,-18.96292495727539,-24.570634841918945,11.632822036743164
0,18616,-25.301502227783203,-9.07628059387207,21.765270233154297,-12.565669059753418
0,18617,-12.67674446105957,-7.794334411621094,1.786841869354248,-20.674381256103516
0,18620,22.963397979736328,33.55745315551758,-21.076719284057617,11.92176342010498
0,18623,32.63308334350586,-5.800637245178223,-13.384552955627441,37.8137092590332
0,18623,-26.66486930847168,-35.03083801269531,-17.686479568481445,-5.148732662200928
0,18626,-18.673566818237305,21.164838790893555,49.96585464477539,-42.28525924682617
0,18627,18.93440818786621,18.326913833618164,45.05910873413086,9.066596031188965
0,18630,-14.6897611618042,-10.671796798706055,-47.49308395385742,18.684078216552734
0,18631,3.126573324203491,5.590341091156006,-30.84593963623047,-18.835046768188477
0,18634,24.101415634155273,-4.386453151702881,32.38307571411133,27.971923828125
0,18635,-10.827812194824219,-18.4393310546875,11.119771003723145,19.38538932800293
0,18638,-19.813304901123047,29.26962661743164,-23.690523147583008,-24.321210861206055
0,18639,22.408828735351562,32.19004440307617,20.106674194335938,14.09311294555664
0,18642,16.176244735717773,-46.21160125732422,8.635162353515625,-12.137802124023438
0,18643,-34.39561080932617,-10.762029647827148,-20.161081314086914,-46.54375076293945
0,18646,-1.3709214925765991,50.74474334716797,15.870105743408203,17.936607360839844
0,18647,7.985815048217773,-40.406280517578125,8.14000129699707,13.678240776062012
0,18650,3.6776905059814453,-19.409860610961914,-36.26218795776367,13.24179744720459
0,18651,22.990617752075195,40.81489944458008,-26.02781105041504,39.4813232421875
0,18654,-18.885639190673828,-38.27961730957031,18.05984115600586,-49.48779296875
0,18655,-10.388262748718262,-12.225143432617188,0.8728200197219849,-34.72407913208008
0,18658,-6.521277904510498,29.322608947753906,10.193660736083984,26.70693016052246
0,18659,-4.025257110595703,-1.6607229709625244,5.653355598449707,-3.812739849090576
0,18662,28.67237663269043,6.688894748687744,-9.694921493530273,7.8912787437438965
0,18663,3.1564207077026367,1.2807127237319946,33.69171142578125,15.86460018157959
0,18666,-21.008514404296875,-14.161340713500977,2.306852102279663,-10.788676261901855
0,18667,-11.758367538452148,-8.782363891601562,-22.030736923217773,6.127809047698975
0,18670,17.65928840637207,27.09946060180664,2.675748586654663,14.51788330078125
0,18671,19.927520751953125,24.710811614990234,1.1195307970046997,-21.41847038269043
0,18674,-17.320655822753906,-41.6887092590332,-2.8878672122955322,0.9565995931625366
0,18675,-37.098960876464844,-22.897123336791992,-21.70793342590332,-3.931046485900879
0,18678,22.348995208740234,42.10677719116211,-3.6065897941589355,-17.051692962646484
0,18679,52.20097732543945,21.64957618713379,35.972923278808594,47.30134963989258
0,18682,-30.9376220703125,-8.908849716186523,-4.600183010101318,-0.13391759991645813
0,18683,-41.01158905029297,-12.997627258300781,-29.58662223815918,-70.27594757080078
0,18686,20.838220596313477,-12.748077392578125,15.754870414733887,22.35698699951172
0,18687,24.151439666748047,5.621537685394287,17.023780822753906,74.60305786132812
0,18690,-13.31022834777832,4.089383125305176,-23.09247398376465,-13.08363151550293
0,18691,-6.304662704467773,6.734546661376953,-7.585904598236084,-76.2404556274414
0,18694,20.671934127807617,-14.663087844848633,36.642112731933594,-21.499608993530273
0,18695,-13.812128067016602,-57.724754333496094,-11.914493560791016,48.404693603515625
0,18698,-15.911670684814453,28.18910026550293,-17.129133224487305,48.64601135253906
0,18699,14.537964820861816,73.07140350341797,38.24714660644531,3.916985511779785
0,18702,-12.751646041870117,-27.681325912475586,-21.00703239440918,-15.481976509094238
0,18703,-9.867443084716797,-42.682899475097656,-28.64558982849121,9.648733139038086
0,18706,23.30215072631836,24.721731185913086,20.160228729248047,-61.133644104003906
0,18707,-5.866765022277832,29.977434158325195,24.18692398071289,-67.70512390136719
0,18710,2.5517561435699463,-2.86297607421875,-12.230009078979492,88.03620910644531
0,18711,27.283065795898438,-14.252744674682617,-23.85451889038086,89.07087707519531
0,18714,2.5121817588806152,-23.293256759643555,16.2486515045166,-3.885685443878174
0,18715,-18.09134292602539,6.390839099884033,-0.9114367365837097,-0.5155124068260193
0,18718,-11.560680389404297,13.210356712341309,-12.371294021606445,-111.3581314086914
0,18719,10.898011207580566,-5.96464729309082,-5.458462238311768,-139.62217712402344
0,18722,-3.502774238586426,-7.220022201538086,6.782496929168701,91.33390045166016
0,18723,-3.085805654525757,-14.342079162597656,0.6473292708396912,133.97421264648438
0,18726,1.5214589834213257,6.123334884643555,-15.84387493133545,-124.40808868408203
0,18728,-6.44148063659668,-2.965860366821289,21.703968048095703,-169.27218627929688
0,18730,4.518436908721924,13.002284049987793,-0.8974440693855286,256.891845703125
0,18732,2.974266767501831,20.93640899658203,-19.091623306274414,273.81744384765625
0,18734,-5.6316070556640625,-6.767246246337891,46.50117492675781,-187.0990753173828
0,18736,-10.215636253356934,11.333914756774902,27.7839412689209,-136.67654418945312
0,18738,4.2728142738342285,10.336917877197266,-26.181732177734375,11.31638240814209
0,18739,17.565717697143555,-27.237821578979492,-23.932052612304688,-114.55423736572266
0,18742,1.8278816938400269,-29.547626495361328,-16.503631591796875,100.64331817626953
0,18743,-20.082874298095703,20.259586334228516,15.610396385192871,276.8002014160156
0,18746,-9.918672561645508,-4.292715549468994,-6.436098575592041,-76.73867797851562
0,18747,7.631236553192139,-21.02664566040039,-15.828858375549316,-180.0482940673828
0,18750,4.427852153778076,3.8765225410461426,-3.8117804527282715,-24.60523223876953
0,18751,6.461116790771484,25.977724075317383,-25.173540115356445,-72.73128509521484
0,18754,16.205875396728516,44.8413200378418,77.90669250488281,0.8574745655059814
0,18755,-0.9236177206039429,-14.285120964050293,49.57042694091797,77.60740661621094
0,18758,-18.67354965209961,-29.20116424560547,-108.297607421875,28.768278121948242
0,18759,-20.06598663330078,-11.736822128295898,-45.839237213134766,3.8921244144439697
0,18762,23.24677848815918,13.069426536560059,83.70637512207031,58.55329895019531
0,18763,40.58269119262695,21.830514907836914,42.5541877746582,32.87684631347656
0,18766,-20.82184600830078,-15.360662460327148,-45.125328063964844,-125.87858581542969
0,18767,-29.846349716186523,-13.914381980895996,-6.720777988433838,-32.4782600402832
0,18770,-9.86574935913086,0.2503820061683655,12.586191177368164,98.44044494628906
0,18771,4.004148483276367,2.855462074279785,2.145468235015869,23.830528259277344
0,18774,16.15826416015625,-4.288332462310791,17.92153549194336,-28.60010528564453
0,18775,12.403154373168945,-1.5953813791275024,-20.400653839111328,-104.31478881835938
0,18778,-3.798786163330078,12.402816772460938,-5.9398884773254395,-147.60459899902344
0,18779,-17.415454864501953,2.221468448638916,16.119674682617188,135.7335205078125
0,18782,0.5783839821815491,-20.998632431030273,-28.77831268310547,351.80511474609375
0,18783,5.512086868286133,-8.128336906433105,-24.1237850189209,-113.46015167236328
0,18786,13.289372444152832,26.192394256591797,12.840048789978027,-315.5110168457031
0,18787,11.910961151123047,28.240386962890625,14.896989822387695,106.73516082763672
0,18790,-38.96348571777344,-20.76563835144043,-21.14160919189453,140.6251220703125
0,18791,-4.008293151855469,-30.597389221191406,-0.17290917038917542,-55.472557067871094
0,18794,39.58586502075195,24.665729522705078,45.009578704833984,-0.9498392939567566
0,18795,-7.362924575805664,10.02359676361084,7.910203456878662,52.287628173828125
0,18798,-19.585412979125977,-0.13320323824882507,-17.454904556274414,-25.777517318725586
0,18799,15.780224800109863,37.02577590942383,16.772546768188477,-15.471965789794922
0,18802,-12.983939170837402,-64.08602905273438,-12.55152416229248,-119.18817138671875
0,18803,-64.13136291503906,-91.97930908203125,-56.01545715332031,-148.1662139892578
0,18806,76.76467895507812,110.32618713378906,37.65456008911133,242.71592712402344
0,18807,79.94440460205078,100.70086669921875,57.2497673034668,185.34803771972656
0,18810,-93.33692169189453,-92.38633728027344,-45.522701263427734,-227.10804748535156
0,18811,-33.57265853881836,-79.28654479980469,-25.980920791625977,-120.13507080078125
0,18814,46.0152702331543,42.67521667480469,22.660552978515625,115.26554107666016
0,18815,27.344545364379883,28.685482025146484,-7.079371929168701,92.1470718383789
0,18818,-27.739572525024414,-25.854087829589844,-12.208700180053711,50.48947525024414
0,18819,-36.84306716918945,6.427633762359619,-20.44654655456543,-0.994691789150238
0,18822,38.24176788330078,49.378177642822266,30.989187240600586,-90.83744812011719
0,18823,9.073575019836426,10.833880424499512,59.79043960571289,-19.01507568359375
0,18826,-22.57358169555664,-53.8838996887207,-49.32827377319336,89.23514556884766
0,18827,19.498960494995117,15.038050651550293,-12.740452766418457,-77.1286849975586
0,18830,-13.619431495666504,24.32561492919922,25.205326080322266,-176.34715270996094
0,18831,-13.315449714660645,-32.92137145996094,-34.101863861083984,120.40648651123047
0,18834,19.889156341552734,-48.306617736816406,-4.6745405197143555,101.80623626708984
0,18835,-16.895030975341797,10.475427627563477,14.051316261291504,-193.94784545898438
0,18838,5.7073140144348145,88.62571716308594,20.689573287963867,18.811506271362305
0,18839,17.63353729248047,-11.525317192077637,1.2204835414886475,228.90989685058594
0,18842,-25.720552444458008,-87.46783447265625,-32.47809600830078,51.646488189697266
0,18843,-7.833347320556641,-12.28968334197998,-19.75387191772461,-74.0645980834961
0,18846,2.4185876846313477,50.2771110534668,15.260248184204102,-197.7703399658203
0,18847,9.357114791870117,28.37894058227539,49.117610931396484,-53.3923454284668
0,18850,11.528361320495605,-7.43997049331665,2.223318338394165,204.8192138671875
0,18851,-4.148746490478516,-8.445316314697266,-45.86222839355469,61.835113525390625
0,18854,17.19655418395996,6.635815620422363,-7.670514106750488,-9.508115768432617
0,18855,-7.261154651641846,-3.4120373725891113,17.645395278930664,3.734672784805298
0,18858,-16.850311279296875,-13.035338401794434,-4.381967067718506,-97.90581512451172
0,18859,9.24400806427002,1.431966781616211,-4.565770626068115,-132.2018585205078
0,18862,20.823698043823242,37.94185256958008,43.19880676269531,-113.96903991699219
0,18863,15.047847747802734,18.56983184814453,23.841936111450195,147.95700073242188
0,18866,-20.414745330810547,-41.49832534790039,-19.334392547607422,358.0293884277344
0,18869,-13.741268157958984,-6.181320667266846,-31.7237491607666,71.73873138427734
0,18869,-11.042141914367676,0.16362860798835754,-22.192453384399414,-126.9991683959961
0,18872,-24.83958625793457,-31.04364585876465,13.506477355957031,-385.11151123046875
0,18873,-4.065457820892334,-24.056013107299805,4.076741695404053,-209.76766967773438
0,18876,-10.775665283203125,-7.429745674133301,-30.97662353515625,255.1714324951172
0,18877,-5.081315994262695,32.53798294067383,-5.302822113037109,10.91956615447998
0,18880,49.766849517822266,30.067663192749023,31.388172149658203,267.97314453125
0,18881,52.5013313293457,1.9315751791000366,28.451133728027344,207.4065399169922
0,18884,-12.92046070098877,12.503862380981445,12.628640174865723,-462.1184387207031
0,18885,-21.139053344726562,20.612348556518555,-10.615309715270996,-141.63955688476562
0,18888,24.077701568603516,4.892984390258789,-18.512229919433594,407.1435852050781
0,18889,-15.491256713867188,-1.470285177230835,-13.725147247314453,223.61068725585938
0,18892,-38.61463928222656,-28.424333572387695,20.816850662231445,-356.1272888183594
0,18893,-34.50157928466797,-56.07738494873047,-2.9153189659118652,-340.16033935546875
0,18896,-19.14072036743164,-8.085872650146484,-19.788354873657227,87.20963287353516
0,18897,51.54470443725586,50.19725036621094,2.807103395462036,263.2915344238281
0,18900,48.76557922363281,7.559715270996094,12.824908256530762,215.2236785888672
0,18901,16.800743103027344,-2.0482401847839355,32.428260803222656,-94.78116607666016
0,18904,-9.943692207336426,38.83354949951172,-10.937856674194336,-187.47740173339844
0,18905,-37.879295349121094,-35.62443923950195,-54.5717887878418,-38.88267517089844
0,18908,3.7131056785583496,-25.797821044921875,5.659284591674805,16.39809226989746
0,18909,2.2081401348114014,47.46908187866211,47.95827865600586,30.875316619873047
0,18912,-7.443203449249268,-7.645068645477295,-21.568504333496094,42.29221725463867
0,18913,6.240420341491699,-27.479875564575195,-23.74830436706543,65.4447250366211
0,18916,10.496508598327637,31.834026336669922,42.93024826049805,-1.509002685546875
0,18917,24.9797306060791,28.07457160949707,19.131343841552734,-58.867305755615234
0,18920,-39.84821319580078,-22.16875648498535,-39.7764778137207,-52.18585205078125
0,18921,-48.374141693115234,-67.03934478759766,-46.96784210205078,57.80363845825195
0,18924,6.286341667175293,-70.859619140625,-20.17852020263672,3.7923543453216553
0,18925,19.746244430541992,43.01438903808594,47.070194244384766,-348.6033630371094
0,18928,9.433977127075195,88.33679962158203,28.06779670715332,16.57219696044922
0,18929,-14.526577949523926,-31.00937843322754,-32.451805114746094,436.8928527832031
0,18932,36.93698501586914,-21.96181297302246,30.843036651611328,1.0068206787109375
0,18933,43.89833068847656,49.224700927734375,41.54491424560547,-48.3849983215332
0,18936,-9.226400375366211,18.19097328186035,6.809080600738525,125.60043334960938
0,18937,-27.807899475097656,-10.616372108459473,-49.02774429321289,-67.2708511352539
0,18940,-48.61239242553711,-30.155176162719727,-74.7649154663086,-203.93064880371094
0,18941,31.85999870300293,28.21967315673828,54.0504150390625,-91.67162322998047
0,18944,40.482948303222656,35.60531997680664,107.37389373779297,136.08758544921875
0,18945,-85.59107208251953,-96.3093032836914,-64.81120300292969,30.40386962890625
0,18948,-28.686552047729492,-29.10472297668457,-106.79554748535156,105.19627380371094
0,18949,47.625308990478516,89.12873077392578,63.97714614868164,275.2117614746094
0,18952,-2.311535120010376,-36.194881439208984,40.73918151855469,-568.313232421875
0,18953,18.363861083984375,-54.836360931396484,-58.65393829345703,-508.5793762207031
0,18956,30.974653244018555,56.11141586303711,15.828960418701172,649.9359741210938
0,18957,6.602487564086914,20.95697593688965,82.95337677001953,374.2012634277344
0,18960,16.005598068237305,0.3343178331851959,5.161543846130371,-211.8600616455078
0,18961,9.27744197845459,36.08086013793945,-38.458518981933594,-208.93663024902344
0,18964,-39.88471603393555,-17.2054386138916,-20.194194793701172,-86.69437408447266
0,18965,-45.039798736572266,-47.87641906738281,-17.09609031677246,111.7216567993164
0,18968,-0.7047508358955383,-25.805805206298828,-44.20017623901367,1.8678768873214722
0,18969,22.417537689208984,29.251527786254883,-30.95394515991211,-6.33247709274292
0,18972,49.45934295654297,43.637081146240234,62.92689514160156,556.6535034179688
0,18973,14.678678512573242,1.5881783962249756,49.24055480957031,309.07659912109375
0,18976,-70.1160888671875,-21.642793655395508,-46.088741302490234,-886.737548828125
0,18977,-16.045663833618164,-15.116456031799316,27.498838424682617,-632.310302734375
0,18980,31.619585037231445,18.321613311767578,42.190067291259766,531.9476318359375
0,18981,-34.60719680786133,-19.999744415283203,-122.00619506835938,472.0853271484375
0,18984,-2.264450788497925,-58.69601821899414,-48.53490447998047,-147.12054443359375
0,18985,69.60193634033203,8.096488952636719,113.99139404296875,-195.24038696289062
0,18988,-27.906455993652344,60.305381774902344,72.73809814453125,-326.0079040527344
0,18990,-67.81959533691406,22.356538772583008,-46.98712921142578,-417.11749267578125
0,18992,96.20679473876953,-1.8697779178619385,-36.444305419921875,615.6399536132812
0,18994,78.33833312988281,11.32399845123291,18.19828987121582,916.6095581054688
0,18996,-45.747135162353516,75.584716796875,49.411434173583984,-245.82742309570312
0,18998,-104.46659851074219,-30.111251831054688,-27.483150482177734,-460.976806640625
0,19000,-146.09617614746094,-217.0774688720703,-144.72164916992188,54.59263610839844
0,19002,20.031230926513672,-64.37464904785156,44.981788635253906,-50.886436462402344
0,19003,176.55120849609375,131.9319610595703,146.02896118164062,-61.30002975463867
0,19006,93.18199157714844,94.77669525146484,-19.898202896118164,-6.078666687011719
0,19007,-34.110572814941406,10.114492416381836,-73.57844543457031,-194.56802368164062
0,19010,-60.305633544921875,12.913100242614746,12.061607360839844,203.94276428222656
0,19011,-23.171428680419922,-14.462668418884277,21.12660026550293,29.388622283935547
0,19016,-13.306468963623047,-46.805397033691406,-6.150936603546143,-194.6067352294922
0,19016,48.99149703979492,17.028656005859375,14.827715873718262,186.8791046142578
0,19017,36.95029067993164,39.849037170410156,-33.683380126953125,-151.26170349121094
0,19020,-44.01337432861328,15.744415283203125,-22.591625213623047,-70.80084991455078
0,19021,0.9320668578147888,3.8374879360198975,37.1623649597168,364.0213623046875
0,19024,18.05982780456543,-5.514377117156982,31.467044830322266,164.1185760498047
0,19025,-20.336538314819336,-52.686214447021484,-22.511741638183594,-28.45612144470215
0,19028,-28.836212158203125,-71.9753189086914,3.8126842975616455,-534.60205078125
0,19029,-20.22199249267578,-2.7606050968170166,42.707523345947266,-498.70953369140625
0,19032,16.47161865234375,56.10907745361328,-78.28916931152344,902.715576171875
0,19033,-20.910961151123047,-19.26933479309082,-81.41807556152344,694.7044677734375
0,19036,0.1376773715019226,-29.62607192993164,51.798500061035156,-771.6544189453125
0,19037,96.29794311523438,46.44562530517578,73.79927825927734,-270.019287109375
0,19040,-21.154613494873047,25.77089500427246,-19.89786720275879,298.1577453613281
0,19041,-56.95315933227539,45.48370361328125,4.569911479949951,-1.5569579601287842
0,19044,33.29307556152344,-2.224642515182495,46.77872848510742,257.2340393066406
0,19045,-48.02214050292969,-90.03512573242188,-77.64961242675781,-964.583251953125
0,19048,-29.49679183959961,-5.690910816192627,-5.378368854522705,-439.6536560058594
0,19049,62.2242546081543,67.92102813720703,62.43214797973633,1687.827880859375
0,19052,16.068429946899414,21.8280029296875,-16.51557731628418,-29.044145584106445
0,19053,-13.951123237609863,-23.326263427734375,-6.3098225593566895,-912.672607421875
0,19056,24.439517974853516,-57.867984771728516,15.30990219116211,166.07907104492188
0,19057,0.3779001533985138,-29.817569732666016,0.2075451761484146,117.759521484375
0,19060,-36.94337844848633,82.53398132324219,-80.98363494873047,-4.05978536605835
0,19061,59.53700256347656,105.68511962890625,0.9420069456100464,133.96849060058594
0,19064,-12.875252723693848,-62.873573303222656,62.25096893310547,161.48110961914062
0,19065,-56.079345703125,-97.82667541503906,6.71358585357666,-147.93502807617188
0,19068,32.69198989868164,-2.186876058578491,10.8236665725708,-67.70137786865234
0,19069,-49.58638381958008,-28.316696166992188,-84.60489654541016,112.145751953125
0,19072,50.78120803833008,59.17629623413086,2.0144309997558594,-160.7652130126953
0,19073,69.9714126586914,43.412967681884766,101.82923889160156,-138.7556915283203
0,19076,-132.14309692382812,-99.13079833984375,-73.91492462158203,19.542491912841797
0,19077,-32.28325271606445,11.033478736877441,-38.08646774291992,-77.38216400146484
0,19080,117.72059631347656,105.46035766601562,100.94731903076172,16.15580177307129
0,19081,-7.6823906898498535,-25.56735610961914,-38.666839599609375,205.35093688964844
0,19084,-72.15787506103516,-49.77091979980469,-93.54535675048828,-3.6400160789489746
0,19085,33.3821907043457,39.20490646362305,83.96578216552734,-114.32381439208984
0,19088,9.15567684173584,-7.796963214874268,116.59587097167969,319.41448974609375
0,19089,1.3715263605117798,-9.50246524810791,-4.411518096923828,203.03973388671875
0,19092,17.89452362060547,-44.60454559326172,-91.7717056274414,-546.8436889648438
0,19093,-46.311012268066406,-49.554725646972656,-88.69535827636719,-139.50753784179688
0,19096,-8.623696327209473,111.59793853759766,20.128368377685547,295.3313903808594
0,19097,6.152924060821533,38.72130584716797,44.63420486450195,-183.4735565185547
0,19100,45.08637237548828,-59.40170669555664,17.373516082763672,4.048463821411133
0,19101,72.94757843017578,45.433048248291016,37.55113220214844,155.7372589111328
0,19104,-21.348865509033203,16.768905639648438,-9.815150260925293,22.677349090576172
0,19105,-51.764495849609375,-39.27837371826172,-32.793392181396484,420.2923278808594
0,19108,-30.86945343017578,-14.599641799926758,-3.003295660018921,-301.3377990722656
0,19109,3.7553915977478027,-8.722651481628418,54.410404205322266,-994.8812866210938
0,19112,-2.5783298015594482,-11.696022033691406,49.6781005859375,658.693115234375
0,19113,19.171737670898438,23.94028091430664,-9.306445121765137,1065.1685791015625
0,19116,26.773319244384766,26.585968017578125,-87.35570526123047,-735.675537109375
0,19117,-71.16041564941406,-67.13311767578125,-81.13597106933594,-735.9485473632812
0,19120,20.128524780273438,-55.060203552246094,51.43272018432617,481.0153503417969
0,19121,77.1101303100586,50.239112854003906,26.72502899169922,217.0719451904297
0,19124,-75.57796478271484,65.9776840209961,-1.4112284183502197,-178.05628967285156
0,19125,-46.62432098388672,34.01979446411133,-12.834132194519043,92.684326171875
0,19128,83.15509796142578,-50.05268096923828,-79.41605377197266,49.88530349731445
0,19129,53.372169494628906,-70.72484588623047,7.64609432220459,-69.27450561523438
0,19132,-39.248165130615234,67.01709747314453,57.35675811767578,-24.210329055786133
0,19133,-72.88143920898438,5.420290470123291,-9.2456636428833,-194.61753845214844
0,19136,2.4618325233459473,-47.7833251953125,105.68180847167969,-240.44342041015625
0,19138,116.15505981445312,74.57244110107422,98.47001647949219,456.8143005371094
0,19140,3.9241316318511963,-3.16082501411438,-124.29178619384766,587.3058471679688
0,19142,-164.6000518798828,-131.2729034423828,-109.9013671875,-496.93011474609375
0,19144,7.017449855804443,27.800352096557617,46.23495864868164,-441.0586853027344
0,19146,107.36077117919922,125.16426849365234,39.5343132019043,420.2674560546875
0,19148,-24.181989669799805,8.214959144592285,-0.6801340579986572,-4.833930015563965
0,19150,-23.00370216369629,-16.782798767089844,29.627716064453125,-196.5399932861328
0,19151,-5.840311050415039,-52.43174743652344,-109.33051300048828,85.70796203613281
0,19154,5.053552627563477,-57.22685241699219,-39.04572677612305,-57.78359603881836
0,19155,10.531481742858887,-15.516182899475098,49.82832336425781,15.95327377319336
0,19158,1.6460834741592407,49.658172607421875,4.512683868408203,400.1230163574219
0,19159,10.134242057800293,65.7571792602539,123.65579223632812,40.76248550415039
0,19162,-20.830644607543945,-29.605920791625977,23.25459098815918,-574.950439453125
0,19163,40.620025634765625,13.02250862121582,-24.38593101501465,65.1386947631836
0,19166,41.31306076049805,14.738423347473145,-39.505958557128906,361.40704345703125
0,19167,-42.96591567993164,-25.614994049072266,-112.36103820800781,-164.01234436035156
0,19170,-62.08195114135742,-18.24763298034668,-7.321132659912109,-239.48924255371094
0,19171,-19.175662994384766,-53.27239227294922,66.99443054199219,51.19852828979492
0,19175,115.7502670288086,71.5937271118164,74.89797973632812,175.6939239501953
0,19175,63.122623443603516,76.77970123291016,26.466432571411133,-52.630428314208984
0,19178,-150.4566650390625,-96.4537124633789,-83.99560546875,23.714372634887695
0,19179,-60.450504302978516,-50.048343658447266,-59.17433166503906,50.862552642822266
0,19182,101.04271697998047,33.73648452758789,109.7222671508789,-153.95091247558594
0,19183,43.20793151855469,23.49809455871582,59.3254280090332,163.24964904785156
0,19186,-21.44481658935547,-24.467561721801758,-120.2982406616211,100.80353546142578
0,19187,-76.10138702392578,-31.769540786743164,-63.20508575439453,-305.4216613769531
0,19190,-11.206836700439453,71.59214782714844,22.894773483276367,20.152576446533203
0,19191,52.462799072265625,27.942062377929688,20.32855796813965,191.51820373535156
0,19194,29.79880142211914,-21.14580535888672,68.8980712890625,127.989501953125
0,19195,9.164156913757324,-18.217313766479492,-21.372257232666016,108.1978988647461
0,19198,-68.12285614013672,-46.23814010620117,-103.6878662109375,-397.4087219238281
0,19199,18.066577911376953,52.272499084472656,37.640750885009766,-422.4946594238281
0,19202,31.43467140197754,12.300670623779297,31.469436645507812,398.4573669433594
0,19203,-68.70138549804688,-72.21166229248047,-33.99946212768555,285.9033203125
0,19206,42.2193603515625,13.808077812194824,84.62913513183594,-228.9136199951172
0,19207,54.004638671875,42.87560272216797,76.13876342773438,106.1402359008789
0,19210,-21.30771255493164,20.550838470458984,-69.9395523071289,88.83740234375
0,19211,11.482150077819824,18.331758499145508,-29.141250610351562,-161.0316162109375
0,19214,-24.208309173583984,-6.4501190185546875,57.44129943847656,67.03131866455078
0,19215,-45.95436477661133,-32.963314056396484,-48.74187469482422,97.04513549804688
0,19218,11.016493797302246,-2.5310816764831543,-50.34724807739258,-431.578369140625
0,19219,6.552377223968506,-2.477154493331909,27.427173614501953,-94.76670837402344
0,19222,-13.989940643310547,-90.08582305908203,-71.48800659179688,664.9833984375
0,19223,23.747386932373047,-29.99356460571289,-33.727691650390625,-5.642176151275635
0,19226,10.187712669372559,146.51690673828125,125.75668334960938,-408.7080993652344
0,19227,3.555535078048706,103.345703125,100.7956771850586,115.32684326171875
0,19230,40.238887786865234,-89.5438232421875,-4.809589385986328,2.6337530612945557
0,19231,40.33879089355469,-87.28570556640625,-94.8382568359375,-51.0936279296875
0,19234,-47.066444396972656,7.753241062164307,-61.56108856201172,189.309814453125
0,19235,-96.37903594970703,35.98227310180664,25.23529815673828,-104.78746032714844
0,19238,42.26747512817383,43.80104446411133,11.780067443847656,-165.11509704589844
0,19239,31.780925750732422,-31.824718475341797,-0.08309464901685715,81.9194107055664
0,19242,-31.03122329711914,-24.38897705078125,2.0502750873565674,47.71031188964844
0,19243,-13.192068099975586,-2.2015786170959473,-50.76090621948242,25.23717498779297
0,19246,12.554981231689453,-26.107154846191406,-37.94583511352539,77.43379211425781
0,19247,69.0029296875,45.907047271728516,77.06481170654297,35.763023376464844
0,19250,-90.13749694824219,-13.581314086914062,26.64153480529785,-136.41787719726562
0,19251,-74.39923858642578,-40.70148849487305,-0.5471199750900269,-182.6864013671875
0,19254,126.25472259521484,68.3074951171875,8.811187744140625,89.02826690673828
0,19255,72.02767944335938,47.60029602050781,-3.7221248149871826,452.6951599121094
0,19258,-29.708894729614258,-2.8029568195343018,89.94274139404297,-230.76470947265625
0,19259,-70.9953842163086,-59.77505874633789,-52.87007522583008,-761.021240234375
0,19262,-44.585323333740234,-62.63901138305664,-111.25897979736328,569.9161376953125
0,19263,66.40242004394531,61.288291931152344,84.65133666992188,706.2598266601562
0,19266,34.80671691894531,-16.62013816833496,17.224424362182617,-652.711669921875
0,19267,-100.52550506591797,-104.20819091796875,-124.07125091552734,-330.3083190917969
0,19270,35.933650970458984,88.4994125366211,21.508752822875977,437.67236328125
0,19271,72.83582305908203,85.71466827392578,40.22822570800781,87.3226547241211
0,19274,-82.10992431640625,-70.50794982910156,-9.32986068725586,-98.08904266357422
0,19275,-15.764720916748047,-25.58364486694336,75.47795867919922,-68.02691650390625
0,19278,35.64134979248047,48.655391693115234,20.663068771362305,-6.01635217666626
0,19279,38.976806640625,38.9306755065918,-79.0517807006836,49.75452423095703
0,19282,41.523902893066406,62.50025177001953,-33.57176208496094,-150.83517456054688
0,19283,-35.22187423706055,2.164921760559082,95.23207092285156,-103.85804748535156
0,19286,-85.11641693115234,-156.10450744628906,3.39021635055542,139.28199768066406
0,19287,-5.208364963531494,-50.20631408691406,-42.73991394042969,259.95703125
0,19290,70.50761413574219,82.21227264404297,1.3356324434280396,-20.910701751708984
0,19291,13.171828269958496,34.722496032714844,-55.91915512084961,-240.4893798828125
0,19294,-40.70965576171875,-6.952367305755615,10.002640724182129,-1.4469727277755737
0,19295,-26.5225887298584,-61.068965911865234,-11.445671081542969,55.563594818115234
0,19298,33.696136474609375,-10.427302360534668,-16.847505569458008,-10.988327980041504
0,19299,24.362565994262695,51.64936447143555,75.85394287109375,-38.30211639404297
0,19302,-8.578007698059082,17.302000045776367,21.488370895385742,38.36118698120117
0,19303,8.617408752441406,27.69078254699707,3.3332579135894775,111.39217376708984
0,19306,-9.978864669799805,4.531113624572754,7.433038711547852,-20.014728546142578
0,19307,-34.39557647705078,-52.93038558959961,-67.47708892822266,-76.30452728271484
0,19310,-1.2362651824951172,-12.749102592468262,-18.86288070678711,-32.806114196777344
0,19311,36.05294418334961,-7.0234375,42.52223587036133,9.516753196716309
0,19314,0.6442077159881592,0.6393250823020935,3.816295623779297,41.21561050415039
0,19315,-25.45500946044922,29.323057174682617,-46.417545318603516,40.572357177734375
0,19318,14.912216186523438,3.4429357051849365,-16.528587341308594,-112.0643081665039
0,19319,16.954614639282227,11.332945823669434,126.72816467285156,-22.921722412109375
0,19322,11.164535522460938,17.481613159179688,65.64069366455078,153.15345764160156
0,19324,1.4629499912261963,-13.277222633361816,-64.50170135498047,-101.46727752685547
0,19326,-14.153565406799316,-12.263221740722656,-80.8659896850586,33.69017791748047
0,19328,-10.416983604431152,24.602327346801758,-64.63819122314453,307.11370849609375
0,19330,-72.16613006591797,-40.48753356933594,70.2716293334961,-174.33053588867188
0,19332,-26.325437545776367,-33.4217643737793,44.929988861083984,-219.47293090820312
0,19334,101.82757568359375,12.830473899841309,-82.99958801269531,-57.82243728637695
0,19336,36.69154739379883,-15.77064037322998,-6.978135108947754,-213.45851135253906
0,19337,-67.80903625488281,22.10004425048828,50.81632614135742,219.69862365722656
0,19340,-19.76903533935547,-15.771626472473145,-3.9473049640655518,320.5705871582031
0,19341,31.532089233398438,-38.3923225402832,-59.02752685546875,-77.23983001708984
0,19344,62.23221206665039,77.51236724853516,15.23159122467041,-124.64924621582031
0,19345,12.793450355529785,49.604820251464844,58.300785064697266,-24.861940383911133
0,19350,-48.783905029296875,-16.490079879760742,-22.150680541992188,52.37929153442383
0,19350,14.776057243347168,33.311729431152344,16.557329177856445,80.5093002319336
0,19351,0.21334601938724518,-25.886444091796875,52.09812545776367,-27.93553352355957
0,19354,-11.260905265808105,-44.617828369140625,27.552776336669922,-44.53030776977539
0,19355,-20.323392868041992,5.5624566078186035,-12.927743911743164,-109.62334442138672
0,19358,-60.16588592529297,-23.58350944519043,-92.02289581298828,7.753829002380371
0,19359,10.928001403808594,-30.874210357666016,-52.98822021484375,285.0350341796875
0,19362,26.389345169067383,6.839484214782715,53.15727615356445,-43.48857116699219
0,19363,-0.8245867490768433,30.570995330810547,36.77739715576172,-237.17149353027344
0,19366,26.646625518798828,25.602325439453125,-16.96354866027832,-35.8507080078125
0,19367,1.0683914422988892,-6.875103950500488,-38.06439971923828,-7.341103553771973
0,19370,-7.746060848236084,-10.692244529724121,16.82726287841797,12.814964294433594
0,19371,58.727500915527344,18.00443458557129,75.13407135009766,77.41325378417969
0,19374,-3.2913174629211426,8.09604263305664,-16.373695373535156,98.59281921386719
0,19375,-61.4413948059082,12.269147872924805,-66.84140014648438,39.39107131958008
0,19378,-25.014482498168945,-32.567047119140625,-17.37351417541504,-47.8115348815918
0,19379,-9.165306091308594,-33.28586196899414,48.39940643310547,-29.808414459228516
0,19382,78.52069091796875,49.73826217651367,35.65388488769531,-23.52482032775879
0,19383,29.075271606445312,-9.397807121276855,-34.89208221435547,-45.87714385986328
0,19386,-97.72075653076172,-40.30388259887695,-26.710556030273438,2.2312495708465576
0,19387,-10.025132179260254,35.01924133300781,-6.215494155883789,-0.3547457158565521
0,19390,58.6967658996582,48.3260498046875,38.86429214477539,-7.106480598449707
0,19391,7.555193901062012,-25.499279022216797,40.6877555847168,59.0760612487793
0,19394,-13.431477546691895,-43.24565887451172,-15.33392333984375,72.5643539428711
0,19395,-27.463581085205078,-3.5052225589752197,-21.9199161529541,-40.171112060546875
0,19398,-28.312471389770508,-25.533918380737305,-70.9759521484375,-109.75226593017578
0,19399,35.07264709472656,29.554100036621094,-3.5868310928344727,11.451654434204102
0,19402,37.338504791259766,49.4676513671875,103.77344512939453,90.87460327148438
0,19403,-22.294790267944336,-42.445289611816406,-43.01100158691406,-9.365584373474121
0,19406,6.82537317276001,-24.100807189941406,-54.350303649902344,10.255768775939941
0,19407,10.868982315063477,37.03657531738281,63.56916427612305,18.702655792236328
0,19410,-35.02870559692383,0.022373173385858536,12.701916694641113,-181.2183837890625
0,19411,-5.8949055671691895,0.9424043297767639,-14.95399284362793,5.355727672576904
0,19414,37.12586975097656,26.08763313293457,37.77667999267578,236.33152770996094
0,19415,31.202150344848633,-0.17321720719337463,34.736778259277344,-22.84435272216797
0,19418,-33.381507873535156,-7.11534309387207,-48.09375762939453,-95.79470825195312
0,19419,-31.01064109802246,-23.54034423828125,-56.467369079589844,-29.64829444885254
0,19422,31.92844581604004,10.284378051757812,24.672588348388672,23.41684341430664
0,19423,-24.975461959838867,-6.322509765625,-5.734179973602295,41.76328659057617
0,19426,-17.229354858398438,-38.685691833496094,-14.6326322555542,-59.73834991455078
0,19427,31.253820419311523,35.20197677612305,52.566322326660156,-8.278141975402832
0,19430,-3.1169049739837646,12.990926742553711,-23.47422981262207,32.792335510253906
0,19431,15.90886116027832,-35.85078430175781,-47.06047821044922,-23.676712036132812
0,19434,0.8294533491134644,0.32038840651512146,-17.414466857910156,0.6316842436790466
0,19435,-49.92007064819336,5.63314151763916,-23.545150756835938,47.64132308959961
0,19438,0.49054792523384094,5.941310882568359,67.03031158447266,18.10318946838379
0,19439,41.406681060791016,21.52433967590332,89.70132446289062,6.292118549346924
0,19442,-0.21403948962688446,32.6054573059082,-19.55260467529297,-24.542957305908203
0,19443,-2.0358190536499023,11.233298301696777,-38.29662322998047,-47.280540466308594
0,19446,1.7446277141571045,-57.937129974365234,19.789827346801758,-6.87091064453125
0,19447,-26.75248146057129,-35.89409255981445,-8.7092924118042,1.627081274986267
0,19450,-2.610553741455078,24.213764190673828,-39.415096282958984,25.234458923339844
0,19451,28.70444679260254,22.99702262878418,-22.171157836914062,41.29740524291992
0,19454,17.13497543334961,5.092685222625732,0.7468251585960388,21.61664390563965
0,19455,-5.959951877593994,-19.28108787536621,25.240013122558594,-17.96796989440918
0,19458,-46.85587692260742,-24.019804000854492,-4.102628707885742,-67.50821685791016
0,19459,12.348493576049805,34.82545852661133,-4.832672595977783,7.521250247955322
0,19462,60.257225036621094,16.152645111083984,15.541539192199707,23.232786178588867
0,19463,-21.399089813232422,-43.462100982666016,7.634245872497559,-86.60630798339844
0,19466,-36.121337890625,19.26422691345215,13.020186424255371,-22.41881561279297
0,19467,-24.828554153442383,9.303617477416992,-26.970165252685547,70.02936553955078
0,19470,15.463313102722168,-2.5484957695007324,5.7692975997924805,101.21895599365234
0,19471,37.032291412353516,24.195287704467773,33.01972961425781,27.362667083740234
0,19474,-0.8727703094482422,-26.57093048095703,-14.755800247192383,-69.24959564208984
0,19475,18.937469482421875,2.409580945968628,22.26959228515625,34.82783889770508
0,19478,-26.126176834106445,10.983744621276855,-5.618582248687744,-51.09529113769531
0,19479,-15.589643478393555,-6.5691094398498535,-39.65996551513672,-86.9670181274414
0,19482,21.53782844543457,-13.617629051208496,-29.09218978881836,102.2264404296875
0,19483,-17.247135162353516,-20.079330444335938,-0.21198657155036926,51.249107360839844
0,19486,16.494657516479492,34.661529541015625,56.4124755859375,-53.25163269042969
0,19487,-1.3691505193710327,1.534692645072937,-29.53595733642578,-42.85737609863281
0,19490,-46.943572998046875,-39.21335983276367,-77.22193145751953,-59.733333587646484
0,19491,-26.649812698364258,-18.957590103149414,3.1405153274536133,-110.47172546386719
0,19494,47.979427337646484,29.86684226989746,63.28911209106445,153.08978271484375
0,19495,56.78431701660156,47.48194885253906,54.51694107055664,262.921630859375
0,19498,-20.142168045043945,17.284833908081055,36.45712661743164,-240.82394409179688
0,19499,-28.921539306640625,-6.492243766784668,-7.5544843673706055,-162.86026000976562
0,19502,0.7157814502716064,-36.39369201660156,-47.982940673828125,255.34548950195312
0,19504,12.256813049316406,-26.599254608154297,-59.413818359375,25.80247688293457
0,19506,-19.0472469329834,-3.200024127960205,7.675559997558594,-97.39967346191406
0,19508,2.4940454959869385,16.01815414428711,102.00556945800781,23.704065322875977
0,19510,38.46004104614258,31.43303680419922,-17.607419967651367,14.690655708312988
0,19512,19.680910110473633,19.288644790649414,-34.51206970214844,34.566139221191406
0,19514,-33.13333511352539,-31.106557846069336,6.4031453132629395,-98.61548614501953
0,19516,-69.14563751220703,-48.31975173950195,-84.5936050415039,-113.22685241699219
0,19517,22.894617080688477,8.689226150512695,12.318011283874512,116.0691146850586
0,19520,55.821170806884766,34.74169158935547,71.42483520507812,90.6158447265625
0,19521,-26.207365036010742,-15.01961612701416,-47.540199279785156,-13.755570411682129
0,19524,-37.9559211730957,-25.161865234375,-25.135990142822266,-97.63607788085938
0,19525,21.243030548095703,23.49580955505371,38.455020904541016,-69.42384338378906
0,19528,20.37242317199707,12.828191757202148,-2.0175912380218506,110.09318542480469
0,19529,1.6403712034225464,25.740581512451172,17.750051498413086,41.76643371582031
0,19532,30.62563705444336,24.668376922607422,59.824371337890625,-60.066410064697266
0,19533,-7.095911502838135,-57.398197174072266,-21.86697769165039,41.01070022583008
0,19537,-41.3414421081543,-24.19866180419922,-60.63663101196289,134.20846557617188
0,19538,13.384676933288574,29.282642364501953,21.821813583374023,-69.49645233154297
0,19539,0.7908179759979248,15.330674171447754,42.33293533325195,-340.7382507324219
0,19542,-15.759095191955566,4.751358985900879,-49.96595001220703,137.54656982421875
0,19543,54.86446762084961,-2.8053619861602783,-45.614227294921875,342.9145812988281
0,19546,13.080044746398926,0.5072780847549438,53.04977035522461,-201.43333435058594
0,19547,-66.80955505371094,-6.40446138381958,43.74257278442383,-112.60165405273438
0,19550,-15.671074867248535,3.5986814498901367,0.9763235449790955,37.30899429321289
0,19551,36.27827453613281,-17.55215835571289,-51.25650405883789,-32.43058776855469
0,19554,-7.71171236038208,-14.625117301940918,-35.14982223510742,52.90624237060547
0,19555,-30.918668746948242,20.990036010742188,37.71727752685547,26.177875518798828
0,19558,21.015621185302734,-12.904304504394531,7.835874557495117,36.556068420410156
0,19559,5.3137102127075195,-13.297454833984375,-32.46923828125,-22.46194076538086
0,19562,-21.125343322753906,8.000510215759277,-4.534818649291992,-8.41604232788086
0,19563,55.202510833740234,3.654498338699341,56.464271545410156,103.96969604492188
0,19566,30.066165924072266,18.227294921875,22.472900390625,-29.87285804748535
0,19567,-64.52328491210938,9.460907936096191,-51.252357482910156,-155.99888610839844
0,19570,-22.9704532623291,-5.5693278312683105,0.7719489932060242,43.551387786865234
0,19571,8.60438346862793,-23.70331573486328,-8.347944259643555,69.64254760742188
0,19574,49.01091384887695,8.937769889831543,0.007806580513715744,24.351396560668945
0,19575,46.582786560058594,28.11737823486328,23.471500396728516,67.84577178955078
0,19578,-83.75761413574219,-21.620967864990234,-32.2578010559082,-286.6606140136719
0,19579,-44.78229904174805,-25.0067195892334,27.73927879333496,-142.71849060058594
0,19582,25.698619842529297,7.50356388092041,23.036195755004883,329.201171875
0,19583,6.146163463592529,20.989381790161133,-49.738685607910156,77.16597747802734
0,19586,51.27265167236328,0.4056113660335541,1.9829950332641602,-59.57345199584961
0,19587,-6.370081901550293,-1.925675630569458,22.67276382446289,31.668621063232422
0,19590,-27.741575241088867,19.484445571899414,13.72269344329834,-91.40066528320312
0,19591,63.53974533081055,25.201980590820312,32.8858757019043,-22.87188148498535
0,19594,-30.67290496826172,-48.6270866394043,-40.74336624145508,3.828962802886963
0,19595,-88.00410461425781,-29.750141143798828,-20.779151916503906,-0.8014631271362305
0,19598,38.551727294921875,33.909950256347656,-4.134337425231934,107.24761199951172
0,19599,48.60251998901367,-5.2695512771606445,-29.69858741760254,-30.88627052307129
0,19602,-30.244028091430664,-6.573324680328369,39.880348205566406,-92.49134826660156
0,19603,-9.01347827911377,7.37588357925415,36.6676025390625,29.673934936523438
0,19606,21.42879867553711,-3.4767847061157227,-16.193655014038086,41.7684211730957
0,19607,-17.7957820892334,-15.314654350280762,-53.18467712402344,-35.2104377746582
0,19610,-2.9454236030578613,6.535770416259766,-9.650418281555176,-10.843961715698242
0,19611,20.944480895996094,-4.307549476623535,48.02066421508789,12.621565818786621
0,19614,-1.3443934917449951,-1.6639412641525269,23.502328872680664,-2.247178792953491
0,19615,27.76858901977539,60.17349624633789,8.897170066833496,69.13308715820312
0,19618,-6.205529689788818,12.93916130065918,8.317035675048828,-0.08855073153972626
0,19619,-61.22592544555664,-66.44156646728516,-44.12556457519531,-71.85555267333984
0,19622,-1.0258735418319702,-29.483957290649414,-59.76560974121094,9.02076530456543
0,19623,32.579017639160156,16.95707130432129,45.926231384277344,30.11249351501465
0,19626,18.539148330688477,45.14742660522461,74.93621826171875,-6.624650478363037
0,19627,-21.05545997619629,13.357283592224121,-51.939422607421875,-2.3390848636627197
0,19630,-55.273353576660156,-69.00184631347656,-80.20818328857422,-39.382484436035156
0,19631,32.6275520324707,12.172597885131836,39.04146957397461,-9.522664070129395
0,19634,52.519161224365234,71.52467346191406,74.47593688964844,28.633901596069336
0,19635,-29.539094924926758,-22.55936050415039,-18.091167449951172,3.0573580265045166
0,19638,-8.391475677490234,-31.990829467773438,-26.107492446899414,33.74946975708008
0,19639,16.359882354736328,0.3331229090690613,13.697446823120117,-14.454325675964355
0,19642,18.320547103881836,19.613059997558594,5.560527324676514,-34.75804901123047
0,19643,15.451995849609375,13.191370964050293,6.560764312744141,20.400371551513672
0,19646,-45.683570861816406,-57.63978576660156,-41.29337692260742,-11.260208129882812
0,19647,-26.18075942993164,-28.725549697875977,-12.770171165466309,-37.703338623046875
0,19650,36.31879806518555,52.261844635009766,63.621910095214844,45.00664138793945
0,19651,10.7179594039917,26.97317123413086,5.7900261878967285,60.78622055053711
0,19654,-20.662487030029297,-34.640228271484375,-70.4071044921875,-43.96718978881836
0,19655,-4.394123077392578,-21.11777687072754,-42.908592224121094,-57.275203704833984
0,19658,8.530938148498535,47.573509216308594,79.984375,15.224638938903809
0,19659,6.4723591804504395,26.495458602905273,66.77915954589844,36.12773895263672
0,19662,-0.7931169271469116,-40.44291305541992,-68.20010375976562,13.188215255737305
0,19663,14.344223022460938,-10.128926277160645,-7.696100234985352,17.324665069580078
0,19666,18.998336791992188,35.8452033996582,52.331748962402344,-33.05082702636719
0,19667,-60.01200866699219,-28.217294692993164,-61.37034225463867,-119.5397720336914
0,19670,-17.59621238708496,-33.182796478271484,-41.655799865722656,109.9682388305664
0,19671,58.98037338256836,28.038049697875977,52.32295608520508,195.5023193359375
0,19674,-16.14461898803711,4.854047775268555,15.537774085998535,-152.57260131835938
0,19675,-9.590648651123047,12.200996398925781,-8.037032127380371,-161.81942749023438
0,19678,1.1685079336166382,17.415815353393555,-8.13648509979248,83.46630096435547
0,19679,-21.120866775512695,-29.82780647277832,-27.148406982421875,103.08280944824219
0,19682,37.615203857421875,-16.66640853881836,29.28922462463379,32.876651763916016
0,19683,10.96846866607666,49.46136474609375,39.884971618652344,-29.27712631225586
0,19686,-15.659079551696777,30.224103927612305,8.685422897338867,-136.58180236816406
0,19687,22.68720817565918,-6.381417751312256,35.18324661254883,0.9279306530952454
0,19690,-36.69647216796875,-53.48847961425781,-78.97792053222656,49.68327331542969
0,19691,-46.34249496459961,-72.27659606933594,-108.7437973022461,-42.198974609375
0,19694,66.93685913085938,46.23171615600586,90.30683135986328,140.591064453125
0,19695,27.821475982666016,41.099212646484375,53.0953483581543,15.97085952758789
0,19698,-36.011260986328125,-9.05752182006836,-72.15394592285156,-162.6511688232422
0,19699,-1.2043254375457764,15.747859001159668,9.774307250976562,7.655763149261475
0,19702,-5.273138999938965,-3.085658311843872,54.4420166015625,83.3636245727539
0,19703,14.159953117370605,-16.481618881225586,11.31777572631836,-0.559087872505188
0,19706,-2.2477450370788574,-26.902204513549805,-52.098934173583984,-54.26408386230469
0,19708,-25.40699577331543,-0.06362004578113556,-52.43883514404297,-46.06436538696289
0,19710,2.922985792160034,32.382102966308594,68.67694091796875,91.15973663330078
0,19712,14.932428359985352,14.055081367492676,57.400672912597656,74.06963348388672
0,19714,6.0637431144714355,2.386622428894043,-50.59457015991211,-108.38827514648438
0,19716,-3.756633758544922,-12.08822250366211,-7.068506240844727,-1.8862534761428833
0,19718,-16.498291015625,-19.185791015625,-6.808186054229736,28.843711853027344
0,19720,10.849590301513672,-5.858906269073486,-41.822513580322266,-35.18318557739258
0,19721,17.078304290771484,0.15491685271263123,12.564162254333496,21.136669158935547
0,19724,-28.451778411865234,4.702276229858398,18.789670944213867,38.28470230102539
0,19725,10.094170570373535,10.552577018737793,33.77028274536133,0.6085691452026367
0,19728,26.062711715698242,21.413619995117188,-4.344079494476318,-58.425235748291016
0,19729,-9.17234992980957,3.5714986324310303,-37.73535919189453,-3.283609628677368
0,19732,-1.5757849216461182,-34.40343475341797,6.175757884979248,64.0643539428711
0,19733,-12.004707336425781,-10.548009872436523,-2.0189616680145264,2.9029271602630615
0,19737,-19.896451950073242,15.45632553100586,27.69757652282715,-54.76271438598633
0,19737,14.239171028137207,5.595486164093018,15.340409278869629,-17.12395477294922
0,19740,19.869895935058594,8.804848670959473,-23.138378143310547,19.630373001098633
0,19741,-28.110929489135742,-19.33919334411621,-17.360153198242188,-7.330860614776611
0,19744,-3.437894582748413,-11.731047630310059,-2.1777431964874268,36.97935104370117
0,19745,39.955650329589844,32.05765151977539,37.777462005615234,60.15175247192383
0,19748,-17.91724967956543,15.045196533203125,5.035369396209717,-71.78125762939453
0,19749,-11.74903678894043,-0.6158178448677063,-39.27193069458008,-68.61742401123047
0,19752,-5.640780448913574,-33.28547286987305,0.4348074793815613,86.16352081298828
0,19753,-15.065216064453125,-32.03960037231445,2.248847007751465,6.760226726531982
0,19756,35.06211471557617,32.226741790771484,-12.429947853088379,-89.12255096435547
0,19757,-4.965583324432373,17.48775291442871,33.81494903564453,61.370479583740234
0,19760,3.9678685665130615,-11.229440689086914,8.670914649963379,56.61287307739258
0,19761,22.181060791015625,2.0633702278137207,-32.346519470214844,-3.001558542251587
0,19764,-33.2666015625,14.90656566619873,18.148862838745117,-28.562742233276367
0,19765,-32.575401306152344,-28.49437713623047,24.384431838989258,-93.94114685058594
0,19768,2.3572230339050293,-23.708288192749023,-36.02717208862305,10.88022232055664
0,19769,50.11461639404297,49.49678421020508,1.8131933212280273,93.99209594726562
0,19772,16.559856414794922,20.90914535522461,46.810787200927734,-10.131402015686035
0,19773,-48.25800704956055,-24.950239181518555,-36.1468391418457,-61.392677307128906
0,19776,-2.6341700553894043,-28.31123924255371,-63.70421600341797,24.907554626464844
0,19777,59.81060028076172,14.938961029052734,42.54206848144531,56.400779724121094
0,19780,-14.38734245300293,12.194900512695312,47.149166107177734,-7.369082927703857
0,19781,-59.809322357177734,-27.695640563964844,-34.32428741455078,-30.21148681640625
0,19784,48.05487060546875,35.57074737548828,15.141308784484863,-32.61601638793945
0,19785,12.24938678741455,13.048121452331543,4.51577091217041,-40.58292007446289
0,19788,-60.93198776245117,-61.308589935302734,-72.35901641845703,61.66132736206055
0,19789,18.84490966796875,22.521177291870117,13.83191967010498,52.79800033569336
0,19792,17.373672485351562,1.426966905593872,69.65853118896484,-52.73870849609375
0,19793,-2.0311639308929443,-40.9404182434082,10.37663745880127,-7.630126476287842
0,19796,5.761154651641846,52.89978790283203,-18.48341178894043,9.603777885437012
0,19797,-32.30218505859375,22.419055938720703,-38.00331115722656,-19.580108642578125
0,19800,29.665767669677734,-7.17439079284668,5.399643898010254,34.74406051635742
0,19801,40.619224548339844,-15.69382095336914,13.198163032531738,11.371729850769043
0,19804,-31.64181137084961,6.563553333282471,8.873680114746094,-22.205265045166016
0,19805,9.126439094543457,54.10057067871094,30.35761260986328,37.63674545288086
0,19808,-24.702606201171875,-55.62601089477539,-45.369667053222656,3.5027050971984863
0,19809,-31.376819610595703,-53.850364685058594,-17.083555221557617,-40.859764099121094
0,19812,55.588138580322266,71.88298797607422,49.07571029663086,-25.03378677368164
0,19813,7.598435401916504,27.294923782348633,10.69993782043457,-113.42356872558594
0,19816,-53.784698486328125,-75.31669616699219,-55.49260711669922,36.95162582397461
0,19817,-8.258804321289062,-22.63458824157715,-11.844682693481445,241.70266723632812
0,19820,30.678226470947266,49.83507537841797,41.714508056640625,-47.223426818847656
0,19821,6.384572982788086,-7.526923179626465,-29.925264358520508,-136.02401733398438
0,19824,-12.763717651367188,-25.150197982788086,-25.77365493774414,14.28387451171875
0,19825,13.655449867248535,23.119089126586914,25.750137329101562,30.000530242919922
0,19828,17.667739868164062,-3.924497127532959,37.808998107910156,43.3543815612793
0,19829,-25.138248443603516,-18.013797760009766,20.267253875732422,-8.9783935546875
0,19832,-9.922357559204102,33.72494888305664,-23.93785858154297,-11.839061737060547
0,19833,-2.5448453426361084,16.39598274230957,-59.070491790771484,-28.246477127075195
0,19836,3.6569998264312744,-32.59031677246094,6.741250514984131,-37.124481201171875
0,19837,46.328834533691406,-17.329010009765625,82.384033203125,29.95521354675293
0,19840,-3.290821075439453,23.22266387939453,-12.593563079833984,-52.68519592285156
0,19841,-54.15757751464844,24.500072479248047,-62.32676315307617,-40.190162658691406
0,19844,20.10831642150879,-2.9604711532592773,15.595935821533203,151.59725952148438
0,19845,28.11667823791504,-8.886784553527832,31.87115478515625,2.9751741886138916
0,19848,-52.509578704833984,-5.518312454223633,-29.929607391357422,-98.43206024169922
0,19849,2.35445237159729,12.894152641296387,-7.529179096221924,59.62559509277344
0,19852,39.11094284057617,-4.6236443519592285,46.967044830322266,25.90749168395996
0,19853,5.813735008239746,-24.379974365234375,10.808452606201172,-4.098465442657471
0,19856,-5.6725592613220215,4.676548957824707,-64.75761413574219,-9.883512496948242
0,19857,-37.352745056152344,3.470538854598999,-24.702293395996094,-39.1923713684082
0,19860,-9.140815734863281,-1.2227277755737305,68.20193481445312,-4.021447658538818
0,19861,20.432004928588867,-0.738758385181427,11.960023880004883,18.84243392944336
0,19864,25.22996711730957,-3.901885986328125,-32.5353889465332,-3.6293258666992188
0,19865,28.12425994873047,15.01352596282959,-6.849538803100586,-21.013042449951172
0,19868,-32.98591995239258,20.877689361572266,-10.841991424560547,23.916828155517578
0,19869,-41.952789306640625,-18.822425842285156,-9.653022766113281,-3.1275746822357178
0,19872,6.826608180999756,-54.02771759033203,9.50538444519043,38.72243118286133
0,19873,8.74567985534668,14.687504768371582,11.429768562316895,38.24065017700195
0,19876,53.51024627685547,87.80431365966797,36.03071594238281,-96.01692199707031
0,19877,30.69697380065918,-1.918710708618164,11.2249174118042,-42.024776458740234
0,19880,-63.931671142578125,-65.9832992553711,-25.401988983154297,62.533042907714844
0,19881,-29.7123966217041,-26.836626052856445,0.8318300247192383,38.89687728881836
0,19884,7.941208362579346,21.6876163482666,-3.1347501277923584,-45.154518127441406
0,19885,6.177907466888428,28.644323348999023,-5.965424537658691,-22.112106323242188
0,19888,19.774396896362305,-20.492462158203125,-23.62140655517578,23.10391616821289
0,19889,7.4737114906311035,15.297494888305664,-13.486844062805176,5.48314094543457
0,19892,-21.532590866088867,-3.2344095706939697,21.165451049804688,35.370296478271484
0,19893,5.960882186889648,-27.488332748413086,26.401424407958984,20.68724250793457
0,19896,18.7200870513916,32.9691047668457,38.24223709106445,-69.38581085205078
0,19898,-34.81745147705078,1.7711083889007568,-14.817357063293457,-50.444549560546875
0,19900,14.209380149841309,-11.98540210723877,-64.38033294677734,40.494388580322266
0,19902,2.704216241836548,-14.916720390319824,-41.67224884033203,20.6549129486084
0,19904,-12.50849437713623,11.087936401367188,51.236053466796875,13.994722366333008
0,19906,72.29747772216797,46.568603515625,71.85137939453125,33.715396881103516
0,19908,-24.3909969329834,-26.405231475830078,-57.85939407348633,-29.130184173583984
0,19910,-78.15534973144531,-33.05363464355469,-45.79861068725586,-71.35612487792969
0,19911,42.70587921142578,22.381778717041016,65.08418273925781,-1.840247631072998
0,19914,38.523380279541016,7.893069267272949,26.32192039489746,64.56059265136719
0,19915,-41.41569137573242,-11.735485076904297,-48.564796447753906,25.281137466430664
0,19918,-0.6579867601394653,8.840100288391113,-23.24973487854004,-2.3743271827697754
0,19919,6.9218268394470215,-7.750729560852051,24.843219757080078,-3.342139482498169
0,19922,-29.77037239074707,-7.162298679351807,34.701019287109375,-8.049149513244629
0,19923,14.053763389587402,4.572083950042725,-7.648731231689453,-1.3587620258331299
0,19926,5.218064308166504,-18.657238006591797,-65.90483093261719,-4.392092704772949
0,19927,-2.707066059112549,0.35260096192359924,-15.628299713134766,-0.6592341065406799
0,19930,12.181802749633789,-6.131831645965576,43.0172119140625,-53.66440200805664
0,19931,-22.883075714111328,-4.547133445739746,14.883580207824707,-13.212247848510742
0,19934,31.027267456054688,49.74630355834961,34.16682052612305,95.19862365722656
0,19935,42.814781188964844,9.41592788696289,-3.116265058517456,42.33277130126953
0,19938,-59.043087005615234,-34.10190200805664,-49.88900375366211,-49.77756881713867
0,19939,-32.21384048461914,16.621042251586914,11.871275901794434,-79.74788665771484
0,19942,33.2017822265625,5.58865213394165,14.797043800354004,-3.248491048812866
0,19943,-0.1390395164489746,-3.0600297451019287,1.5856338739395142,42.79424285888672
0,19946,10.83261775970459,14.733918190002441,24.966360092163086,6.7463507652282715
0,19947,23.418394088745117,-8.195208549499512,13.123269081115723,16.65469741821289
0,19950,-38.07648468017578,-27.927993774414062,-36.24908447265625,-30.359394073486328
0,19952,-9.680181503295898,-18.47043800354004,-50.6107292175293,-37.708213806152344
0,19953,36.7371711730957,29.4346923828125,26.87542724609375,44.791385650634766
0,19956,-8.324749946594238,9.32197380065918,15.032934188842773,30.866104125976562
0,19957,-13.077649116516113,-2.4484975337982178,-22.151025772094727,18.090612411499023
0,19960,-13.943856239318848,2.500063419342041,35.99762725830078,-29.203216552734375
0,19961,-4.573662281036377,-43.57883071899414,1.9792250394821167,-40.66092300415039
0,19964,4.7503862380981445,-6.152011394500732,-69.51016998291016,39.48011016845703
0,19965,16.98012351989746,24.642030715942383,10.057517051696777,14.962434768676758
0,19968,17.642040252685547,-12.3880033493042,22.186946868896484,-1.5379103422164917
0,19969,-13.014008522033691,24.372373580932617,-7.261745452880859,3.755962371826172
0,19972,7.222149848937988,38.27117919921875,78.82933807373047,-33.57296371459961
0,19973,-20.42512321472168,-31.90019416809082,-9.033476829528809,-28.898658752441406
0,19976,-0.030459782108664513,-18.84532356262207,-79.297119140625,9.809962272644043
0,19977,14.963208198547363,12.384201049804688,21.02522087097168,4.576702117919922
0,19980,-18.718719482421875,7.263624668121338,50.9993782043457,15.54758071899414
0,19981,15.830912590026855,-4.493447780609131,-32.412818908691406,27.149402618408203
0,19984,25.50578498840332,11.764588356018066,-7.8352837562561035,-19.498306274414062
0,19985,6.243748188018799,9.50158977508545,47.2459831237793,-25.261320114135742
0,19988,-49.61055374145508,-52.3966178894043,-23.718420028686523,17.93790054321289
0,19989,-35.82917785644531,-1.0305579900741577,-25.666847229003906,-44.447086334228516
0,19992,72.51590728759766,51.74850082397461,10.81478214263916,10.235625267028809
0,19993,33.42909240722656,-4.1955037117004395,39.5930290222168,124.36449432373047
0,19996,-71.08467102050781,-31.67374610900879,-66.80451202392578,-44.58556365966797
0,19997,2.2096948623657227,19.010284423828125,-75.0248794555664,-58.695098876953125
0,20000,40.72212219238281,20.276891708374023,118.5907211303711,33.37935256958008
0,20001,-63.0899772644043,-48.49888610839844,-1.736901044845581,-31.584228515625
0,20004,8.431380271911621,-11.55354118347168,-75.51527404785156,9.61475658416748
0,20005,76.03588104248047,37.4411506652832,88.0123291015625,34.68366622924805
0,20008,-19.891845703125,14.433009147644043,8.499781608581543,-27.606008529663086
0,20009,-43.68918228149414,-3.002687692642212,-76.14114379882812,-103.34053039550781
0,20012,-2.4622576236724854,-15.885649681091309,-8.015968322753906,54.557735443115234
0,20013,15.831257820129395,3.722923994064331,24.71516990661621,159.6352081298828
0,20016,-12.150954246520996,-8.589757919311523,35.61075973510742,-91.6181640625
0,20017,1.8946088552474976,-10.617133140563965,23.126667022705078,-26.16053581237793
0,20020,13.081133842468262,31.001733779907227,-8.170167922973633,42.33698272705078
0,20021,-1.1782411336898804,-17.371017456054688,-45.13360595703125,-79.73991394042969
0,20024,17.15460777282715,-15.66140079498291,-18.813661575317383,35.134761810302734
0,20025,0.4657174348831177,25.58772850036621,42.03041458129883,86.760009765625
0,20028,-33.57974624633789,-11.176973342895508,18.578569412231445,-43.99520492553711
0,20029,8.684505462646484,22.384563446044922,-2.7749738693237305,-56.29020690917969
0,20032,49.63114547729492,14.35642147064209,-9.593423843383789,59.54950714111328
0,20033,-13.015460014343262,-45.045440673828125,-8.489953994750977,-0.8969452977180481
0,20036,-39.333106994628906,26.136985778808594,33.13479995727539,-63.526611328125
0,20037,-18.608903884887695,23.111677169799805,-17.63021469116211,-2.7727785110473633
0,20040,21.2421875,-37.41581726074219,-30.66084098815918,23.24370765686035
0,20041,27.971616744995117,-2.5627901554107666,-10.437302589416504,12.034990310668945
0,20044,-43.8415641784668,-16.38576889038086,-13.661139488220215,-28.2711238861084
0,20045,-17.245512008666992,-30.52252769470215,2.6334879398345947,-45.36080551147461
0,20048,33.342227935791016,18.014705657958984,-10.14295768737793,37.37037658691406
0,20049,-12.090991973876953,18.377487182617188,29.874675750732422,70.44530487060547
0,20052,-0.766277551651001,8.029338836669922,25.795726776123047,-26.99747657775879
0,20053,50.66923141479492,35.14994812011719,-11.566600799560547,-6.575748443603516
0,20056,-4.698348522186279,6.138562202453613,-25.17060089111328,-8.096625328063965
0,20057,-40.01876449584961,-38.05482864379883,-1.6231979131698608,-61.857696533203125
0,20060,20.50995445251465,-5.596248626708984,44.11335372924805,41.67943572998047
0,20061,2.6125049591064453,-11.41258716583252,-6.775562286376953,53.42211151123047
0,20064,-8.240019798278809,-2.157745838165283,-31.908201217651367,-3.955112934112549
0,20065,17.566020965576172,58.881675720214844,40.41239929199219,11.788414001464844
0,20068,-16.01934814453125,7.423920631408691,10.489319801330566,1.0689972639083862
0,20069,-13.755494117736816,-38.207035064697266,-63.042118072509766,-29.99141502380371
0,20072,-0.9641128182411194,-26.24761962890625,9.407723426818848,-46.74916458129883
0,20073,24.34316635131836,10.81607723236084,57.81771469116211,21.707416534423828
0,20076,16.047149658203125,18.90734100341797,-19.633121490478516,17.950712203979492
0,20077,-23.033864974975586,-17.59449005126953,-31.030664443969727,-33.91697311401367
0,20080,-22.634143829345703,-2.782406806945801,-0.816679060459137,29.369361877441406
0,20081,-43.554542541503906,-29.485036849975586,-50.48027420043945,4.196120738983154
0,20084,54.077022552490234,20.898771286010742,38.288490295410156,-6.886636257171631
0,20085,74.92471313476562,64.8291015625,92.90335083007812,18.84766960144043
0,20088,-95.35423278808594,-37.82019805908203,-59.348731994628906,-50.01753234863281
0,20089,-9.794573783874512,-1.28146231174469,-20.542150497436523,-0.3075219392776489
0,20092,88.28199005126953,46.357276916503906,50.18276596069336,61.72755813598633
0,20093,-36.31720733642578,-69.54767608642578,-21.44923973083496,46.26842498779297
0,20096,-52.37837219238281,-61.21001434326172,-46.38684844970703,-13.21064567565918
0,20097,7.580151081085205,60.41447830200195,-20.370193481445312,-109.74454498291016
0,20100,44.55363845825195,50.48000717163086,51.55622482299805,-4.735009670257568
0,20101,9.74759292602539,-13.804033279418945,36.47773742675781,38.34939193725586
0,20104,-7.755766868591309,-7.126389503479004,-28.05837631225586,11.956759452819824
0,20105,29.265853881835938,23.304737091064453,14.257145881652832,70.60419464111328
0,20108,-41.31269073486328,-15.7913236618042,-0.9259843826293945,-17.83989715576172
0,20109,-36.60183334350586,-48.31425476074219,-42.576045989990234,-124.8076171875
0,20112,15.54519271850586,-15.996618270874023,-1.3495807647705078,-18.640911102294922
0,20113,4.3549957275390625,25.156675338745117,2.4219601154327393,100.24901580810547
0,20116,10.458212852478027,44.06464767456055,16.458097457885742,21.61188507080078
0,20117,6.650366306304932,-0.03609507530927658,35.64201736450195,19.516986846923828
0,20120,13.486411094665527,-18.863201141357422,-25.3610782623291,8.943818092346191
0,20121,-21.798982620239258,-2.9694390296936035,-28.13885498046875,-10.027043342590332
0,20124,-11.54257869720459,-5.566969871520996,10.697278022766113,-19.34111976623535
0,20125,30.838720321655273,5.9368815422058105,-2.2670352458953857,-142.4802703857422
0,20128,-13.258194923400879,9.722482681274414,-4.969504356384277,38.67540740966797
0,20129,3.9573168754577637,2.9151718616485596,-10.620327949523926,186.5802459716797
0,20132,11.168835639953613,-19.822187423706055,13.319771766662598,-66.3255615234375
0,20133,-5.247840404510498,-11.73913860321045,42.53190231323242,-82.05767822265625
0,20136,-6.62028169631958,2.280433177947998,-0.5111358165740967,45.2636604309082
0,20137,-34.733951568603516,-8.43592643737793,-43.884761810302734,-3.4523775577545166
0,20140,14.165390968322754,27.105863571166992,-3.1384541988372803,-39.562721252441406
0,20141,30.1608829498291,-0.19304043054580688,36.08535385131836,11.667683601379395
0,20144,16.91754150390625,-3.312525510787964,31.322378158569336,32.95444107055664
0,20145,-14.27993392944336,31.544984817504883,-7.068262100219727,-3.9553160667419434
0,20148,-63.99226760864258,-48.012474060058594,-64.59026336669922,19.55892562866211
0,20149,1.0120621919631958,-45.35881805419922,-32.65106201171875,15.531283378601074
0,20152,67.0621109008789,54.25897216796875,62.11729049682617,-25.127910614013672
0,20153,-18.011396408081055,20.49671745300293,17.068641662597656,-56.77564239501953
0,20156,-60.537532806396484,-24.573471069335938,-63.656883239746094,-8.376282691955566
0,20157,53.53041076660156,40.09505844116211,29.513896942138672,51.43882751464844
0,20160,39.87315368652344,11.68149185180664,30.371217727661133,27.82041358947754
0,20161,-30.27142333984375,-27.226951599121094,-17.692533493041992,-19.04163360595703
0,20164,-1.3208917379379272,-11.674300193786621,23.152677536010742,-28.248380661010742
0,20165,-4.459045886993408,-17.110532760620117,-19.897964477539062,12.992554664611816
0,20168,-10.038207054138184,22.343088150024414,28.811655044555664,59.861427307128906
0,20170,2.0425755977630615,-10.866548538208008,-8.741276741027832,11.21634292602539
0,20172,23.566143035888672,-15.880270004272461,-89.25652313232422,-66.95186614990234
1,20174,17.358339309692383,35.31427764892578,23.55738639831543,-12.900650978088379
1,20178,-44.74766159057617,-17.58948516845703,46.15261459350586,15.892269134521484
1,20178,-14.665205001831055,-6.846717357635498,47.113929748535156,1.9398024082183838
1,20179,45.42813491821289,27.651050567626953,-21.074176788330078,10.303644180297852
1,20182,0.10880593955516815,-25.080394744873047,-73.70311737060547,-27.137592315673828
1,20183,-31.153409957885742,-25.011306762695312,10.620640754699707,-38.3537483215332
1,20186,-6.657166481018066,28.876075744628906,48.92167663574219,33.377159118652344
1,20187,5.026372909545898,19.8953800201416,-13.370444297790527,40.627220153808594
1,20190,17.001728057861328,-9.198709487915039,-32.716033935546875,-1.9316719770431519
1,20191,20.87713623046875,-6.486961841583252,28.911258697509766,-0.14857493340969086
1,20194,-8.773815155029297,-6.8542046546936035,14.918843269348145,-16.282535552978516
1,20195,-3.9882214069366455,-10.424793243408203,3.9935340881347656,-17.051605224609375
1,20198,1.5563982725143433,-3.0405449867248535,0.7354496121406555,24.17474937438965
1,20199,-33.05234909057617,28.18009376525879,-21.80463409423828,2.786778211593628
1,20202,12.0848388671875,19.35986328125,-19.319761276245117,-43.409080505371094
1,20203,26.577199935913086,-27.750064849853516,11.195253372192383,34.69438934326172
1,20206,-22.489337921142578,-26.86565399169922,24.6690731048584,20.091630935668945
1,20207,-8.659271240234375,21.32114028930664,-10.885185241699219,-47.86901092529297
1,20210,-0.5345728397369385,30.958660125732422,1.4170054197311401,28.507339477539062
1,20211,-0.24522659182548523,-28.597917556762695,-0.7288739085197449,-21.943681716918945
1,20214,34.028358459472656,-0.23768383264541626,10.940218925476074,-22.021312713623047
1,20215,4.642640590667725,26.416072845458984,12.405350685119629,81.62718963623047
1,20218,-36.674598693847656,-30.872159957885742,-69.27999877929688,-24.32876205444336
1,20219,4.618410587310791,-22.439640045166016,-12.404803276062012,-65.6685562133789
1,20222,3.083470344543457,5.484009265899658,60.579383850097656,3.565779209136963
1,20223,-17.84914779663086,9.846566200256348,2.556741237640381,32.501861572265625
1,20226,26.478687286376953,19.424070358276367,9.27462387084961,76.08891296386719
1,20227,8.409802436828613,22.454570770263672,6.165955543518066,0.29227185249328613
1,20230,-42.48167037963867,-11.824013710021973,-47.845314025878906,-91.03015899658203
1,20231,19.713193893432617,-10.2142915725708,27.459245681762695,-12.09816837310791
1,20234,-3.896214246749878,-20.72857093811035,12.692721366882324,38.31483840942383
1,20235,-15.226652145385742,-0.9084401726722717,-30.895723342895508,23.15436363220215
1,20238,33.351802825927734,36.18853759765625,3.9725215435028076,16.505329132080078
1,20239,-13.283435821533203,-41.48208236694336,-0.4107186198234558,-1.706343173980713
1,20242,19.98480987548828,5.08060884475708,28.9937686920166,-10.55777359008789
1,20243,6.64087438583374,39.29567337036133,-22.900793075561523,-27.35356903076172
1,20246,-15.862648963928223,-29.985767364501953,-14.904470443725586,-124.03704833984375
1,20247,15.132621765136719,5.956812858581543,40.724971771240234,-10.338220596313477
1,20250,-3.6785173416137695,15.61733341217041,-17.080001831054688,231.48948669433594
1,20251,-2.8349733352661133,-29.88317108154297,-19.420475006103516,24.319990158081055
1,20254,-13.256688117980957,8.163978576660156,11.952717781066895,-140.91693115234375
1,20255,16.120365142822266,57.273441314697266,35.578697204589844,-27.367151260375977
1,20258,10.267680168151855,-13.249795913696289,24.426429748535156,36.165401458740234
1,20259,-60.878353118896484,-57.51108932495117,-80.99819946289062,35.7061653137207
1,20262,13.920906066894531,13.023630142211914,-33.05216979980469,-9.913251876831055
1,20263,45.54697036743164,12.606534004211426,71.00074768066406,34.65664291381836
1,20266,-25.5390625,-33.85661697387695,9.77261734008789,9.72295093536377
1,20267,-1.975653886795044,-5.303403377532959,-33.40605163574219,-95.86029815673828
1,20270,1.65072762966156,21.206514358520508,-20.285213470458984,-111.02528381347656
1,20271,9.455554962158203,28.152034759521484,19.413660049438477,44.8066291809082
1,20274,15.565173149108887,-13.949271202087402,19.730731964111328,183.53428649902344
1,20275,-29.219839096069336,-39.84740447998047,-12.325618743896484,-11.311155319213867
1,20278,-11.612714767456055,39.69755554199219,4.071236610412598,-95.05618286132812
1,20279,20.476694107055664,22.776264190673828,9.316766738891602,24.817829132080078
1,20282,14.625667572021484,-46.632904052734375,-10.579381942749023,28.566682815551758
1,20283,-11.984299659729004,13.419139862060547,-5.2067155838012695,0.9320971369743347
1,20286,-35.30661392211914,20.166133880615234,12.0724458694458,-9.981335639953613
1,20287,16.799734115600586,-3.9218358993530273,-1.373321294784546,25.296606063842773
1,20290,38.93910217285156,12.360880851745605,-13.366653442382812,-12.616848945617676
1,20291,-21.970937728881836,-14.29754638671875,19.34754180908203,-62.93470001220703
1,20294,-7.441770553588867,1.9619489908218384,10.002731323242188,11.300374031066895
1,20295,17.6462459564209,-11.772579193115234,-21.20684051513672,35.914371490478516
1,20298,-18.22647476196289,-11.794177055358887,-5.1371965408325195,-2.202188014984131
1,20299,-4.894626140594482,36.76227569580078,6.222280502319336,-12.431562423706055
1,20302,3.0282185077667236,-18.8922176361084,-7.887479782104492,-24.55202293395996
1,20303,-3.4575226306915283,-12.104763984680176,-13.264654159545898,11.047455787658691
1,20306,21.711637496948242,17.534854888916016,38.41561508178711,41.5029296875
1,20307,-7.820309638977051,-24.38503646850586,45.86448669433594,-23.565773010253906
1,20562,-14.707039833068848,-3.704542398452759,-47.8917121887207,-44.57727813720703
1,20565,8.151960372924805,19.089372634887695,-61.22945785522461,7.933753967285156
1,20566,-19.8446102142334,-0.6830207705497742,23.37175750732422,26.271713256835938
1,20569,26.86835289001465,1.2113795280456543,20.3626651763916,17.663280487060547
1,20570,27.866859436035156,5.193033218383789,-11.25594711303711,28.213592529296875
1,20573,-33.5104866027832,-1.2174819707870483,6.208765983581543,4.1693949699401855
1,20574,5.821060657501221,8.7247953414917,-7.939990997314453,-100.18161010742188
1,21624,15.3341703414917,0.3562532663345337,8.4609956741333,-1.0249078273773193
1,21624,-1.1410118341445923,-10.94454574584961,22.023357391357422,129.0636444091797
1,21626,-18.626462936401367,-31.81177520751953,-28.143789291381836,-19.57732391357422
1,21628,-11.4269437789917,9.273868560791016,4.692300319671631,-47.91815185546875
1,21630,19.495073318481445,60.66558074951172,46.785377502441406,0.8731383085250854
1,21632,-8.422418594360352,-16.867767333984375,-10.984869003295898,-33.30980682373047
1,21634,-16.583736419677734,-38.8421745300293,-60.860355377197266,0.8266062140464783
1,21636,26.046314239501953,39.06927490234375,11.007209777832031,35.891265869140625
1,21638,4.286472320556641,-3.5602657794952393,25.46452522277832,-5.841629505157471
1,21640,-45.6864128112793,-59.80241775512695,-23.725080490112305,-19.53085708618164
1,21642,8.026984214782715,16.332962036132812,20.508655548095703,-6.437935829162598
1,21644,31.41338348388672,42.89113998413086,1.1366125345230103,2.6558094024658203
1,21646,-8.615760803222656,-10.984179496765137,-19.208900451660156,31.9896297454834
1,21648,-21.932594299316406,-39.5234375,6.944188117980957,-4.388879299163818
1,21650,6.4447174072265625,9.4576997756958,-1.484108805656433,-25.144927978515625
1,21652,40.3255500793457,48.517669677734375,27.998069763183594,11.404305458068848
1,21654,-11.446100234985352,-10.530355453491211,25.576759338378906,19.320056915283203
1,21656,-21.808269500732422,-26.149782180786133,-49.20424270629883,1.567237138748169
1,21658,32.238670349121094,10.334614753723145,2.159468173980713,2.638657331466675
1,21660,-18.87470054626465,-18.456531524658203,19.21078872680664,-38.23941421508789
1,21662,-17.628814697265625,-7.337076187133789,-20.602521896362305,-27.772443771362305
1,21664,24.597572326660156,39.41205978393555,25.498083114624023,54.23812484741211
1,21666,-35.313636779785156,-12.25186538696289,-17.293493270874023,3.461940288543701
1,21668,9.86760139465332,7.953771114349365,-24.965782165527344,8.033008575439453
1,21670,49.42477035522461,39.49067687988281,16.07105827331543,8.882513046264648
1,21672,-41.65872573852539,-54.1910285949707,-5.914755344390869,-52.15550231933594
1,21674,-15.737112998962402,-34.06238555908203,30.88512420654297,12.785908699035645
1,21676,45.327449798583984,28.077619552612305,13.79510498046875,16.66874122619629
1,21678,-10.295496940612793,27.27024269104004,-37.470069885253906,-6.739202499389648
1,21680,-13.667776107788086,8.236180305480957,15.143561363220215,7.914517879486084
1,21682,10.542525291442871,-18.281455993652344,-4.1767096519470215,17.37369155883789
1,21684,11.672443389892578,13.429210662841797,-15.387174606323242,1.1471259593963623
1,21686,1.1631090641021729,7.014652252197266,17.796005249023438,-32.722129821777344
1,21688,-48.216392517089844,-37.313926696777344,-22.763717651367188,14.884485244750977
1,21690,7.909340858459473,-10.5487642288208,-17.234899520874023,24.64789390563965
1,21692,40.82609176635742,30.52066421508789,31.958250045776367,-38.226470947265625
1,21694,-10.470924377441406,10.381170272827148,30.341264724731445,-6.423027992248535
1,21696,-27.672454833984375,-25.345930099487305,-36.594322204589844,27.740148544311523
1,21698,-24.1048583984375,-28.725048065185547,-41.88134765625,-20.978605270385742
1,21700,35.193687438964844,24.639535903930664,52.78480911254883,-8.147245407104492
1,21702,25.439916610717773,27.622262954711914,37.90460205078125,37.185264587402344
1,21704,-17.985734939575195,-25.881147384643555,-28.11162567138672,-13.920254707336426
1,21706,-3.342327356338501,8.405099868774414,-12.265886306762695,-33.5775260925293
1,21708,2.2738585472106934,9.272645950317383,-15.31405258178711,26.10881996154785
1,21710,17.662601470947266,-8.610563278198242,8.24258041381836,5.558789253234863
1,21712,-16.604930877685547,-2.5210556983947754,13.369298934936523,-16.12310028076172
1,21714,-31.802753448486328,-23.37198829650879,-19.19296646118164,13.964814186096191
1,21716,24.48687744140625,7.727647304534912,-8.757091522216797,6.751009464263916
1,21718,20.91660499572754,40.19770431518555,26.771133422851562,-12.610239028930664
1,21720,-2.5026352405548096,24.72368812561035,39.2718391418457,-15.655623435974121
1,21722,-17.49410057067871,-41.48677062988281,-48.714256286621094,2.6533825397491455
1,21724,-11.748615264892578,-44.8875732421875,-28.875036239624023,29.352558135986328
1,21726,11.985208511352539,30.0946102142334,25.25751495361328,3.1533596515655518
1,21728,-1.1302238702774048,15.917293548583984,-12.359162330627441,-8.195655822753906
1,21730,20.76985740661621,-16.673925399780273,22.982210159301758,-17.774620056152344
1,21732,-8.589542388916016,-3.1614577770233154,30.03034210205078,-34.450035095214844
1,21734,-33.81495666503906,7.756778717041016,-6.116455078125,44.789363861083984
1,21736,21.72110366821289,7.919091701507568,-56.8504524230957,17.604711532592773
1,21738,30.44501495361328,15.07594108581543,10.461270332336426,-39.13116455078125
1,21740,4.461648941040039,0.6017597913742065,38.9299430847168,18.958101272583008
1,21742,-27.169723510742188,-26.593162536621094,-70.51200103759766,23.702186584472656
1,21744,-26.68791961669922,-9.767631530761719,27.893924713134766,-16.50878143310547
1,21746,-12.148200035095215,-3.5200934410095215,62.72475051879883,-8.10007095336914
1,21748,33.39741134643555,30.067768096923828,-33.27301025390625,32.156883239746094
1,21750,56.77311706542969,35.168922424316406,7.197992324829102,-12.432827949523926
1,21752,-35.81890106201172,-45.040103912353516,-3.020273208618164,-27.58210563659668
1,21754,-54.046897888183594,-4.2560834884643555,-20.77499771118164,-6.7523369789123535
1,21756,13.683067321777344,13.149165153503418,21.193010330200195,6.350133419036865
1,21758,27.538978576660156,-38.74240493774414,-8.49251937866211,34.85728073120117
1,21760,5.815340518951416,20.48883056640625,-10.057291984558105,-8.233622550964355
1,21762,-19.272016525268555,14.97103500366211,7.149938106536865,-20.526729583740234
1,21763,9.909466743469238,-6.96937894821167,-10.011977195739746,20.668180465698242
1,21766,-4.270019054412842,-1.1629056930541992,-8.437453269958496,-28.83896827697754
1,21767,-36.29277801513672,-6.538185119628906,-7.140237331390381,-30.630884170532227
1,21770,31.176481246948242,22.2912654876709,32.14765548706055,42.64242172241211
1,21771,26.576669692993164,-5.949718475341797,43.909114837646484,17.117740631103516
1,21774,4.081822395324707,-8.54401683807373,-20.259313583374023,18.624784469604492
1,21775,-17.816068649291992,8.759716987609863,-75.87567901611328,-31.84387969970703
1,21778,-17.763137817382812,4.258403778076172,9.822562217712402,-79.5404281616211
1,21779,34.28628158569336,25.654747009277344,93.24725341796875,-2.7980635166168213
1,21782,-12.16072940826416,-24.098697662353516,-35.47185134887695,74.31050872802734
1,21783,11.310043334960938,-36.31629180908203,-53.92192077636719,61.65894317626953
1,21788,-26.493144989013672,8.615652084350586,34.909645080566406,-38.79431915283203
1,21788,-51.57258605957031,-6.075456142425537,-5.605268955230713,-32.19865417480469
1,21789,51.614009857177734,1.3867895603179932,-31.620492935180664,32.7022705078125
1,21792,32.29966354370117,24.08308982849121,20.7547550201416,14.053367614746094
1,21793,1.3692498207092285,18.09454917907715,50.735443115234375,-121.94090270996094
1,21796,-30.021615982055664,-10.176251411437988,-22.003305435180664,-7.477717399597168
1,21797,-32.92683410644531,-37.96849060058594,-73.72176361083984,190.77578735351562
1,21800,21.51625633239746,-15.844771385192871,5.441233158111572,-16.284282684326172
1,21801,18.588687896728516,51.83856964111328,58.609588623046875,-101.66073608398438
1,21804,14.118772506713867,43.1999626159668,43.52182388305664,25.882545471191406
1,21805,-5.070888519287109,-47.42201614379883,-13.382452964782715,17.12593650817871
1,21808,-11.894774436950684,-15.268227577209473,-26.116291046142578,-16.563852310180664
1,21809,-17.229761123657227,20.33281898498535,-9.492050170898438,3.4262871742248535
1,21812,-12.480257034301758,-41.20140838623047,-51.181941986083984,-10.628968238830566
1,21813,39.75893783569336,20.315332412719727,37.14225769042969,4.865860462188721
1,21816,-8.866129875183105,59.85469055175781,56.86197280883789,58.999385833740234
1,21817,-34.254676818847656,-54.107154846191406,-51.5340576171875,-15.924453735351562
1,21820,19.43553352355957,-37.43931579589844,3.6208534240722656,-97.99574279785156
1,21821,20.38859748840332,30.247095108032227,33.102962493896484,-23.626462936401367
1,21824,-6.797616958618164,-5.931244850158691,-11.609574317932129,94.58717346191406
1,21825,-11.129230499267578,18.628562927246094,-37.989566802978516,27.932470321655273
1,21828,16.49001121520996,31.932355880737305,-18.54793357849121,-56.53409194946289
1,21829,21.354257583618164,3.5143065452575684,35.956321716308594,-11.874149322509766
1,21832,-16.474714279174805,-39.83280563354492,-13.734541893005371,4.446608066558838
1,21833,-17.24894905090332,-16.3861141204834,22.357646942138672,53.09056854248047
1,21836,11.8019380569458,53.43001174926758,38.10612869262695,8.935529708862305
1,21837,2.1567208766937256,-7.307249069213867,-45.462100982666016,-40.90038299560547
1,21840,-19.30078887939453,-30.021053314208984,-9.078751564025879,-2.9773313999176025
1,21841,-14.229555130004883,-7.52946138381958,-15.506577491760254,-18.46731948852539
1,21844,34.175071716308594,0.06109405308961868,26.731935501098633,5.556640148162842
1,21845,8.179892539978027,28.22519302368164,59.019981384277344,40.004180908203125
1,21848,-23.953014373779297,-15.429438591003418,-50.609615325927734,12.085126876831055
1,21849,23.41605567932129,-26.29544448852539,-61.033206939697266,-22.440214157104492
1,21852,-20.82623291015625,14.452549934387207,27.159387588500977,-25.259963989257812
1,21853,-23.37608528137207,-22.39417839050293,43.82002258300781,-29.433616638183594
1,21856,20.875202178955078,-16.16269302368164,-2.7734320163726807,-1.1330409049987793
1,21857,-1.7249525785446167,65.58797454833984,2.7267751693725586,34.99879837036133
1,21860,7.776797294616699,21.107881546020508,-8.21469783782959,15.297412872314453
1,21861,4.1640143394470215,-21.536890029907227,6.451962471008301,-15.979557037353516
1,21864,-5.235235214233398,15.038966178894043,0.9133678674697876,-0.09378061443567276
1,21865,2.4496829509735107,-20.080881118774414,-41.30648422241211,38.298213958740234
1,21868,2.0832090377807617,-20.776615142822266,17.354564666748047,-0.8941920399665833
1,21869,-13.248315811157227,-6.100790500640869,6.144688129425049,-35.78373336791992
1,21872,-3.2067008018493652,-1.3076791763305664,-21.052692413330078,30.6822452545166
1,21873,18.110261917114258,6.477348804473877,-2.414642095565796,6.193749904632568
1,21876,-10.32939624786377,3.571436643600464,6.176851272583008,-75.44834899902344
1,21877,11.992934226989746,9.994961738586426,44.94823455810547,4.169196128845215
1,21880,34.196678161621094,2.758613109588623,-4.966782093048096,49.255027770996094
1,21881,-7.459678649902344,9.928731918334961,-30.14438819885254,16.358322143554688
1,21884,-56.101810455322266,-32.187076568603516,-2.8681070804595947,-17.370460510253906
1,21885,-37.90348434448242,-23.285554885864258,-13.369232177734375,-65.19181823730469
1,21888,59.30427551269531,53.78868103027344,31.296100616455078,13.518375396728516
1,21889,40.07178497314453,21.198896408081055,60.2868537902832,44.58089065551758
1,21892,-40.085914611816406,-10.335865020751953,-46.78827667236328,10.74036693572998
1,21893,-13.842438697814941,8.451325416564941,-71.85612487792969,1.0786386728286743
1,21896,6.334596157073975,-41.21489715576172,36.45744705200195,-8.643970489501953
1,21897,-11.016155242919922,-36.91047286987305,13.464292526245117,14.180267333984375
1,21900,25.371070861816406,56.90837097167969,-22.7346134185791,27.92589569091797
1,21901,56.59869384765625,42.21867752075195,40.33003234863281,-3.2874491214752197
1,21904,-47.36681365966797,-76.71429443359375,-6.499613285064697,-56.6519889831543
1,21905,-71.69596862792969,-27.826107025146484,-59.67350387573242,-6.518624782562256
1,21908,42.256038665771484,74.32675170898438,39.817039489746094,6.958619594573975
1,21909,38.338722229003906,-0.24715939164161682,42.2216911315918,-32.830772399902344
1,21912,-12.575793266296387,-43.673797607421875,-10.096672058105469,40.843929290771484
1,21913,-32.7732048034668,-3.7172696590423584,-8.401811599731445,48.30955123901367
1,21916,3.881819009780884,17.579851150512695,0.6522422432899475,-29.700387954711914
1,21918,44.302452087402344,3.448949098587036,24.622432708740234,-6.303659915924072
1,21920,12.53221607208252,10.067887306213379,-16.42381477355957,44.31001663208008
1,21922,-27.794538497924805,12.46764850616455,-52.43251037597656,0.8797096610069275
1,21924,-34.049278259277344,-0.4502426087856293,5.343778610229492,-93.25340270996094
1,21926,-1.3726080656051636,27.467424392700195,31.020692825317383,-21.049047470092773
1,21928,-12.889191627502441,-38.24323272705078,-5.845081806182861,12.581718444824219
1,21930,-1.1873451471328735,-59.31564712524414,4.438982009887695,-52.538150787353516
1,21931,49.95634078979492,31.773681640625,14.385713577270508,81.36441040039062
1,21934,11.330196380615234,5.325920581817627,-19.620237350463867,111.62057495117188
1,21935,-23.170928955078125,-20.27476692199707,-43.79192352294922,-24.038875579833984
1,21938,-11.192042350769043,10.733477592468262,4.51564884185791,-115.27436065673828
1,21939,5.954068660736084,33.22047424316406,32.41930389404297,-21.584142684936523
1,21942,32.90837097167969,10.23673152923584,-7.581040382385254,80.95162200927734
1,21943,12.325014114379883,-44.18135452270508,-9.261194229125977,1.9120924472808838
1,21946,-23.513750076293945,6.940921306610107,20.6480770111084,13.529617309570312
1,21947,-16.96161460876465,44.56214904785156,14.260797500610352,2.4233267307281494
1,21950,-18.310205459594727,-3.5179715156555176,2.3017125129699707,-39.3383903503418
1,21951,-40.21445083618164,-39.92231369018555,-12.448182106018066,-8.984871864318848
1,21954,19.382081985473633,7.421187877655029,-13.760150909423828,8.356840133666992
1,21955,58.75843811035156,19.11581039428711,15.315065383911133,25.756433486938477
1,21958,-35.265785217285156,-56.052818298339844,-9.920489311218262,-25.82573699951172
1,21959,-28.93122100830078,2.4150257110595703,-0.33827659487724304,-9.76596736907959
1,21962,53.11965560913086,36.49686050415039,11.660565376281738,51.358585357666016
1,21963,10.163887023925781,9.008995056152344,1.9207394123077393,-40.07366180419922
1,21966,5.696483612060547,35.513641357421875,41.270164489746094,9.93124771118164
1,21967,38.10668182373047,8.537507057189941,-8.188980102539062,82.58412170410156
1,21970,0.05195057392120361,-11.020367622375488,-35.884300231933594,-20.932172775268555
1,21971,-7.431082725524902,-7.027620315551758,12.3823881149292,-12.599647521972656
1,21974,-58.64289093017578,-48.59455108642578,-39.908058166503906,-93.80304718017578
1,21975,-65.34597778320312,-34.61904525756836,-23.332731246948242,-89.38068389892578
1,21978,37.51143264770508,57.14398193359375,66.01370239257812,110.23206329345703
1,21979,11.866631507873535,21.46233367919922,-15.863990783691406,13.830005645751953
1,21982,-33.57780456542969,-38.7359504699707,-25.768539428710938,-63.40694046020508
1,21983,21.19586753845215,5.335677623748779,19.7587833404541,70.62847137451172
1,21986,39.21184158325195,13.182550430297852,-27.939544677734375,92.79865264892578
1,21987,15.171653747558594,-14.302850723266602,42.2894172668457,-5.280402183532715
1,21990,-28.818395614624023,-3.194427967071533,13.480874061584473,-140.08009338378906
1,21991,-0.6804511547088623,47.03811264038086,-18.335302352905273,-32.2801513671875
1,21994,42.063655853271484,29.28101921081543,36.25912094116211,122.44025421142578
1,21995,-48.579410552978516,-31.384695053100586,-39.787227630615234,-44.73540496826172
1,21998,-20.395185470581055,-59.77298355102539,-19.73536491394043,-43.23007583618164
1,21999,36.472137451171875,-40.51457214355469,45.13632583618164,116.56565856933594
1,22002,31.33183479309082,75.5827865600586,4.095487594604492,36.447635650634766
1,22003,41.79834747314453,72.41288757324219,-21.48199462890625,-81.92549896240234
1,22006,-64.69457244873047,-62.25757598876953,-6.839715480804443,-81.19532775878906
1,22007,-71.75105285644531,-73.60252380371094,-60.91242980957031,-26.082826614379883
1,22010,3.430656909942627,-4.049881458282471,-11.25484848022461,55.891700744628906
1,22011,53.75711441040039,26.299501419067383,98.6380844116211,81.78353118896484
1,22014,48.84770202636719,38.00419998168945,-20.995376586914062,33.797637939453125
1,22015,17.7290096282959,75.22095489501953,-33.65211486816406,38.399627685546875
1,22018,0.13496601581573486,21.086091995239258,65.99868774414062,-107.99750518798828
1,22019,-84.41901397705078,-103.61833953857422,-0.2892051041126251,-125.58984375
1,22022,-67.26959228515625,-117.93004608154297,-72.68035125732422,96.13069152832031
1,22023,7.414515018463135,-12.61766242980957,-31.206422805786133,12.399395942687988
1,22026,67.15042114257812,91.34294891357422,50.727413177490234,-40.0456657409668
1,22027,78.78231811523438,95.17695617675781,52.33072280883789,65.50533294677734
1,22030,-0.7284595966339111,30.769800186157227,-0.5333446264266968,51.36377716064453
1,22031,-38.90345001220703,-34.29356384277344,-41.96581268310547,-2.2117059230804443
1,22034,-72.13771057128906,-71.89929962158203,-56.66744613647461,-172.5591583251953
1,22035,-16.70442008972168,-4.777837753295898,9.613643646240234,-97.31222534179688
1,22038,52.57370376586914,55.48591613769531,75.98088836669922,178.8016357421875
1,22039,4.787235736846924,-38.16050338745117,40.83979797363281,119.74227142333984
1,22042,32.5433235168457,-23.4581241607666,-34.32447814941406,-26.74300193786621
1,22043,47.137359619140625,78.98172760009766,-34.18047332763672,-25.35076332092285
1,22046,-22.06422996520996,0.8606134653091431,-28.51497459411621,21.375566482543945
1,22047,-88.34407806396484,-79.95930480957031,-38.59556198120117,-122.51673126220703
1,22050,-87.70709991455078,-38.9322509765625,57.61904525756836,-165.62144470214844
1,22051,37.76737594604492,-1.8566256761550903,36.147125244140625,158.03945922851562
1,22054,119.97106170654297,41.58906555175781,-29.694917678833008,232.8784637451172
1,22055,40.31830978393555,94.04463195800781,42.06465148925781,-28.798786163330078
1,22058,-20.113134384155273,22.551267623901367,6.846200466156006,-131.18710327148438
1,22059,-59.85940933227539,-75.4832763671875,-73.98896026611328,-87.05525970458984
1,22062,-39.279205322265625,0.19822779297828674,-2.7627134323120117,4.722619533538818
1,22063,77.16641998291016,65.28064727783203,54.269927978515625,96.47676849365234
1,22066,4.5381574630737305,-36.36098098754883,-7.33047342300415,-6.213645935058594
1,22067,-72.39879608154297,-85.67778015136719,-4.690252780914307,-52.0721549987793
1,22070,43.74992752075195,69.00017547607422,42.13540267944336,10.3094482421875
1,22071,50.195762634277344,36.832637786865234,-72.08721923828125,14.699416160583496
1,22074,-57.924888610839844,-116.22835540771484,-68.33867645263672,18.99417495727539
1,22075,-53.08400344848633,-21.691314697265625,61.466522216796875,-60.59527587890625
1,22078,40.19041061401367,86.2490005493164,28.06740951538086,61.60419845581055
1,22079,54.7220458984375,60.71312713623047,-15.784289360046387,56.854251861572266
1,22082,-3.4619553089141846,-30.536376953125,-6.0275983810424805,-80.27165222167969
1,22083,-15.124666213989258,23.190271377563477,65.79186248779297,74.36185455322266
1,22086,-50.86952590942383,-92.21104431152344,-14.12495231628418,-43.98155212402344
1,22087,-43.16128158569336,-166.2082061767578,-87.34874725341797,-240.7634735107422
1,22090,54.366397857666016,82.55045318603516,65.71318817138672,121.37747192382812
1,22091,41.14875411987305,51.04673767089844,45.336822509765625,306.8025817871094
1,22094,-17.79121208190918,65.80966186523438,-34.77753829956055,-94.868896484375
1,22095,-16.04814338684082,106.25214385986328,-34.2546272277832,-123.65757751464844
1,22098,34.347774505615234,-4.746715545654297,2.2255606651306152,-9.06973934173584
1,22099,-3.1958670616149902,-25.91135597229004,43.871761322021484,-33.785396575927734
1,22102,-58.955726623535156,-80.7910385131836,-49.96892547607422,74.83231353759766
1,22103,24.49138641357422,16.21822166442871,7.033630847930908,29.651527404785156
1,22106,44.31074905395508,91.20346069335938,10.314105033874512,-93.47557830810547
1,22107,28.643312454223633,-1.5825598239898682,-51.298736572265625,17.25568199157715
1,22110,-13.06872272491455,7.619604110717773,88.33811950683594,95.94686126708984
1,22111,-91.43865203857422,-63.24509048461914,12.511563301086426,-114.32255554199219
1,22114,-68.66069030761719,-224.96954345703125,-89.2000503540039,-88.71053314208984
1,22115,48.958255767822266,-109.3298110961914,4.109639644622803,129.98748779296875
1,22118,103.86933135986328,197.47682189941406,25.903697967529297,82.3976821899414
1,22119,34.457244873046875,199.24478149414062,16.708759307861328,-18.381467819213867
1,22122,-53.14061737060547,-78.82262420654297,14.485523223876953,-52.10251998901367
1,22123,-56.498313903808594,-94.38492584228516,-1.1161423921585083,-50.938175201416016
1,22126,12.763596534729004,61.13185119628906,1.061891794204712,-3.3614628314971924
1,22127,24.688268661499023,78.43291473388672,1.459185004234314,44.4647216796875
1,22130,0.7328668832778931,-45.74713897705078,-24.886302947998047,73.74583435058594
1,22131,4.917525291442871,-86.01746368408203,-11.379849433898926,19.581031799316406
1,22134,44.41081619262695,76.52589416503906,23.87285804748535,-82.95702362060547
1,22135,11.35071086883545,55.141998291015625,-15.121928215026855,-72.7853775024414
1,22138,-60.485633850097656,-63.75969696044922,-1.070003628730774,53.403778076171875
1,22139,-23.165435791015625,34.13523483276367,45.75192642211914,37.69820022583008
1,22142,-13.131243705749512,4.808204650878906,-39.91028594970703,-113.86652374267578
1,22143,-6.926875114440918,-77.91942596435547,-41.6486930847168,-74.3229751586914
1,22146,34.57728576660156,-34.02532196044922,45.70659255981445,152.1434326171875
1,22147,7.953761577606201,8.049583435058594,-37.897010803222656,113.56837463378906
1,22150,31.356428146362305,137.0456085205078,18.63343620300293,-23.038867950439453
1,22152,33.8980712890625,99.01697540283203,80.31676483154297,4.371420383453369
1,22154,-60.39266586303711,-108.4218521118164,-82.88660430908203,-106.86102294921875
1,22156,-56.04731369018555,-120.80119323730469,-32.97352600097656,-127.29595184326172
1,22159,31.933349609375,-62.18435287475586,65.51759338378906,93.47837829589844
1,22160,20.901073455810547,-60.862220764160156,-8.638031005859375,96.32542419433594
1,22162,-26.250537872314453,80.94881439208984,-27.41957664489746,31.034019470214844
1,22164,6.3274760246276855,111.68944549560547,34.171302795410156,24.476177215576172
1,22166,9.793227195739746,-22.790315628051758,12.493618965148926,-96.23027038574219
1,22168,2.8108880519866943,-5.079194068908691,-53.67744064331055,-17.744873046875
1,22170,19.29497528076172,45.87263870239258,17.04364776611328,-40.978450775146484
1,22172,-19.516067504882812,24.80487823486328,40.30592346191406,-86.6624755859375
1,22174,-35.670631408691406,-23.753087997436523,-9.227834701538086,120.85045623779297
1,22176,19.11823844909668,-45.06093215942383,35.177913665771484,92.45162963867188
1,22178,44.67872619628906,16.223081588745117,-50.08741760253906,-25.902263641357422
1,22180,25.750211715698242,133.0544891357422,-72.33296966552734,-25.505353927612305
1,22182,-0.864958643913269,-29.477296829223633,83.58639526367188,91.17230224609375
1,22184,-42.637699127197266,-179.73931884765625,21.55756378173828,-18.209300994873047
1,22186,-53.4713020324707,-53.4886360168457,-67.49017333984375,-215.5595703125
1,22188,16.895814895629883,-26.69630241394043,-18.80240249633789,0.557231605052948
1,22190,57.27981185913086,74.07719421386719,20.354143142700195,152.02813720703125
1,22192,-4.713781356811523,49.92864227294922,27.619768142700195,173.34463500976562
1,22194,-51.10311508178711,-43.688175201416016,-18.99648666381836,-100.9791488647461
1,22196,-22.529125213623047,78.69180297851562,-4.489757537841797,-283.54571533203125
1,22198,67.26397705078125,95.93118286132812,76.74414825439453,129.0879364013672
1,22200,28.94413948059082,0.19865022599697113,14.354668617248535,104.14936828613281
1,22202,-67.31765747070312,-119.52230834960938,-77.6458740234375,-74.6899642944336
1,22204,-5.873862266540527,-47.74970245361328,-32.1343879699707,23.440332412719727
1,22206,7.550717830657959,72.4969711303711,23.3934326171875,-58.860511779785156
1,22208,0.0531904399394989,-7.3724188804626465,15.123826026916504,10.496855735778809
1,22210,65.78658294677734,43.79273986816406,34.5078239440918,130.1103515625
1,22212,19.65708351135254,66.42570495605469,15.27595329284668,34.57937240600586
1,22214,-82.06131744384766,-89.38246154785156,-80.05128479003906,-161.95388793945312
1,22216,-71.27493286132812,-102.74198913574219,-9.927306175231934,-153.2008514404297
1,22218,35.07057571411133,-22.44105339050293,67.2855224609375,184.58680725097656
1,22220,78.52555084228516,-23.381723403930664,-51.48561477661133,181.38870239257812
1,22222,55.19480895996094,76.78593444824219,21.001907348632812,-122.04569244384766
1,22224,-24.880895614624023,38.781982421875,114.84158325195312,-44.92512512207031
1,22226,-131.68643188476562,-107.14012908935547,-109.21041107177734,16.735628128051758
1,22228,-34.08082962036133,87.08492279052734,-129.92922973632812,-84.3038101196289
1,22230,118.40000915527344,109.921142578125,132.96778869628906,53.657840728759766
1,22232,56.21723175048828,-44.6112060546875,98.45967864990234,79.74275207519531
1,22234,-51.89094924926758,-18.597667694091797,-112.03929901123047,-52.52545166015625
1,22236,9.891194343566895,27.5465087890625,-10.667342185974121,-53.77354049682617
1,22238,50.05963134765625,41.20808029174805,68.57482147216797,48.808265686035156
1,22240,-56.53080749511719,-12.409878730773926,-41.7782096862793,28.240224838256836
1,22242,-75.18505096435547,14.801789283752441,-30.243412017822266,-130.1737823486328
1,22244,47.97614669799805,41.10719299316406,58.521854400634766,2.381253719329834
1,22246,17.871952056884766,-201.28041076660156,-23.77067756652832,58.614707946777344
1,22248,-49.0974235534668,-185.5963134765625,-51.419349670410156,-14.872079849243164
1,22250,58.47683334350586,142.16336059570312,77.16112518310547,151.94915771484375
1,22252,52.80461502075195,118.31951904296875,6.240042686462402,87.3374252319336
1,22254,-55.06623458862305,32.2559928894043,-37.4721794128418,-58.811439514160156
1,22256,-104.48821258544922,-64.12653350830078,-40.97957229614258,-190.46331787109375
1,22258,35.754783630371094,-96.34357452392578,-29.869606018066406,-178.10116577148438
1,22260,94.83148956298828,75.42833709716797,69.3417739868164,205.37091064453125
1,22262,-11.137469291687012,99.57158660888672,-13.931024551391602,213.10311889648438
1,22264,34.368953704833984,100.40775299072266,-10.305375099182129,-102.62110900878906
1,22266,-16.650333404541016,-26.12704849243164,75.7481460571289,-111.48554229736328
1,22268,-58.01219940185547,-134.4473419189453,-25.420482635498047,21.61029815673828
1,22270,-7.042087078094482,-5.645301342010498,-40.62066650390625,-52.47569274902344
1,22272,-25.889007568359375,10.924818992614746,-2.5291502475738525,-51.30509948730469
1,22274,49.79374313354492,-19.24921417236328,13.958520889282227,138.77145385742188
1,22276,35.0821647644043,1.3978869915008545,-2.860596179962158,36.48646545410156
1,22278,-64.23640441894531,-62.16012191772461,-16.496782302856445,-66.04291534423828
1,22280,-64.18733215332031,-69.01164245605469,1.2861217260360718,-43.891510009765625
1,22282,22.155052185058594,123.74401092529297,45.370121002197266,-83.66764831542969
1,22284,54.97098159790039,133.1412811279297,42.79372787475586,113.69694519042969
1,22286,23.467660903930664,-91.71403503417969,-76.03569793701172,156.96044921875
1,22288,50.53769302368164,-31.687707901000977,-13.205292701721191,-15.190718650817871
1,22290,-29.13677406311035,39.105133056640625,32.46364212036133,-141.6413116455078
1,22292,-27.53436279296875,16.95005226135254,-21.45206642150879,-188.773681640625
1,22294,21.857507705688477,90.85098266601562,17.854799270629883,109.85176849365234
1,22296,-6.105470657348633,-20.171337127685547,20.22903060913086,224.4604949951172
1,22298,-15.300182342529297,-100.9515151977539,-14.718085289001465,-3.9682204723358154
1,22300,-9.066316604614258,-37.4842414855957,-11.434853553771973,-55.99125671386719
1,22302,32.016021728515625,12.960259437561035,-19.167551040649414,-69.98999786376953
1,22304,-81.84624481201172,-63.70889663696289,0.5683147311210632,-125.28543853759766
1,22305,-67.18879699707031,-186.53587341308594,13.441402435302734,90.98260498046875
1,22308,150.72422790527344,82.5281982421875,-11.771657943725586,205.54612731933594
1,22309,91.96137237548828,277.8297424316406,52.46492385864258,-60.24805450439453
1,22312,-125.31011199951172,43.792842864990234,16.036235809326172,-191.09747314453125
1,22313,-95.56998443603516,-91.47876739501953,-92.47018432617188,-42.635955810546875
1,22316,94.19417572021484,-37.02647018432617,27.79217529296875,150.61671447753906
1,22317,42.863094329833984,-17.388629913330078,54.94198989868164,53.73468017578125
1,22320,-44.63301086425781,29.392011642456055,-52.6086540222168,-132.21246337890625
1,22321,12.144156455993652,25.6572322845459,-12.464484214782715,-6.478850841522217
1,22324,12.724226951599121,-43.97296142578125,-2.8402442932128906,92.2850112915039
1,22325,-7.756129741668701,7.176197052001953,-6.766067028045654,32.850772857666016
1,22328,-15.79447078704834,41.256717681884766,4.486578464508057,-52.97305679321289
1,22329,6.517378807067871,27.06761360168457,5.978797435760498,-48.940731048583984
1,22332,43.711605072021484,51.69370651245117,73.36067199707031,19.922569274902344
1,22333,-66.09658813476562,-106.10072326660156,-3.0702388286590576,-127.64041137695312
1,22336,-23.501056671142578,-216.34646606445312,-68.00959014892578,89.80619049072266
1,22337,107.27557373046875,-15.952771186828613,7.554824352264404,295.290771484375
1,22340,-55.325687408447266,97.9884262084961,-12.744568824768066,-171.42654418945312
1,22341,-62.477447509765625,87.31926727294922,9.19658088684082,-226.45150756835938
1,22344,32.229923248291016,43.224979400634766,30.657041549682617,147.6302490234375
1,22345,20.65599822998047,74.26155090332031,-5.9934611320495605,111.70135498046875
1,22348,-3.267859935760498,-3.2531440258026123,33.451507568359375,-83.5845718383789
1,22349,-46.81866455078125,-137.21347045898438,-5.6080322265625,-13.931015968322754
1,22352,2.6718146800994873,-14.976188659667969,-104.36943054199219,58.953853607177734
1,22353,73.5108642578125,77.61437225341797,-7.4809346199035645,-153.81935119628906
1,22356,-0.20138202607631683,5.717944145202637,92.36029815673828,-90.86697387695312
1,22357,-72.35530853271484,-67.0331802368164,2.8262369632720947,201.91311645507812
1,22360,46.167579650878906,67.27478790283203,-22.52107048034668,56.04947280883789
1,22361,53.1274299621582,101.69307708740234,5.8728485107421875,-54.069515228271484
1,22364,-35.95254135131836,-75.50096130371094,3.008693218231201,-23.02826499938965
1,22366,2.0157830715179443,-63.19737243652344,27.667709350585938,-32.845211029052734
1,22368,9.201238632202148,-13.895621299743652,33.64739227294922,57.03972625732422
1,22370,-33.8688850402832,-40.746891021728516,-38.17990493774414,2.34067440032959
1,22372,-0.4335750639438629,-32.82377243041992,-88.14111328125,-46.53840255737305
1,22374,70.3737564086914,11.964335441589355,5.731899261474609,80.59077453613281
1,22376,-49.004798889160156,94.41056823730469,28.9400691986084,35.65540313720703
1,22378,-111.18550109863281,46.25422668457031,0.7493929266929626,-82.2278823852539
1,22380,94.81367492675781,40.08015441894531,65.95928192138672,-25.304725646972656
1,22382,86.31190490722656,64.82400512695312,10.466811180114746,-15.627059936523438
1,22384,-105.70317840576172,-165.8538360595703,-100.8037338256836,-37.55625915527344
1,22386,-52.13246154785156,-124.94345092773438,-22.961750030517578,0.5671102404594421
1,22388,80.3695297241211,136.6591339111328,112.88839721679688,23.17367172241211
1,22390,33.52250289916992,32.29146194458008,10.682424545288086,33.93170928955078
