Aktueller Finger,timestamp_ms,sensor_0,sensor_1,sensor_2,sensor_3
0,657027,20.91616439819336,159.2385711669922,-3.194537401199341,95.2891616821289
0,657028,3.6114413738250732,85.46074676513672,-17.207035064697266,36.739707946777344
0,657031,-18.820396423339844,-73.43990325927734,4.1661505699157715,-56.492462158203125
0,657032,-32.621280670166016,-98.3093490600586,6.643553256988525,-67.77513885498047
0,657035,-2.247283697128296,-155.5557861328125,-2.84761118888855,-54.08367919921875
0,657036,23.792877197265625,-43.29537582397461,-37.88358688354492,39.183834075927734
0,657039,12.332490921020508,234.2379150390625,-40.048099517822266,125.6734848022461
0,657040,15.117956161499023,227.55848693847656,34.688045501708984,68.003173828125
0,657043,-1.4333752393722534,-40.76729202270508,60.248870849609375,-77.11922454833984
0,657054,-32.440486907958984,-328.68109130859375,-19.851606369018555,-134.05284118652344
0,657054,1.4824390411376953,-129.62957763671875,-28.579587936401367,-5.61519718170166
0,657054,20.5734806060791,300.9250793457031,1.598545789718628,131.29409790039062
0,657055,-1.9502694606781006,90.17021179199219,28.477176666259766,29.091222763061523
0,657055,-6.34420919418335,-119.94200134277344,24.732303619384766,-56.10665512084961
0,657055,-10.957256317138672,-43.64553451538086,-24.336259841918945,-38.27389907836914
0,657056,-1.0098578929901123,-22.108488082885742,-33.845462799072266,-9.305752754211426
0,657058,21.41716957092285,84.22858428955078,-10.427384376525879,56.67928695678711
0,657060,-11.144110679626465,194.42030334472656,6.0613813400268555,92.69129943847656
0,657062,-17.67986488342285,101.0684814453125,22.47311019897461,40.51074981689453
0,657064,14.096179008483887,-197.32205200195312,24.22688865661621,-54.7100830078125
0,657066,-18.281103134155273,-150.1533203125,-29.20792579650879,-23.62542724609375
0,657068,23.269256591796875,139.576904296875,-4.9980788230896,-9.124360084533691
0,657070,22.932310104370117,42.4887580871582,43.56682586669922,-49.00972366333008
0,657072,-67.81673431396484,-153.83753967285156,-2.5206432342529297,-45.21023178100586
0,657074,-7.993243217468262,-182.18731689453125,-38.40427017211914,-67.18742370605469
0,657076,63.120765686035156,-3.0712804794311523,-15.316976547241211,7.572854042053223
0,657078,0.8058577179908752,166.33680725097656,-13.131170272827148,99.59477233886719
0,657105,-49.05628204345703,-5.5365095138549805,34.30602264404297,-18.258258819580078
0,657105,4.743854999542236,-68.41802215576172,52.17647933959961,-57.37896728515625
0,657105,42.58248519897461,93.22014617919922,-44.609249114990234,83.46389770507812
0,657105,18.720422744750977,118.38021850585938,-29.401086807250977,71.18609619140625
0,657105,-12.101123809814453,65.75468444824219,29.480209350585938,21.08544158935547
0,657106,-14.851981163024902,13.903697967529297,3.31074857711792,21.213302612304688
0,657106,5.291069507598877,-52.534549713134766,-12.492989540100098,-52.53629684448242
0,657106,-20.894630432128906,-98.13370513916016,18.391021728515625,-71.76222229003906
0,657106,-16.182537078857422,-96.49446105957031,15.171127319335938,-29.6695499420166
0,657106,30.3257999420166,-47.5544319152832,-1.2555646896362305,-32.742557525634766
0,657106,13.331910133361816,-12.400481224060059,-10.685281753540039,-32.853050231933594
0,657107,-3.4651730060577393,10.351179122924805,-22.364789962768555,25.18094825744629
0,657107,-10.459307670593262,53.28825759887695,-15.097749710083008,70.2440414428711
0,657108,-10.93929386138916,75.99278259277344,-6.227248191833496,35.66618728637695
0,657108,13.170658111572266,64.29013061523438,5.280556678771973,-1.8809071779251099
0,657111,11.518458366394043,16.511625289916992,-3.8923301696777344,20.73036003112793
0,657112,-11.888480186462402,-71.44488525390625,16.905160903930664,-32.16293716430664
0,657115,5.401388645172119,-113.9292984008789,12.337311744689941,-76.8197250366211
0,657116,13.896027565002441,9.696297645568848,-34.55437469482422,44.79833984375
0,657119,-7.064730644226074,234.10140991210938,8.322021484375,138.75546264648438
0,657120,-4.186140060424805,170.01890563964844,28.273557662963867,32.22570037841797
0,657123,-41.26011657714844,-174.95909118652344,1.08497154712677,-134.0138702392578
0,657124,-9.849552154541016,-206.58352661132812,19.09977149963379,-71.83369445800781
0,657127,66.35366821289062,-20.207122802734375,-11.958017349243164,36.928672790527344
0,657128,18.44595718383789,44.021785736083984,-50.39829635620117,6.1527934074401855
0,657131,-40.979637145996094,76.59661865234375,20.18183708190918,13.666446685791016
0,657169,-28.5654239654541,10.357670783996582,67.44551849365234,166.87460327148438
0,657169,5.8603105545043945,-80.68000793457031,0.41946497559547424,106.6159439086914
0,657169,17.098552703857422,-78.87696838378906,-27.147499084472656,-179.0907440185547
0,657169,1.1922262907028198,-34.355560302734375,-21.045913696289062,-112.22361755371094
0,657169,4.280444145202637,-1.4994648694992065,-28.38289451599121,16.489173889160156
0,657170,10.135540008544922,16.851465225219727,-2.906376600265503,5.085168838500977
0,657170,-4.607327461242676,64.69808959960938,-3.545044183731079,18.498844146728516
0,657170,-3.5435588359832764,88.54161071777344,-12.919614791870117,16.743661880493164
0,657170,-7.286374092102051,62.547515869140625,13.884034156799316,19.252212524414062
0,657170,-3.343836545944214,21.87078285217285,4.263338565826416,-49.69856643676758
0,657170,0.3599860668182373,-21.475021362304688,-18.53658676147461,-67.68267822265625
0,657171,-31.17426109313965,-53.49128723144531,13.996145248413086,-18.747852325439453
0,657171,-2.9808573722839355,-30.41163444519043,38.64094543457031,-35.1379280090332
0,657171,26.228315353393555,-22.010820388793945,8.323819160461426,-12.575582504272461
0,657171,-7.449661731719971,-40.752540588378906,-5.162208080291748,24.556344985961914
0,657171,5.1822357177734375,-3.4095425605773926,2.6852753162384033,17.065595626831055
0,657171,7.825326442718506,43.22795486450195,-4.363846302032471,39.58540344238281
0,657172,4.547524929046631,45.634132385253906,9.138825416564941,42.1194953918457
0,657172,15.977255821228027,1.3455073833465576,2.8949737548828125,-2.939129114151001
0,657173,-9.98291301727295,-88.24949645996094,6.146182060241699,-70.18128204345703
0,657173,0.41636571288108826,-50.36446762084961,7.200450897216797,-54.335594177246094
0,657175,1.6741664409637451,65.39006042480469,-21.891454696655273,39.936161041259766
0,657176,18.570518493652344,69.21370697021484,-23.161897659301758,49.68037033081055
0,657179,22.683835983276367,174.64231872558594,-21.421306610107422,116.58506774902344
0,657180,-26.173362731933594,148.2707061767578,-6.1234822273254395,82.89332580566406
0,657183,-38.60122299194336,-159.47048950195312,30.78937530517578,-163.011962890625
0,657184,-22.125247955322266,-216.94847106933594,16.3021183013916,-111.93079376220703
0,657187,21.085847854614258,-47.941558837890625,-8.247931480407715,88.13853454589844
0,657188,17.935302734375,44.79521942138672,27.704408645629883,51.590579986572266
0,657191,24.130252838134766,65.61982727050781,-15.033193588256836,-13.484766006469727
0,657192,-0.21881133317947388,-24.017070770263672,-27.908838272094727,-73.92644500732422
0,657195,-31.528667449951172,-121.3212661743164,11.830490112304688,-66.71153259277344
0,657196,13.276329040527344,-12.01183795928955,-45.373966217041016,78.13297271728516
0,657199,3.0045254230499268,214.32460021972656,-5.675574779510498,123.30245208740234
0,657200,26.01523780822754,138.68382263183594,41.263633728027344,35.243255615234375
0,657251,-4.234661102294922,-296.8496398925781,20.60145378112793,-208.28602600097656
0,657251,-55.3294563293457,-243.25485229492188,9.851993560791016,-147.83755493164062
0,657251,16.375337600708008,245.44741821289062,-24.527585983276367,215.11737060546875
0,657251,12.651759147644043,185.58734130859375,-16.81140899658203,87.14048767089844
0,657251,-17.40507698059082,-48.59471130371094,14.961066246032715,-81.29358673095703
0,657252,-9.54809284210205,-17.018497467041016,32.81268310546875,-2.8803279399871826
0,657252,0.23655974864959717,-57.13359069824219,4.80063009262085,-34.490745544433594
0,657252,13.3595552444458,-128.71456909179688,-16.19415283203125,-41.07262420654297
0,657252,-8.562650680541992,-38.235416412353516,5.444158554077148,-4.47750997543335
0,657252,1.8603763580322266,26.35793113708496,15.59341812133789,31.697750091552734
0,657252,23.570518493652344,4.988223075866699,-6.449461460113525,36.86180877685547
0,657253,9.479909896850586,66.39141845703125,-31.19171142578125,34.14586639404297
0,657253,-11.627400398254395,85.62744140625,-19.148529052734375,52.98820114135742
0,657253,-13.853067398071289,32.68077850341797,-12.923927307128906,18.137332916259766
0,657253,6.5900959968566895,25.812772750854492,2.2615456581115723,-11.280613899230957
0,657253,11.060890197753906,-17.059860229492188,33.54234313964844,-16.43385124206543
0,657253,-5.97646427154541,-67.1736068725586,8.373351097106934,-25.951984405517578
0,657254,-12.483942985534668,-35.042972564697266,-19.815120697021484,-22.58736228942871
0,657254,-1.5854129791259766,-25.093822479248047,14.351306915283203,-14.04036808013916
0,657254,5.6916327476501465,2.982151985168457,-4.6562323570251465,-0.07793082296848297
0,657254,4.387287139892578,32.8688850402832,-50.69782638549805,10.882524490356445
0,657254,2.0025534629821777,26.932939529418945,-1.085243582725525,36.93180847167969
0,657255,-5.23211145401001,45.636436462402344,32.151100158691406,37.311798095703125
0,657255,-2.8088788986206055,35.629913330078125,-7.8835577964782715,-17.858182907104492
0,657255,6.906030654907227,15.008758544921875,-0.5489348769187927,-9.545660018920898
0,657256,23.300973892211914,72.99650573730469,54.90304183959961,50.111305236816406
0,657256,21.235576629638672,40.471397399902344,22.48340606689453,22.031625747680664
0,657257,-13.049884796142578,-85.33820343017578,-22.592832565307617,-51.30434799194336
0,657258,-10.134037971496582,10.649056434631348,-34.17402648925781,-17.97234344482422
0,657261,-18.010181427001953,183.54367065429688,-21.823200225830078,69.31842041015625
0,657262,-31.49934959411621,20.39701271057129,61.474609375,16.002260208129883
0,657265,31.300512313842773,-304.344482421875,62.04872512817383,-124.86852264404297
0,657266,24.862571716308594,-188.25379943847656,-33.317344665527344,-83.68602752685547
0,657269,-50.768226623535156,89.19676208496094,-93.48379516601562,26.894872665405273
0,657270,-11.167076110839844,54.333133697509766,-13.119677543640137,20.074796676635742
0,657273,36.46470642089844,-103.93853759765625,66.73818969726562,-25.170166015625
0,657274,-4.091159820556641,-130.85487365722656,-8.230569839477539,-43.317481994628906
0,657277,-14.763592720031738,126.5105972290039,-70.52125549316406,87.62620544433594
0,657278,24.057085037231445,211.96925354003906,3.135385751724243,135.2213134765625
0,657281,20.982023239135742,78.65518951416016,65.59954833984375,29.303810119628906
0,657282,-15.016735076904297,1.4217396974563599,-2.667309284210205,-48.037960052490234
0,657285,-35.52381896972656,-199.59483337402344,-17.12548065185547,-99.2042465209961
0,657286,1.1335800886154175,-96.9507064819336,5.422738075256348,-35.92036819458008
0,657349,13.337312698364258,117.9133071899414,-28.714672088623047,69.04586791992188
0,657350,-22.524372100830078,23.833114624023438,-6.979696750640869,40.97626876831055
0,657350,6.953863620758057,13.287895202636719,33.63924789428711,-51.29306411743164
0,657350,18.720197677612305,-37.84457778930664,16.05507469177246,-50.84059143066406
0,657350,-8.29260540008545,-92.2126693725586,0.3485025465488434,-14.782337188720703
0,657350,-8.563823699951172,-21.234100341796875,8.137019157409668,-10.207906723022461
0,657350,31.923173904418945,-2.1081225872039795,-1.5719208717346191,-11.780075073242188
0,657351,30.48959732055664,39.66727066040039,-13.471785545349121,11.79355239868164
0,657351,-6.163172721862793,61.49617385864258,-3.511705160140991,39.11787796020508
0,657351,-0.14021016657352448,63.36913299560547,16.766176223754883,35.61619186401367
0,657351,-6.452152252197266,87.1202163696289,8.272395133972168,21.740877151489258
0,657351,-14.26053237915039,32.06660842895508,-5.44184684753418,-11.376527786254883
0,657351,2.1708943843841553,-72.89315795898438,-4.55197286605835,-17.296669006347656
0,657352,-5.958794116973877,-69.99573516845703,0.1695302277803421,-17.672626495361328
0,657352,-30.790502548217773,-52.17141342163086,-9.683977127075195,-48.400184631347656
0,657352,-13.440248489379883,-65.31407165527344,-21.58506202697754,-43.920806884765625
0,657352,6.190690517425537,-12.443099975585938,9.188695907592773,12.897256851196289
0,657352,0.3919711410999298,1.9666688442230225,16.035900115966797,43.91318893432617
0,657352,14.537734031677246,27.25876235961914,-10.791534423828125,-1.3618085384368896
0,657353,25.23795509338379,53.10122299194336,-16.03053855895996,17.17439079284668
0,657353,-3.3127009868621826,33.13502502441406,-12.400787353515625,41.2288703918457
0,657353,-16.288728713989258,35.85455322265625,10.136648178100586,-2.7500526905059814
0,657353,-3.2119975090026855,12.757366180419922,33.68126678466797,0.43293073773384094
0,657353,6.809629917144775,-35.253021240234375,-1.6401277780532837,-11.296040534973145
0,657354,6.843782901763916,-40.56651306152344,-25.317617416381836,-33.170372009277344
0,657354,-6.440584659576416,-8.77967643737793,17.276477813720703,-1.2026346921920776
0,657354,-0.6235549449920654,0.7800323963165283,11.807108879089355,21.8902530670166
0,657354,0.06972526758909225,9.547146797180176,-31.292694091796875,8.248720169067383
0,657354,3.3304710388183594,52.21670913696289,4.931950569152832,30.421823501586914
0,657354,22.771827697753906,41.51061248779297,12.359535217285156,24.64944839477539
0,657355,3.75921630859375,-1.4497804641723633,-15.60328483581543,-2.788938045501709
0,657356,3.1774775981903076,63.5612907409668,-17.34333610534668,81.56783294677734
0,657356,14.747547149658203,69.060302734375,-6.7911295890808105,29.347427368164062
0,657356,-22.452144622802734,-66.0120849609375,25.26034164428711,-94.36288452148438
0,657356,-19.58551597595215,-87.38521575927734,4.8551483154296875,-14.15111255645752
0,657358,-1.9553730487823486,33.19186782836914,-20.77411460876465,25.783187866210938
0,657360,-9.798007011413574,194.54241943359375,10.164528846740723,74.369140625
0,657362,3.937762498855591,76.91405487060547,44.43400955200195,38.84729766845703
0,657364,-10.415031433105469,-293.5923156738281,9.512733459472656,-169.1407012939453
0,657366,-10.669251441955566,-219.345703125,11.569555282592773,-111.23969268798828
0,657368,7.987138271331787,76.61760711669922,15.169671058654785,18.97784423828125
0,657370,-0.16639798879623413,55.90888214111328,-57.21689224243164,-2.491036891937256
0,657372,-5.348978042602539,-95.74984741210938,-10.016162872314453,-69.63624572753906
0,657374,8.728389739990234,-126.39136505126953,17.73798179626465,-11.852079391479492
0,657376,34.01146697998047,136.38296508789062,-28.15336799621582,134.333251953125
0,657378,25.16304588317871,228.81414794921875,-11.003157615661621,34.67082595825195
0,657380,-12.854148864746094,91.4394302368164,1.8260337114334106,36.10388946533203
0,657382,-34.89617919921875,3.6579623222351074,9.425533294677734,101.80884552001953
0,657384,-13.57372760772705,-246.67559814453125,19.363162994384766,-118.74725341796875
0,657386,20.31871223449707,-101.65985107421875,0.7079465389251709,-123.74189758300781
0,657388,-2.721714496612549,138.37730407714844,-23.92606544494629,78.70390319824219
0,657463,-21.94500160217285,107.76348876953125,32.88923263549805,59.493927001953125
0,657464,21.380783081054688,115.20658111572266,52.80405807495117,-27.889904022216797
0,657464,5.66914176940918,-130.3937225341797,-34.48696517944336,-47.33041763305664
0,657464,-29.310752868652344,-168.88710021972656,-16.036970138549805,-39.60102844238281
0,657464,13.454387664794922,-18.52367401123047,21.378124237060547,-38.618797302246094
0,657464,32.25328826904297,-27.892518997192383,-23.915014266967773,-33.403629302978516
0,657464,-21.11012840270996,17.28729248046875,-16.005184173583984,-3.0419304370880127
0,657465,-15.008143424987793,50.1056022644043,-13.80843734741211,42.02427673339844
0,657465,32.9322395324707,50.789794921875,-25.911245346069336,64.59892272949219
0,657465,-6.693160533905029,64.62360382080078,13.983863830566406,35.43524932861328
0,657465,-9.529141426086426,18.03150177001953,22.889169692993164,20.903064727783203
0,657465,21.20758819580078,-44.38178634643555,-18.398460388183594,4.502976417541504
0,657465,-30.55889129638672,-39.20384216308594,-1.6195602416992188,0.8203156590461731
0,657466,-18.17888069152832,-29.32406234741211,32.43706512451172,3.441596031188965
0,657466,24.94932746887207,-13.769765853881836,-6.079683780670166,-25.33089828491211
0,657466,-0.0179729126393795,-10.596112251281738,-32.86567687988281,-36.65382766723633
0,657466,-3.7047579288482666,-14.739294052124023,-14.781895637512207,-7.671148777008057
0,657466,8.840269088745117,44.93134307861328,16.05015754699707,45.700626373291016
0,657467,6.441013813018799,60.88022232055664,2.318302869796753,36.35054397583008
0,657467,-11.717660903930664,9.23750114440918,2.6840529441833496,12.207226753234863
0,657467,2.154233455657959,12.426678657531738,29.597827911376953,9.773372650146484
0,657467,8.797257423400879,-7.501266002655029,-8.291911125183105,-17.10002899169922
0,657467,-19.044530868530273,-36.479408264160156,1.0770213603973389,-8.899351119995117
0,657467,0.11936783790588379,-12.816656112670898,15.014918327331543,3.749279022216797
0,657468,20.596620559692383,-18.31397247314453,-12.581890106201172,-12.310434341430664
0,657468,-3.1342878341674805,-19.54978370666504,8.221548080444336,-0.43661290407180786
0,657468,-5.187763690948486,19.164560317993164,7.614361763000488,4.382130146026611
0,657468,5.060701847076416,23.405689239501953,-29.864356994628906,-1.7755413055419922
0,657468,-21.963727951049805,12.589014053344727,-8.520895004272461,23.62360382080078
0,657468,-0.28573793172836304,23.785545349121094,26.369661331176758,35.663516998291016
0,657469,14.460208892822266,-5.118494987487793,-6.183073997497559,5.479485988616943
0,657469,-12.899500846862793,-20.051734924316406,-22.46204376220703,-47.40492248535156
0,657469,-2.5997822284698486,-8.866233825683594,8.072792053222656,-34.837764739990234
0,657469,-5.128979682922363,-11.095494270324707,27.837282180786133,-9.14602279663086
0,657469,19.347341537475586,4.013453483581543,6.916581153869629,-31.54659652709961
0,657469,13.806074142456055,-16.854278564453125,-10.268837928771973,-11.31856918334961
0,657470,-24.611717224121094,0.9750911593437195,18.227252960205078,2.33504319190979
0,657471,19.790544509887695,45.69249725341797,11.647672653198242,-177.04795837402344
0,657471,20.533845901489258,25.43057632446289,-14.721146583557129,-152.39376831054688
0,657471,-17.599506378173828,-23.031827926635742,6.5664448738098145,147.88629150390625
0,657471,-5.0278706550598145,-53.03213882446289,-3.0497701168060303,101.80499267578125
0,657473,-14.940740585327148,-67.38689422607422,-52.61576461791992,-46.45527267456055
0,657474,8.858098030090332,-28.421669006347656,-22.102874755859375,29.92858123779297
0,657477,49.79197311401367,193.87835693359375,38.069091796875,219.43508911132812
0,657478,2.308473825454712,203.23719787597656,9.694820404052734,198.40684509277344
0,657481,-28.202804565429688,0.40217921137809753,-2.627620220184326,-18.39639663696289
0,657482,-19.24263572692871,-53.80624771118164,37.37041473388672,-70.6971664428711
0,657485,-23.887113571166992,-189.90673828125,1.6707587242126465,-144.84848022460938
0,657486,9.271588325500488,-129.60902404785156,-36.9191780090332,-83.27703094482422
0,657489,16.38705825805664,80.74773406982422,-8.745095252990723,66.92549896240234
0,657490,-14.062567710876465,3.5011188983917236,-5.3632707595825195,63.512901306152344
0,657493,1.3679817914962769,-99.56590270996094,27.064321517944336,-230.2484588623047
0,657494,3.7114555835723877,-43.663063049316406,16.662761688232422,-365.8944396972656
0,657497,-0.12450404465198517,136.82090759277344,-58.39696502685547,268.75634765625
0,657498,23.7410888671875,158.1031951904297,-4.534064769744873,334.4026794433594
0,657501,-10.849811553955078,29.042165756225586,31.95359992980957,73.82634735107422
0,657502,-53.093360900878906,-72.47866821289062,-22.352087020874023,110.70360565185547
0,657505,9.188446998596191,-207.7664337158203,0.24430465698242188,-165.5609130859375
0,657592,53.19159698486328,-113.01656341552734,16.460983276367188,-120.63473510742188
0,657592,-13.042754173278809,122.61744689941406,-7.997833251953125,86.4388656616211
0,657592,-34.02494430541992,117.03800964355469,4.79319953918457,61.678775787353516
0,657592,10.595431327819824,-23.897069931030273,23.834867477416992,-14.431614875793457
0,657592,17.373865127563477,-39.24382400512695,12.91860580444336,-89.37141418457031
0,657592,-2.6745758056640625,-35.298851013183594,-16.022409439086914,-107.6772689819336
0,657593,-10.166688919067383,-83.98992919921875,-6.2881035804748535,-55.00522994995117
0,657593,8.829283714294434,-16.96254539489746,2.7949960231781006,-28.589845657348633
0,657593,12.796562194824219,58.95579147338867,-9.960745811462402,-31.21803855895996
0,657593,6.11586332321167,71.80675506591797,-1.6148806810379028,69.15239715576172
0,657593,5.646023273468018,91.01546478271484,-11.894078254699707,94.75328063964844
0,657594,2.772020101547241,67.94377136230469,-2.7993593215942383,44.98612594604492
0,657594,-3.6949472427368164,14.78407096862793,23.048479080200195,39.33119583129883
0,657594,-16.13613510131836,-19.98640251159668,-5.259021282196045,1.8528053760528564
0,657594,-16.98429298400879,-45.519775390625,-2.1413650512695312,-18.788944244384766
0,657594,2.964691638946533,-45.81625747680664,16.727205276489258,-40.728675842285156
0,657594,17.77520179748535,-25.23845100402832,-12.142544746398926,-74.5449447631836
0,657595,0.9362524747848511,-17.82497215270996,-13.757664680480957,-19.938867568969727
0,657595,-6.916825771331787,27.646987915039062,11.382638931274414,40.9924201965332
0,657595,9.585829734802246,59.8198356628418,5.898694038391113,34.62825393676758
0,657595,9.77786636352539,42.756900787353516,-14.595231056213379,29.855440139770508
0,657595,0.2851269543170929,44.71266174316406,-8.570917129516602,24.845365524291992
0,657595,-4.481689453125,16.38979148864746,4.880561351776123,13.929097175598145
0,657596,-16.949893951416016,-27.07986068725586,18.973806381225586,6.847111701965332
0,657596,-9.43586540222168,-14.432785987854004,21.290023803710938,-12.23323917388916
0,657596,-5.622496604919434,-36.453617095947266,-9.460734367370605,-35.885162353515625
0,657596,8.181407928466797,-53.874183654785156,-14.878877639770508,-32.23422622680664
0,657596,13.476577758789062,-15.36112117767334,19.674734115600586,-9.051081657409668
0,657596,-12.557853698730469,-0.6282261610031128,11.577082633972168,11.320181846618652
0,657597,21.495824813842773,24.25284194946289,-25.336341857910156,28.439605712890625
0,657597,6.813269138336182,19.04123878479004,-2.12752628326416,28.95192527770996
0,657597,-15.992161750793457,24.60186004638672,4.734533309936523,15.201745986938477
0,657597,24.21219253540039,39.688114166259766,-13.162327766418457,10.70162296295166
0,657597,-0.36411359906196594,-34.73016357421875,-11.085741996765137,9.8460693359375
0,657597,-20.172821044921875,-39.596641540527344,-12.16848087310791,-7.0655012130737305
0,657598,-18.450002670288086,3.15226674079895,-1.196446418762207,-25.520668029785156
0,657598,-5.034143447875977,-25.984189987182617,-5.85518217086792,-31.665998458862305
0,657598,12.733553886413574,-31.13786506652832,-16.711687088012695,-22.619861602783203
0,657598,-7.5964741706848145,15.330309867858887,-6.650365352630615,5.499767303466797
0,657598,-6.673280239105225,31.142759323120117,24.55255889892578,21.479679107666016
0,657599,3.2661454677581787,31.655057907104492,27.582975387573242,7.316206455230713
0,657599,4.99337100982666,35.8529052734375,-5.887948513031006,2.960475206375122
0,657599,-2.0899434089660645,-25.59212303161621,-20.137434005737305,-8.560908317565918
0,657599,-8.019316673278809,-45.53776550292969,8.553872108459473,3.738314628601074
0,657600,-10.148725509643555,27.892982482910156,20.81325912475586,-66.43767547607422
0,657600,-15.468559265136719,31.19190788269043,1.2743806838989258,-110.4021987915039
0,657601,9.285037994384766,-55.32994079589844,13.014535903930664,25.36101531982422
0,657601,18.697998046875,-39.64485168457031,7.74821138381958,38.13623809814453
0,657602,-9.457002639770508,-46.845123291015625,12.272383689880371,-96.94935607910156
0,657605,12.001066207885742,-160.96644592285156,33.47464370727539,-59.70972442626953
0,657606,43.650753021240234,-44.95839309692383,-1.5444045066833496,108.11711120605469
0,657609,-22.771411895751953,102.64600372314453,-34.13711166381836,-7.630416393280029
0,657610,1.6281205415725708,45.78623580932617,16.983930587768555,-59.378265380859375
0,657613,50.139503479003906,-85.61035919189453,86.38398742675781,107.28388214111328
0,657614,11.583791732788086,-71.99654388427734,-12.909728050231934,44.80318069458008
0,657617,5.419997215270996,242.7260284423828,-133.7618408203125,148.9930419921875
0,657618,-50.55303955078125,273.90606689453125,-75.0107421875,186.50657653808594
0,657621,-70.6521224975586,-16.53834342956543,-5.435279846191406,-224.3946075439453
0,657622,-13.623741149902344,-122.28817749023438,27.012781143188477,-270.74481201171875
0,657625,42.831153869628906,-146.54144287109375,44.2703742980957,72.10179901123047
0,657626,30.685970306396484,-23.287689208984375,57.67294692993164,140.4695587158203
0,657629,-29.971933364868164,113.0843505859375,17.231918334960938,-7.344756603240967
0,657630,-32.62705612182617,18.904842376708984,-87.42534637451172,-170.7490234375
0,657633,16.203369140625,-160.22056579589844,-17.886106491088867,-23.37204933166504
0,657634,36.85259246826172,-148.44418334960938,44.856754302978516,236.94606018066406
0,657637,22.108219146728516,205.62510681152344,-9.807369232177734,112.73273468017578
0,657735,2.804208755493164,104.718994140625,2.1743617057800293,72.59730529785156
0,657736,-34.58346939086914,-199.63864135742188,4.32745361328125,37.52820587158203
0,657736,3.5251529216766357,58.62970733642578,6.175550937652588,-62.6805419921875
0,657736,33.281341552734375,148.13046264648438,-4.72836971282959,10.955355644226074
0,657736,-17.39276885986328,32.5625,-26.387866973876953,12.412068367004395
0,657736,-19.534027099609375,9.951950073242188,-5.576291084289551,-26.87197494506836
0,657736,-7.251797676086426,14.318982124328613,12.668460845947266,-14.124910354614258
0,657737,-5.519092082977295,21.27263069152832,18.446712493896484,-47.75592803955078
0,657737,19.0308780670166,-60.81930923461914,24.556703567504883,-89.3585433959961
0,657737,4.960428237915039,-67.25253295898438,20.548532485961914,-51.22896194458008
0,657737,-12.661149978637695,3.0975522994995117,1.7950570583343506,-34.278324127197266
0,657737,11.35234546661377,-8.522780418395996,-6.705308437347412,-14.282821655273438
0,657737,12.039300918579102,-26.09857177734375,-6.146656513214111,57.68912887573242
0,657738,7.429967880249023,47.08823776245117,-19.238950729370117,62.761192321777344
0,657738,-10.453033447265625,59.325103759765625,-8.173192977905273,28.53098487854004
0,657738,-20.481351852416992,0.6309492588043213,-3.2941038608551025,34.08480453491211
0,657738,11.203993797302246,5.01771354675293,-27.303688049316406,8.810456275939941
0,657738,-5.044167995452881,-14.62701416015625,13.362826347351074,-28.033842086791992
0,657738,-1.528733730316162,-39.34990692138672,30.358463287353516,-33.3922119140625
0,657739,16.77483367919922,-28.806743621826172,-12.62238883972168,-31.96787452697754
0,657739,-9.334281921386719,-33.75948715209961,-1.8361060619354248,-43.63570022583008
0,657739,5.781455039978027,17.97130584716797,4.826642990112305,-24.974063873291016
0,657739,1.7553789615631104,2.939518690109253,-6.996083736419678,17.85026741027832
0,657739,-16.969987869262695,-26.0283203125,11.954042434692383,10.691122055053711
0,657739,4.356288433074951,42.03091049194336,-5.429401397705078,9.564438819885254
0,657740,-11.559359550476074,28.286834716796875,-9.1117582321167,18.932952880859375
0,657740,-17.43526268005371,-28.33875274658203,20.081844329833984,-9.72744083404541
0,657740,9.67844295501709,-8.56117057800293,20.623111724853516,-24.858150482177734
0,657740,2.879023551940918,16.912473678588867,18.559104919433594,-13.457109451293945
0,657740,-1.76213800907135,-25.805559158325195,-5.279782772064209,-31.24361801147461
0,657741,-0.9704662561416626,-29.651094436645508,-6.24870491027832,-33.16018295288086
0,657741,0.5526549220085144,-5.892198085784912,7.178048133850098,18.159934997558594
0,657741,20.015220642089844,-1.2532048225402832,8.187034606933594,-6.401586055755615
0,657741,20.481531143188477,22.10553550720215,0.46139076352119446,-13.497614860534668
0,657741,-2.7383413314819336,6.858059883117676,-30.131874084472656,42.173770904541016
0,657741,-13.39734172821045,-22.526269912719727,-8.044193267822266,16.24274444580078
0,657742,2.8347785472869873,-7.7876105308532715,6.173034191131592,4.262223720550537
0,657742,16.685449600219727,2.86955189704895,-12.55316162109375,-1.8242517709732056
0,657742,-1.38980233669281,-23.334165573120117,-12.635857582092285,-36.56978225708008
0,657742,-21.842321395874023,-18.448957443237305,-1.8487741947174072,-9.357542037963867
0,657742,-6.837923049926758,7.031454086303711,-0.799866795539856,9.832877159118652
0,657742,2.3972535133361816,9.34194564819336,-19.71322250366211,7.664120674133301
0,657743,-2.8614299297332764,-10.953608512878418,2.300647497177124,20.36919403076172
0,657743,-2.106435537338257,-15.52352523803711,-9.678162574768066,9.61119556427002
0,657743,-4.599545001983643,31.58985710144043,-7.892714977264404,7.549006462097168
0,657743,-0.05610891059041023,38.63779067993164,30.16997718811035,16.830516815185547
0,657743,1.4945827722549438,5.447019100189209,-13.302842140197754,-9.81576156616211
0,657743,4.5267510414123535,-12.142803192138672,-23.464942932128906,-22.904870986938477
0,657744,-10.547515869140625,-18.868919372558594,10.443462371826172,-6.048407077789307
0,657745,-10.541884422302246,-32.68059158325195,9.315617561340332,-25.35833168029785
0,657745,10.044339179992676,-27.973155975341797,-16.366960525512695,-23.47542381286621
0,657745,4.404537677764893,15.918936729431152,12.151394844055176,21.76521873474121
0,657745,-3.988935708999634,12.136016845703125,45.80199432373047,21.71516227722168
0,657746,5.999511241912842,24.759859085083008,-11.322314262390137,-3.5673625469207764
0,657747,7.23184871673584,17.872234344482422,-52.287086486816406,-113.67764282226562
0,657748,-33.039459228515625,-30.231443405151367,10.591075897216797,-59.087677001953125
0,657751,28.288789749145508,-1.716769814491272,80.865966796875,142.06173706054688
0,657752,66.69652557373047,-45.07053756713867,56.513694763183594,116.33084869384766
0,657755,8.132223129272461,31.41156005859375,-57.62997055053711,-67.20612335205078
0,657756,-10.547045707702637,188.4149932861328,-117.9047622680664,-144.97340393066406
0,657759,-76.40003967285156,136.73716735839844,-8.098386764526367,148.5371551513672
0,657760,-29.805261611938477,44.932708740234375,75.04383850097656,229.76646423339844
0,657763,37.83258056640625,-195.51931762695312,47.614776611328125,-211.1288299560547
0,657764,2.2587950229644775,-214.53103637695312,-19.91573715209961,-267.8802185058594
0,657767,17.613506317138672,55.49430465698242,-23.968975067138672,213.13124084472656
0,657768,-6.430517196655273,60.92428207397461,16.684553146362305,170.44839477539062
0,657771,-22.685523986816406,-21.34752082824707,2.0261242389678955,-104.81513977050781
0,657772,18.27544593811035,-119.8829345703125,7.307513236999512,-80.65596008300781
0,657775,24.318708419799805,-12.883378982543945,27.734893798828125,58.891605377197266
0,657776,26.06916046142578,224.51539611816406,2.7539145946502686,198.75152587890625
0,657778,23.36715316772461,90.80882263183594,-36.188377380371094,142.59567260742188
0,657780,-31.38279151916504,1.447153925895691,-16.586536407470703,-76.12255859375
0,657782,-44.129520416259766,-30.299028396606445,12.730557441711426,-362.9802551269531
0,657784,-27.577884674072266,-240.50759887695312,-24.31930160522461,-295.744140625
0,657895,4.922598361968994,-60.44724655151367,-26.751001358032227,147.2359619140625
0,657896,41.57450485229492,194.61083984375,24.388038635253906,349.7809753417969
0,657896,-16.158536911010742,42.05073165893555,-4.206575393676758,-73.11487579345703
0,657896,-25.062135696411133,-38.12113952636719,-24.001184463500977,-205.19219970703125
0,657896,0.04582124575972557,-42.000606536865234,-0.31879502534866333,2.1765661239624023
0,657896,-10.952845573425293,-83.06250762939453,31.464088439941406,2.6578171253204346
0,657896,12.953438758850098,-16.25136947631836,34.81975555419922,22.018644332885742
0,657897,19.515474319458008,35.937320709228516,-11.733616828918457,43.38003158569336
0,657897,13.590513229370117,35.77667999267578,-6.26101016998291,80.12956237792969
0,657897,13.821026802062988,69.761962890625,6.358499050140381,73.9162368774414
0,657897,1.7775343656539917,65.09329986572266,-24.6922550201416,22.164531707763672
0,657897,-7.610057830810547,24.16222381591797,-31.09769630432129,-14.129244804382324
0,657897,-26.66693878173828,9.967735290527344,7.641122341156006,-31.08355140686035
0,657898,-23.73238754272461,-21.28811264038086,14.182554244995117,-55.701053619384766
0,657898,21.838481903076172,-57.13256072998047,6.68935489654541,-53.08993148803711
0,657898,19.17800521850586,-55.81319046020508,18.033079147338867,-4.410447120666504
0,657898,-21.737272262573242,-15.702388763427734,25.2333984375,43.53534698486328
0,657898,8.268503189086914,6.075084686279297,9.512578010559082,55.84540557861328
0,657898,27.303871154785156,20.45003890991211,-12.340147018432617,64.27371978759766
0,657899,-14.769103050231934,32.727657318115234,7.8497633934021,63.48992919921875
0,657899,-21.390810012817383,25.70488929748535,8.28378963470459,42.16266632080078
0,657899,1.3788305521011353,23.450807571411133,-21.87105369567871,25.82143783569336
0,657899,12.214129447937012,2.94830060005188,-7.079440116882324,0.9326223134994507
0,657899,-1.2943415641784668,-25.490339279174805,5.239896774291992,3.582836866378784
0,657900,-13.25782585144043,-40.89829635620117,-20.081512451171875,12.051039695739746
0,657900,-3.893514633178711,-38.78178024291992,-7.3707194328308105,-4.144492149353027
0,657900,4.103160381317139,-8.219408988952637,32.80960464477539,-15.322747230529785
0,657900,7.182693958282471,16.76563262939453,7.688860893249512,-52.54668045043945
0,657900,19.726287841796875,14.019686698913574,-15.038318634033203,-73.46146392822266
0,657900,13.222410202026367,-4.6425089836120605,4.118377208709717,-48.701087951660156
0,657901,-17.518096923828125,10.378670692443848,7.7034993171691895,-27.37445831298828
0,657901,-1.6355135440826416,20.624406814575195,-2.1767380237579346,-25.14344024658203
0,657901,17.638418197631836,-15.180153846740723,-10.181163787841797,-42.094032287597656
0,657901,-1.1594983339309692,-38.132301330566406,22.040781021118164,-52.58876037597656
0,657901,-3.1027021408081055,-32.928462982177734,17.391551971435547,-14.308871269226074
0,657901,-6.140843391418457,-11.59444808959961,-20.842426300048828,-4.5144877433776855
0,657902,5.432181358337402,-31.414447784423828,-11.927512168884277,-26.26463508605957
0,657902,21.13182830810547,-26.280105590820312,6.375389575958252,38.2362174987793
0,657902,-6.34415340423584,39.51204299926758,4.161564826965332,50.782127380371094
0,657902,-18.76154899597168,28.149486541748047,-3.725398302078247,16.479568481445312
0,657902,-1.7405710220336914,3.174532890319824,-12.441779136657715,36.80573654174805
0,657902,7.658834457397461,22.595455169677734,-25.404743194580078,-4.025063514709473
0,657903,-2.566009283065796,-2.9003264904022217,7.6843791007995605,-18.525869369506836
0,657903,-22.158288955688477,-30.879547119140625,45.90397644042969,16.426727294921875
0,657903,0.2367074191570282,3.777599334716797,-1.6548426151275635,-8.423283576965332
0,657903,21.072484970092773,12.42406177520752,-38.14545822143555,-16.3369197845459
0,657903,-4.6916279792785645,-20.9637393951416,9.50426959991455,21.699649810791016
0,657903,-2.0059776306152344,15.214627265930176,2.6885688304901123,11.544540405273438
0,657904,4.907711505889893,20.174484252929688,-40.46896743774414,-2.8047642707824707
0,657904,-10.182787895202637,-23.2905216217041,2.4021947383880615,31.705320358276367
0,657904,-0.3272509276866913,18.71660804748535,17.833438873291016,24.316062927246094
0,657904,6.642420291900635,26.909305572509766,-25.860902786254883,-15.662632942199707
0,657904,-6.622330665588379,-24.46741485595703,-28.474836349487305,-14.255719184875488
0,657904,-20.172330856323242,-7.112367153167725,8.745706558227539,22.07811164855957
0,657905,4.504823684692383,42.757755279541016,20.973373413085938,5.179657459259033
0,657906,4.896345138549805,-21.07209587097168,-27.652029037475586,-36.813636779785156
0,657906,-26.06657600402832,-55.56777572631836,-0.7504393458366394,-14.0018949508667
0,657906,18.335758209228516,44.72829055786133,33.34003448486328,0.8772653341293335
0,657906,25.428382873535156,17.88158416748047,4.331427574157715,-2.1651434898376465
0,657907,-18.100799560546875,-24.79250144958496,41.30275344848633,7.455238342285156
0,657907,-8.19886589050293,27.259389877319336,15.278759002685547,-5.75378942489624
0,657908,-7.602866172790527,7.158061504364014,-50.46921920776367,-69.52676391601562
0,657911,-60.396671295166016,-77.73255157470703,-139.2548828125,-56.1964111328125
0,657912,-40.43988800048828,-119.21448516845703,-56.608646392822266,54.68290328979492
0,657915,125.77291870117188,113.0843505859375,215.12615966796875,222.55201721191406
0,657916,109.49593353271484,284.4258728027344,133.5577392578125,106.47432708740234
0,657919,-58.0195198059082,140.70120239257812,-69.9622802734375,-104.11775970458984
0,657920,-47.1010627746582,4.830760955810547,-82.04180908203125,-31.60623550415039
0,657923,-27.790557861328125,-264.8178405761719,-18.372844696044922,-74.7541275024414
0,657924,-27.796693801879883,-260.45172119140625,23.227256774902344,5.177595138549805
0,657927,34.001441955566406,68.0326919555664,4.458550930023193,3.5816948413848877
0,657928,55.77618408203125,53.6558837890625,105.37395477294922,-155.73147583007812
0,657931,15.459258079528809,10.436117172241211,31.47574234008789,183.88079833984375
0,657932,-34.31637191772461,-42.46652603149414,-146.97222900390625,232.29689025878906
0,657935,10.462874412536621,-37.29208755493164,-25.020938873291016,-214.10691833496094
0,657936,-23.35552978515625,106.23797607421875,-4.457045078277588,-494.3619689941406
0,657939,-70.27679443359375,153.10791015625,-31.79138946533203,8.868795394897461
0,657940,55.18671417236328,138.18258666992188,82.02201843261719,744.892822265625
0,657943,20.28985023498535,-198.61724853515625,61.717430114746094,-83.63703155517578
0,657944,-15.498054504394531,-229.93641662597656,-1.9576658010482788,-531.5595092773438
0,657947,3.7916324138641357,63.01118850708008,-142.97305297851562,199.63897705078125
0,658069,-17.748550415039062,86.02359771728516,-20.72463035583496,99.38493347167969
0,658069,48.39722442626953,84.49728393554688,234.3114471435547,-147.0751495361328
0,658069,1.4964699745178223,-22.25993537902832,-8.022438049316406,41.07182312011719
0,658069,-22.970897674560547,-97.54937744140625,-111.0228500366211,16.48244285583496
0,658069,-10.853933334350586,-76.85011291503906,20.068395614624023,-46.481868743896484
0,658069,-9.434775352478027,-42.660091400146484,-3.7987451553344727,44.18754577636719
0,658070,27.729942321777344,9.875213623046875,-43.079978942871094,57.09685516357422
0,658070,3.9717893600463867,50.86131286621094,-8.042041778564453,55.050045013427734
0,658070,-21.474777221679688,99.75431823730469,33.4752197265625,29.97434425354004
0,658070,-9.590195655822754,48.40272903442383,-0.9336779713630676,-0.9797965884208679
0,658070,11.582801818847656,2.448086738586426,-12.255105018615723,10.046796798706055
0,658071,-15.062942504882812,0.3650573194026947,1.365065097808838,12.242963790893555
0,658071,-18.8524112701416,-18.389892578125,-7.667734146118164,3.257768392562866
0,658071,-8.59365177154541,-69.38506317138672,-9.531631469726562,-19.741357803344727
0,658071,-9.678223609924316,-74.49211120605469,3.7909977436065674,-35.129966735839844
0,658071,23.63599395751953,-12.797420501708984,-8.292878150939941,-29.53189468383789
0,658071,3.8490028381347656,-9.794364929199219,-10.99836540222168,-9.283795356750488
0,658072,4.167349815368652,32.98884201049805,3.151405096054077,7.398956775665283
0,658072,32.919151306152344,70.66596984863281,-1.7850983142852783,-7.86631965637207
0,658072,-2.5152478218078613,34.85010528564453,13.20404052734375,20.50910758972168
0,658072,-14.888151168823242,38.12126159667969,23.789796829223633,30.691905975341797
0,658072,11.90694808959961,22.53394317626953,-10.985772132873535,-41.20114517211914
0,658072,12.710533142089844,-39.10872268676758,-34.727699279785156,-46.17485046386719
0,658073,-13.36463737487793,-47.080162048339844,-26.966333389282227,-0.39499443769454956
0,658073,-22.69857406616211,-15.409870147705078,-7.647037506103516,0.21549363434314728
0,658073,-3.972740411758423,-20.097732543945312,-9.136746406555176,-13.432801246643066
0,658073,8.442421913146973,-9.19217586517334,-5.793356418609619,2.5648839473724365
0,658073,-5.162607192993164,38.03229904174805,14.308561325073242,-0.3650696277618408
0,658074,-5.281773567199707,52.78736114501953,12.64074993133545,1.494181513786316
0,658074,16.305768966674805,41.99448776245117,14.49403190612793,27.363018035888672
0,658074,28.225622177124023,10.170106887817383,-0.3720182478427887,3.3321566581726074
0,658074,-7.3882880210876465,4.681018829345703,14.634607315063477,15.59482479095459
0,658074,-21.192289352416992,12.343332290649414,38.912994384765625,30.492435455322266
0,658074,20.167850494384766,-5.967099666595459,11.77740478515625,7.826103687286377
0,658075,8.897762298583984,14.292827606201172,12.093768119812012,25.197032928466797
0,658075,8.997840881347656,-6.280405521392822,7.1231207847595215,5.222146511077881
0,658075,24.15419578552246,-29.67034339904785,1.6691306829452515,0.9359905123710632
0,658075,-10.09496784210205,9.712409019470215,7.116986274719238,44.6816291809082
0,658075,-14.97750473022461,7.2300519943237305,-5.061602592468262,27.680166244506836
0,658075,-3.3539085388183594,-18.068296432495117,-0.024255655705928802,-10.401823997497559
0,658076,-7.3967108726501465,2.4036874771118164,-34.57218551635742,-37.761775970458984
0,658076,-20.603567123413086,-7.722872734069824,-38.833274841308594,-62.77384567260742
0,658076,-22.128089904785156,-62.43561553955078,12.87767219543457,-28.488882064819336
0,658076,2.10066819190979,-21.380861282348633,4.475888729095459,-9.601131439208984
0,658076,-12.557127952575684,17.204320907592773,-15.314726829528809,-37.80202865600586
0,658076,-20.177518844604492,-23.255264282226562,2.6507956981658936,-17.81583023071289
0,658077,23.525428771972656,-6.461484432220459,21.651248931884766,5.782817840576172
0,658077,4.400726318359375,25.829063415527344,-3.5816574096679688,1.911315679550171
0,658077,-29.03856658935547,14.203984260559082,11.050274848937988,0.8716579079627991
0,658077,24.707590103149414,13.138328552246094,23.242586135864258,38.844173431396484
0,658077,10.171018600463867,27.155961990356445,-4.152914047241211,62.97050857543945
0,658077,-13.531271934509277,14.130339622497559,16.33595085144043,35.261695861816406
0,658078,31.548656463623047,-1.4360029697418213,9.999164581298828,20.013139724731445
0,658078,14.359161376953125,8.351119041442871,-15.361284255981445,6.738839626312256
0,658078,-12.528581619262695,-9.89018726348877,-14.808249473571777,1.021382212638855
0,658078,11.014622688293457,-2.1181628704071045,19.88058090209961,-21.978750228881836
0,658078,27.16645622253418,11.451981544494629,22.720870971679688,-65.92627716064453
0,658078,-10.282258987426758,-19.51506805419922,-41.91415786743164,-49.897193908691406
0,658079,-10.152555465698242,-3.068281650543213,-15.299497604370117,-23.684131622314453
0,658079,9.8410005569458,7.003759384155273,34.64739990234375,-17.872190475463867
0,658079,0.8471023440361023,-4.794938087463379,-17.07367515563965,-13.727212905883789
0,658080,-5.249528408050537,4.031153678894043,-35.58790588378906,-373.94586181640625
0,658080,-39.30984115600586,-24.69215965270996,7.559640407562256,-350.1120300292969
0,658081,-17.947521209716797,-46.87128448486328,10.486992835998535,301.259521484375
0,658081,19.575769424438477,-14.71815013885498,-0.120002880692482,226.48895263671875
0,658081,-12.818495750427246,0.3498953878879547,1.7575289011001587,-19.657503128051758
0,658081,0.6386336088180542,-7.666507244110107,-9.739832878112793,93.89892578125
0,658082,7.636839866638184,-80.6956558227539,-45.028438568115234,338.55242919921875
0,658084,-4.672175884246826,-99.03972625732422,-26.699745178222656,331.8660888671875
0,658086,22.771879196166992,22.06934928894043,60.51666259765625,-226.8868865966797
0,658088,23.392620086669922,39.589717864990234,85.79588317871094,-91.83992004394531
0,658090,25.375715255737305,29.296634674072266,17.20302391052246,184.24354553222656
0,658092,-23.3637638092041,-19.608991622924805,-45.70755386352539,-196.83087158203125
0,658094,-37.6391716003418,-34.61748504638672,-85.48424530029297,45.68336486816406
0,658096,35.1671028137207,176.0032501220703,-54.549949645996094,185.35389709472656
0,658098,26.336849212646484,275.8435363769531,78.87242126464844,-60.092933654785156
0,658100,-31.787513732910156,90.93525695800781,43.72380065917969,-50.229496002197266
0,658102,-61.74116897583008,-267.1533508300781,-6.5399675369262695,-165.7017364501953
0,658104,0.45947128534317017,-249.78604125976562,-0.49614816904067993,-222.10118103027344
0,658106,15.406338691711426,96.96248626708984,-91.22720336914062,-587.153076171875
0,658108,-22.277416229248047,87.19139099121094,-23.28650665283203,129.4330596923828
0,658111,34.0423583984375,-34.42073440551758,93.94047546386719,951.09326171875
0,658112,36.81051254272461,-79.5514907836914,70.93621063232422,-145.26611328125
0,658115,9.294476509094238,-13.295778274536133,-0.9034990072250366,-183.37039184570312
0,658116,20.307476043701172,123.29664611816406,-49.05503845214844,307.1451110839844
0,658119,-7.031620979309082,143.10122680664062,-50.34801483154297,-276.2909851074219
0,658120,-16.9533748626709,66.96189880371094,25.229419708251953,-295.5870361328125
0,658123,-35.37734603881836,-197.7755126953125,80.0296859741211,22.945110321044922
0,658255,-19.469114303588867,-244.40237426757812,-96.78668212890625,161.00869750976562
0,658255,54.05006408691406,107.66871643066406,-130.10247802734375,121.43968200683594
0,658255,-7.5016326904296875,217.4820556640625,72.5013656616211,-17.429264068603516
0,658255,-21.874452590942383,-7.960860252380371,56.29142761230469,-24.139144897460938
0,658255,13.884293556213379,-63.23700714111328,6.901540756225586,-30.577194213867188
0,658256,-17.48798179626465,-15.436991691589355,37.7457389831543,-60.4072380065918
0,658256,4.592962265014648,-60.19560241699219,-12.688416481018066,-46.015018463134766
0,658256,2.1081957817077637,-27.574451446533203,-10.515877723693848,-22.278404235839844
0,658256,-6.674135684967041,43.38359069824219,25.539016723632812,-6.170890808105469
0,658256,13.37345027923584,51.39594650268555,-0.8622677326202393,40.76751708984375
0,658256,3.061535596847534,49.66569900512695,4.453907012939453,54.32805633544922
0,658257,-8.009414672851562,53.52446365356445,7.150963306427002,29.16951560974121
0,658257,5.511169910430908,26.793081283569336,-38.03330993652344,7.377501964569092
0,658257,-11.83847427368164,-9.394712448120117,-13.81984806060791,13.913347244262695
0,658257,-21.440380096435547,-40.44989776611328,12.241350173950195,13.864221572875977
0,658257,0.7709416151046753,-69.80223083496094,-27.448598861694336,-2.1087987422943115
0,658257,-8.957841873168945,-47.39451217651367,13.440452575683594,-6.616445541381836
0,658258,7.529368877410889,-15.097100257873535,34.652286529541016,6.729039669036865
0,658258,29.156082153320312,6.251218795776367,-9.953332901000977,43.5351448059082
0,658258,28.34658432006836,30.3572998046875,11.093385696411133,48.58392333984375
0,658258,15.026148796081543,16.083635330200195,24.21185302734375,30.833141326904297
0,658258,-17.105737686157227,9.439250946044922,-6.187639236450195,15.714054107666016
0,658258,-11.770472526550293,26.054418563842773,-8.092449188232422,10.2268648147583
0,658259,0.8172092437744141,4.1752800941467285,5.3249969482421875,-16.32585334777832
0,658259,0.7975304126739502,-34.19419860839844,-16.244169235229492,-49.533565521240234
0,658259,1.796459674835205,-61.144168853759766,0.0061920564621686935,-35.64596176147461
0,658259,-1.1636300086975098,-49.09353256225586,20.52118682861328,-21.20765495300293
0,658259,-10.52811336517334,-6.573390007019043,-4.863368511199951,-12.298236846923828
0,658259,-26.67212677001953,1.8264367580413818,-5.369130611419678,3.091102123260498
0,658260,7.227431297302246,26.783445358276367,-16.67136001586914,-6.349802494049072
0,658260,23.422466278076172,23.452943801879883,-7.427761554718018,-23.13992691040039
0,658260,-24.89250373840332,9.50891399383545,10.23707103729248,10.126331329345703
0,658260,-7.1240949630737305,26.314956665039062,-8.727712631225586,16.57068634033203
0,658260,24.948938369750977,-8.722926139831543,-26.289831161499023,-27.81765365600586
0,658261,-14.440306663513184,-38.77650451660156,-8.958277702331543,-39.844329833984375
0,658261,-25.039268493652344,-13.580924987792969,19.713144302368164,-28.13908576965332
0,658261,1.0591238737106323,-0.7499213218688965,-6.11928129196167,-15.380060195922852
0,658261,3.2694132328033447,-28.189651489257812,-6.254449844360352,-2.1994855403900146
0,658261,4.34754753112793,-16.120380401611328,28.16552734375,18.121837615966797
0,658261,3.725674629211426,22.781034469604492,22.580142974853516,16.131332397460938
0,658262,6.869904518127441,31.477590560913086,-8.722579002380371,0.050165701657533646
0,658262,5.516374588012695,14.014944076538086,-16.445831298828125,5.920970916748047
0,658262,-15.492801666259766,11.298439025878906,11.989416122436523,9.829923629760742
0,658262,13.085465431213379,27.89923667907715,8.904374122619629,-1.1619013547897339
0,658262,36.713768005371094,-7.078680515289307,-14.957283973693848,-21.031213760375977
0,658262,-15.615851402282715,-38.19407272338867,-28.540761947631836,-38.71044158935547
0,658263,-28.857624053955078,-41.95475387573242,-13.800431251525879,-24.61110496520996
0,658263,17.08648681640625,6.074136734008789,20.86697769165039,2.5020313262939453
0,658263,14.244937896728516,67.96746826171875,-1.4448715448379517,-7.045546531677246
0,658263,-19.42682647705078,-4.57051420211792,-22.938541412353516,1.184891700744629
0,658263,-10.261584281921387,-23.13111114501953,10.469321250915527,5.155757904052734
0,658263,-5.896197319030762,23.787403106689453,11.67516803741455,-5.081265926361084
0,658264,-18.6395263671875,9.493931770324707,-23.42181396484375,22.770652770996094
0,658264,-9.471928596496582,-1.8477692604064941,12.190641403198242,17.06764030456543
0,658264,20.50710678100586,-16.054784774780273,40.53478240966797,4.975709915161133
0,658264,35.567501068115234,22.636627197265625,-2.7714686393737793,-5.236363410949707
0,658264,13.457277297973633,26.48154640197754,-13.743144989013672,-14.169221878051758
0,658264,-4.10769510269165,-27.48930549621582,11.511967658996582,20.777667999267578
0,658265,16.67496109008789,5.764308452606201,27.2587890625,4.2555251121521
0,658265,28.032190322875977,31.19518280029297,-0.6834807991981506,-29.55269432067871
0,658265,-8.22097396850586,3.1292073726654053,-12.777997970581055,4.7739577293396
0,658265,-6.914931774139404,-14.695154190063477,0.319072425365448,10.719087600708008
0,658265,-0.20760630071163177,-21.732473373413086,-3.684001922607422,7.297996520996094
0,658265,-25.214378356933594,-3.548966407775879,-1.227634072303772,62.60059356689453
0,658266,-1.0539966821670532,4.189748764038086,-11.11760139465332,84.55076599121094
0,658266,-1.737908959388733,-21.26116180419922,-0.7010847330093384,83.2743148803711
0,658267,-26.874034881591797,-119.9974136352539,-9.283163070678711,265.1432800292969
0,658267,1.0181143283843994,-87.82395935058594,-22.35000228881836,163.67257690429688
0,658267,11.641834259033203,95.09031677246094,12.314659118652344,-216.270751953125
0,658268,-12.917080879211426,46.49727249145508,9.630379676818848,-96.59364318847656
0,658268,-4.152977466583252,-27.6428165435791,1.083868384361267,29.664979934692383
0,658268,15.213443756103516,43.76420974731445,0.290483295917511,-70.19479370117188
0,658269,-9.876689910888672,42.04148864746094,6.085143089294434,-30.362346649169922
0,658271,12.855659484863281,34.20140838623047,149.42880249023438,93.21446990966797
0,658272,97.78522491455078,-26.997175216674805,83.89879608154297,188.24595642089844
0,658275,-68.1963119506836,4.028450012207031,-303.17205810546875,-1343.5150146484375
0,658276,-175.77450561523438,202.30825805664062,-177.72946166992188,-1228.5657958984375
0,658279,136.06060791015625,170.838134765625,202.19871520996094,1134.49755859375
0,658280,121.85719299316406,-107.13638305664062,88.86556243896484,558.630615234375
0,658283,-177.46856689453125,-218.29576110839844,-57.30287551879883,649.060791015625
0,658284,-15.455199241638184,-52.03163528442383,41.10287094116211,932.514892578125
0,658287,146.94676208496094,-7.440680503845215,17.9117431640625,-878.6098022460938
0,658288,-36.03044509887695,-8.063338279724121,-75.18313598632812,-634.740966796875
0,658291,-59.05805587768555,-22.566633224487305,-10.624027252197266,460.8089599609375
0,658292,24.50200080871582,-125.79192352294922,28.31308937072754,254.05194091796875
0,658295,-6.3233561515808105,117.61791229248047,-16.22712516784668,41.603939056396484
0,658296,98.57804107666016,301.6347351074219,38.7444953918457,359.111083984375
0,658299,-9.198637008666992,-54.377113342285156,-11.296024322509766,-119.77153778076172
0,658300,-156.5708465576172,-287.9653015136719,-56.511661529541016,-1051.870849609375
0,658303,18.574434280395508,-184.39288330078125,28.259958267211914,-1236.104736328125
0,658304,-31.465970993041992,81.23892211914062,-26.654834747314453,428.94110107421875
0,658307,99.43914794921875,315.8393859863281,96.37442779541016,1737.40087890625
0,658308,104.17170715332031,47.611846923828125,72.61626434326172,-180.20187377929688
0,658311,-144.11691284179688,-224.80108642578125,-113.53115844726562,-838.947265625
0,658312,-3.112121820449829,-109.7325439453125,-15.27956485748291,317.9219665527344
0,658314,40.28336715698242,20.78053855895996,52.221588134765625,259.5362854003906
0,658457,8.460063934326172,245.00364685058594,-70.42072296142578,341.251708984375
0,658457,29.794384002685547,193.73724365234375,-82.73413848876953,339.6442565917969
0,658458,-11.929791450500488,-136.33506774902344,83.12319946289062,-284.77777099609375
0,658458,-6.608480930328369,-57.56492614746094,15.215349197387695,-312.14892578125
0,658458,-12.542061805725098,56.52779769897461,-69.60752868652344,-101.0179214477539
0,658458,-26.618696212768555,17.964040756225586,14.474152565002441,-162.8180694580078
0,658458,-21.79282569885254,-11.551567077636719,7.537054061889648,-110.27619934082031
0,658458,-13.250020980834961,-34.28988265991211,4.906614780426025,6.506980895996094
0,658459,9.0109281539917,-31.240646362304688,62.81643295288086,66.01367950439453
0,658459,13.739723205566406,-77.68880462646484,41.88065719604492,50.14127731323242
0,658459,8.108468055725098,-63.88884353637695,30.916336059570312,58.50015640258789
0,658459,4.905698776245117,-17.01382064819336,45.92708206176758,57.80583953857422
0,658459,12.567334175109863,26.1240177154541,-12.55896282196045,-1.2891446352005005
0,658460,29.411651611328125,36.24813461303711,-25.687313079833984,-43.00977325439453
0,658460,4.8503947257995605,-2.42767333984375,-17.266216278076172,-32.33744812011719
0,658460,-13.020613670349121,14.817773818969727,-39.42245864868164,-22.585220336914062
0,658460,-12.480348587036133,20.350807189941406,-7.640445232391357,-8.183263778686523
0,658460,-18.51580238342285,-30.851720809936523,-7.110689640045166,1.9909218549728394
0,658460,-3.7381505966186523,-34.45600128173828,-20.784425735473633,-13.98419189453125
0,658461,-6.135814189910889,-30.044307708740234,18.257884979248047,3.500985622406006
0,658461,16.96219825744629,-52.72172927856445,-2.809601306915283,23.162975311279297
0,658461,7.449387073516846,-12.914878845214844,-23.537288665771484,12.136281967163086
0,658461,-19.66828727722168,31.01559066772461,17.066129684448242,2.0632550716400146
0,658461,24.091585159301758,19.06520652770996,4.1183180809021,-34.686614990234375
0,658461,14.352437019348145,19.612133026123047,-29.798110961914062,-42.76721954345703
0,658462,-16.407249450683594,26.106996536254883,-1.9953256845474243,3.7109415531158447
0,658462,-3.710303783416748,30.6816463470459,2.9746389389038086,-7.624607086181641
0,658462,2.3748464584350586,13.968344688415527,-26.229736328125,-18.826602935791016
0,658462,-17.62493133544922,-28.960079193115234,8.584803581237793,36.50040054321289
0,658462,-10.912403106689453,3.926304340362549,28.56451416015625,35.9736442565918
0,658462,20.264070510864258,13.673595428466797,14.555187225341797,-22.37342071533203
0,658463,10.424277305603027,-32.73982620239258,26.397531509399414,6.214977741241455
0,658463,-15.474278450012207,6.69929838180542,8.31659984588623,30.325416564941406
0,658463,-17.7823486328125,25.29140853881836,-26.539920806884766,-17.578170776367188
0,658463,12.258368492126465,-4.1157917976379395,-2.1282217502593994,11.278544425964355
0,658463,7.238070487976074,19.88899803161621,31.156240463256836,37.68701934814453
0,658463,1.248967170715332,47.13178634643555,-7.694692611694336,-0.9047075510025024
0,658464,32.582435607910156,-4.9089765548706055,-16.75016212463379,-13.275426864624023
0,658464,10.266530990600586,-39.49302291870117,26.82673454284668,23.05289649963379
0,658464,-31.8092098236084,7.653289794921875,44.35283279418945,22.169788360595703
0,658464,-0.1749013215303421,-5.792807579040527,10.350876808166504,-5.909890651702881
0,658464,32.757484436035156,-17.966829299926758,-41.752933502197266,10.062495231628418
0,658465,-13.663825035095215,-1.476965308189392,-17.902950286865234,2.2752063274383545
0,658465,-10.79389762878418,-21.663806915283203,16.421916961669922,6.103337287902832
0,658465,8.847027778625488,9.362116813659668,-2.7800631523132324,40.28398132324219
0,658465,2.3255741596221924,29.783401489257812,-29.218856811523438,2.927631378173828
0,658465,2.4710030555725098,-11.102951049804688,-0.07153242081403732,-34.63483428955078
0,658465,-21.85393714904785,-15.330377578735352,31.530574798583984,-1.641650915145874
0,658466,-10.06998348236084,19.909330368041992,-26.068164825439453,9.936720848083496
0,658466,-0.17786529660224915,11.545068740844727,-40.011680603027344,14.844453811645508
0,658466,-5.305053234100342,-31.655864715576172,0.7211282849311829,21.303237915039062
0,658466,-7.6300272941589355,-16.05695915222168,-1.6619805097579956,19.64798355102539
0,658466,-17.69245147705078,12.315201759338379,-10.450207710266113,-1.3957914113998413
0,658466,0.5440844297409058,-32.701778411865234,-29.737943649291992,-32.78313446044922
0,658467,-3.592158794403076,-22.70646858215332,-22.259553909301758,-9.690756797790527
0,658467,-25.017011642456055,11.951268196105957,22.56744384765625,-5.437146186828613
0,658467,10.471940040588379,1.5644575357437134,-10.27293872833252,-25.371679306030273
0,658467,20.233373641967773,12.425609588623047,-35.84380340576172,-27.616979598999023
0,658467,5.106017589569092,7.746767997741699,13.203811645507812,25.126089096069336
0,658467,13.165202140808105,9.192689895629883,30.778614044189453,50.91057586669922
0,658468,14.335049629211426,9.5906343460083,14.276110649108887,-2.9482264518737793
0,658468,13.651662826538086,27.717121124267578,15.380849838256836,1.9757497310638428
0,658468,9.732280731201172,46.5140495300293,25.467464447021484,18.421934127807617
0,658468,30.537704467773438,7.866041660308838,-3.1107637882232666,-22.137313842773438
0,658468,15.263662338256836,8.950448989868164,-21.398780822753906,-41.322174072265625
0,658468,-1.9465712308883667,13.574981689453125,12.215543746948242,-0.32588744163513184
0,658469,17.66687774658203,-5.127395153045654,-1.7625190019607544,-26.773357391357422
0,658469,-21.808061599731445,12.334994316101074,-2.387275457382202,-67.1553955078125
0,658469,-18.206315994262695,1.7673245668411255,37.34966278076172,-26.956754684448242
0,658469,13.719951629638672,-38.56026840209961,-11.124661445617676,-31.616121292114258
0,658469,-32.74368667602539,-36.336605072021484,-18.201107025146484,-39.534481048583984
0,658471,-36.64107131958008,-118.93553924560547,40.05031967163086,97.5095443725586
0,658471,-1.8414331674575806,-134.8817138671875,-5.60242223739624,88.0882339477539
0,658471,-12.343266487121582,46.043190002441406,-47.344966888427734,-125.40489959716797
0,658471,-25.39118766784668,43.14942169189453,23.133853912353516,-89.79463958740234
0,658471,-14.203191757202148,-15.529016494750977,25.238994598388672,-11.635880470275879
0,658471,21.759674072265625,10.948953628540039,-33.80307388305664,-29.936187744140625
0,658471,25.45302391052246,-17.185102462768555,-12.77894115447998,-26.553016662597656
0,658473,-42.385311126708984,-90.29381561279297,3.512843608856201,-299.25408935546875
0,658474,-7.972760200500488,-4.272644996643066,-18.910751342773438,-183.57369995117188
0,658477,55.13298034667969,476.0110168457031,-10.863622665405273,601.885986328125
0,658478,-6.641595363616943,403.436279296875,24.60296630859375,351.83111572265625
0,658481,15.647626876831055,-268.4767150878906,94.08985137939453,-51.311832427978516
0,658482,50.287620544433594,-232.2209930419922,64.64478302001953,170.55477905273438
0,658485,-18.320541381835938,-3.9327874183654785,-71.93534088134766,-201.0384979248047
0,658486,-41.25421905517578,-43.095088958740234,-58.78382873535156,-79.97972106933594
0,658489,-16.601266860961914,12.541815757751465,-46.397247314453125,199.50335693359375
0,658490,-21.541540145874023,-16.96733856201172,7.605361461639404,79.41513061523438
0,658493,49.591552734375,-123.31393432617188,118.24359130859375,257.7340393066406
0,658494,127.698486328125,-34.32085418701172,7.442896366119385,-451.60504150390625
0,658497,-32.7935905456543,142.52133178710938,-93.58370971679688,-1031.8079833984375
0,658498,-184.1995391845703,-11.564191818237305,-96.68962860107422,-188.83123779296875
0,658501,34.69596862792969,-84.2833023071289,67.21092987060547,726.2671508789062
0,658502,128.46896362304688,10.142333030700684,112.20781707763672,391.24920654296875
0,658505,-98.27171325683594,-81.77384185791016,-172.83824157714844,68.71315002441406
0,658506,-26.471797943115234,29.038244247436523,-91.82927703857422,604.1036376953125
0,658509,88.23859405517578,191.06979370117188,191.34646606445312,-256.5552062988281
0,658510,-65.27272033691406,-71.76475524902344,96.05349731445312,-673.6981201171875
0,658512,-59.40296936035156,-227.24456787109375,-85.9382095336914,112.80734252929688
0,658514,169.77410888671875,117.31304931640625,90.39862060546875,389.1856689453125
0,658516,128.22779846191406,241.82470703125,94.43257141113281,285.72021484375
0,658518,-184.14675903320312,17.69252586364746,-340.3386535644531,-130.4992218017578
0,658520,-177.74545288085938,-35.004173278808594,-153.5616912841797,-316.579345703125
0,658675,127.24466705322266,-155.40380859375,316.65838623046875,-337.9377746582031
0,658675,134.81532287597656,-108.30632781982422,106.21000671386719,-132.02719116210938
0,658675,-60.027503967285156,174.05104064941406,-122.9452133178711,121.71857452392578
0,658675,-18.30589485168457,99.24333190917969,-18.570758819580078,88.78022766113281
0,658676,7.267641067504883,-56.588470458984375,18.212392807006836,96.48983764648438
0,658676,-34.941429138183594,-62.77350997924805,-19.279104232788086,133.14285278320312
0,658676,-28.750646591186523,-34.52568054199219,-13.461272239685059,80.53376770019531
0,658676,-11.55925464630127,-50.081790924072266,14.202099800109863,24.37468147277832
0,658676,29.029582977294922,-61.42150115966797,23.413127899169922,-32.46092987060547
0,658677,-5.062051296234131,30.837984085083008,19.864328384399414,-70.51304626464844
0,658677,-7.614572525024414,71.84371948242188,-1.1704236268997192,-93.83574676513672
0,658677,42.84817123413086,77.26785278320312,-11.727936744689941,-65.64256286621094
0,658677,2.820063352584839,55.71855926513672,-23.32033920288086,-15.24907112121582
0,658677,-40.57403564453125,13.430685043334961,-31.764022827148438,16.331954956054688
0,658677,-12.512284278869629,0.21840877830982208,-1.1342591047286987,38.92003631591797
0,658678,1.555330753326416,-52.02668762207031,-21.49296760559082,43.896385192871094
0,658678,-8.40996265411377,-63.113407135009766,-18.52360725402832,54.67919921875
0,658678,-3.237762689590454,-30.608057022094727,44.27302551269531,18.85467529296875
0,658678,18.219467163085938,-8.014457702636719,17.62563133239746,-52.07814025878906
0,658678,15.985167503356934,-2.677877426147461,-11.816855430603027,-42.246925354003906
0,658678,4.472623825073242,5.305097579956055,21.514951705932617,-23.876781463623047
0,658679,20.161529541015625,31.461252212524414,22.45976448059082,-38.3516845703125
0,658679,-2.5494039058685303,29.799488067626953,14.106689453125,3.3973493576049805
0,658679,-10.406636238098145,12.510251998901367,-8.16192626953125,36.86100769042969
0,658679,11.85222339630127,-34.71097183227539,-16.007694244384766,49.08766555786133
0,658679,-10.763262748718262,-41.660072326660156,28.01215934753418,56.2059326171875
0,658679,-17.173603057861328,5.9937639236450195,28.608091354370117,8.20864200592041
0,658680,10.703845024108887,-33.729957580566406,-15.764498710632324,-22.092226028442383
0,658680,4.5957770347595215,-47.422142028808594,-10.53635311126709,-17.652225494384766
0,658680,-22.45488739013672,26.63006019592285,25.611249923706055,-36.77811050415039
0,658680,16.146759033203125,20.563610076904297,-13.68081283569336,-64.1709213256836
0,658680,14.932478904724121,-4.085803508758545,-37.48491668701172,-58.643470764160156
0,658681,-28.48294448852539,22.00771713256836,-0.7457658648490906,-13.400696754455566
0,658681,-4.424480438232422,9.046558380126953,-17.843904495239258,7.737858295440674
0,658681,-4.524497032165527,-11.236626625061035,-19.689220428466797,-5.126765251159668
0,658681,-7.567476272583008,-26.26392936706543,5.502358913421631,-0.8388968110084534
0,658681,4.2159905433654785,-21.178050994873047,23.78828239440918,23.475372314453125
0,658681,-0.48320186138153076,10.35052490234375,-0.10301995277404785,42.70431137084961
0,658681,0.8759227395057678,-9.93135929107666,-27.768957138061523,0.5076342821121216
0,658682,20.0573787689209,12.918625831604004,18.378276824951172,-18.46565055847168
0,658682,19.46750831604004,21.737272262573242,15.545578956604004,18.409700393676758
0,658682,-9.374595642089844,-9.752477645874023,-4.841956615447998,18.058401107788086
0,658682,-7.066643714904785,35.667930603027344,-0.20560918748378754,6.659233570098877
0,658682,10.273305892944336,30.04950523376465,2.481379747390747,6.396334171295166
0,658682,21.6229248046875,-17.40858268737793,2.144163131713867,38.21986389160156
0,658683,9.348971366882324,14.33137035369873,3.628002882003784,12.287997245788574
0,658683,-15.891692161560059,2.3688154220581055,3.400625228881836,-48.126853942871094
0,658683,-12.147293090820312,-51.8350715637207,-13.435102462768555,-8.403568267822266
0,658683,-8.665034294128418,-0.30482807755470276,10.030279159545898,6.760705947875977
0,658683,-2.677577495574951,31.789052963256836,3.7646305561065674,-39.50363540649414
0,658684,5.634616851806641,-9.538678169250488,-30.98388671875,-18.17912483215332
0,658684,-13.662281036376953,-9.373259544372559,-9.07532787322998,18.826345443725586
0,658684,1.630588412284851,10.246801376342773,12.9263916015625,9.466320037841797
0,658684,13.021127700805664,15.8997220993042,2.7031891345977783,17.38728904724121
0,658684,-3.2563319206237793,4.422488689422607,-15.546319961547852,23.264259338378906
0,658684,-8.735821723937988,-19.4176025390625,-6.440894603729248,13.219947814941406
0,658685,3.8020570278167725,-0.3129817843437195,-3.1928606033325195,14.798051834106445
0,658685,5.540659427642822,-3.100902795791626,-25.92970085144043,-5.3672566413879395
0,658685,-17.00168800354004,-1.8251248598098755,9.586987495422363,-14.75651741027832
0,658685,-6.87917423248291,12.516623497009277,50.06072998046875,4.441882133483887
0,658685,15.717421531677246,-4.765390872955322,10.773252487182617,-34.83742141723633
0,658685,10.17706298828125,8.914850234985352,-33.83209991455078,-46.763084411621094
0,658686,-27.100879669189453,-15.303950309753418,11.288585662841797,-0.2323894202709198
0,658686,-10.864161491394043,-12.029183387756348,39.13968276977539,7.2114081382751465
0,658686,27.723230361938477,41.69886779785156,3.5850353240966797,-0.5414847731590271
0,658686,14.077120780944824,6.129794120788574,-7.726925849914551,4.14138650894165
0,658686,-8.702580451965332,-40.39487075805664,-12.149389266967773,45.70348358154297
0,658686,-17.658239364624023,-1.0833548307418823,22.549955368041992,43.94127655029297
0,658687,10.180885314941406,0.9197761416435242,5.030569076538086,-20.45073699951172
0,658687,25.836999893188477,-12.13404655456543,-44.58299255371094,-13.671728134155273
0,658687,-7.5781426429748535,39.77753829956055,16.429927825927734,35.82840347290039
0,658687,-16.97455596923828,21.3869686126709,23.590381622314453,15.392502784729004
0,658687,-0.4169937074184418,-24.647031784057617,-22.03607940673828,9.207489013671875
0,658687,9.9181547164917,1.962409496307373,4.918546199798584,22.035091400146484
0,658688,13.776615142822266,2.7028167247772217,8.131271362304688,8.811666488647461
0,658688,-4.625348091125488,2.2515385150909424,-2.8034698963165283,17.350147247314453
0,658688,0.6580060720443726,10.266203880310059,-4.9553656578063965,-9.83067798614502
0,658689,-12.120830535888672,-40.96126937866211,-45.27352523803711,-17.432466506958008
0,658689,-17.303321838378906,-25.56865119934082,-19.320528030395508,-15.276406288146973
0,658690,10.741015434265137,12.053560256958008,47.33938980102539,-38.036197662353516
0,658690,-0.654361367225647,3.35044002532959,13.4750337600708,-17.2446231842041
0,658690,9.774760246276855,8.298565864562988,-16.267620086669922,-15.930845260620117
0,658690,0.7148920893669128,-21.604761123657227,9.672426223754883,-12.775562286376953
0,658690,-21.25220489501953,-26.498249053955078,-5.517536163330078,-10.177974700927734
0,658692,25.795434951782227,-24.690446853637695,-43.02058029174805,-15.580263137817383
0,658693,34.48161315917969,17.576095581054688,33.80912780761719,48.01021194458008
0,658694,0.9729557037353516,153.58570861816406,69.56147003173828,89.4669418334961
0,658697,-24.68934440612793,199.55186462402344,-80.15580749511719,79.06352233886719
0,658698,-12.152485847473145,84.97244262695312,-81.49368286132812,-15.903475761413574
0,658701,8.219856262207031,-139.7104949951172,71.67316436767578,-127.85928344726562
0,658702,-14.509071350097656,-221.39715576171875,92.94580841064453,-26.578550338745117
0,658705,-2.2653467655181885,-107.6991195678711,-35.18415069580078,18.893451690673828
0,658706,-1.3437869548797607,-21.926326751708984,-130.5946044921875,-88.20027160644531
0,658709,-11.882981300354004,87.72139739990234,6.692412853240967,-9.608899116516113
0,658710,-28.179561614990234,4.728477954864502,113.75052642822266,25.209945678710938
0,658713,11.62708568572998,-119.82057189941406,22.987829208374023,-39.67998504638672
0,658714,50.94654083251953,70.33607482910156,-36.38330078125,30.165258407592773
0,658717,27.144777297973633,248.9958953857422,13.095423698425293,131.4854278564453
0,658718,17.56928062438965,137.1351318359375,47.248321533203125,81.56747436523438
0,658721,-79.32209777832031,-242.2557830810547,-47.109031677246094,-99.83599090576172
0,658722,-52.50181198120117,-248.40103149414062,-54.12178039550781,-63.846397399902344
0,658725,45.95744323730469,95.67646789550781,12.27214241027832,-22.145231246948242
0,658726,11.71735954284668,130.26075744628906,33.13282012939453,-40.407955169677734
0,658729,-0.6058464050292969,20.473981857299805,26.22481918334961,70.8362808227539
0,658730,-13.820706367492676,-99.57106018066406,-19.04093360900879,2.2214322090148926
0,658733,7.885003566741943,-131.6847686767578,-56.7020263671875,-25.436655044555664
0,658734,34.58463668823242,82.63548278808594,-38.80426788330078,36.768272399902344
0,658737,21.7108211517334,239.8461151123047,67.95781707763672,51.39519119262695
0,658738,-18.580005645751953,78.0517807006836,48.4227294921875,96.81271362304688
0,658740,-46.2473030090332,-98.79512786865234,-22.458757400512695,-52.147071838378906
0,658906,14.858855247497559,-222.50111389160156,-2.1470930576324463,-191.6036834716797
0,658906,24.55537986755371,-114.99929809570312,-30.015592575073242,-9.005888938903809
0,658906,-7.392547607421875,209.8558349609375,-8.565951347351074,145.6050567626953
0,658906,0.3437093496322632,108.46351623535156,29.147714614868164,28.08514976501465
0,658906,-12.093963623046875,-53.694786071777344,9.930583953857422,-63.13457107543945
0,658906,-13.6710786819458,-69.12740325927734,5.1069746017456055,-49.62228775024414
0,658907,-7.578691005706787,-105.37583923339844,-0.44392603635787964,-36.17420959472656
0,658907,-6.354339122772217,-36.41855239868164,-16.65853500366211,-17.80570411682129
0,658907,29.22356605529785,-11.18200397491455,-15.208476066589355,-1.5036284923553467
0,658907,15.196990013122559,19.238988876342773,9.583940505981445,30.904354095458984
0,658907,-4.327516555786133,128.00680541992188,8.092096328735352,70.93317413330078
0,658908,23.97673225402832,118.5068588256836,-12.596856117248535,58.08298110961914
0,658908,3.814361572265625,31.771081924438477,-22.59071159362793,1.1629586219787598
0,658908,-33.55233383178711,-1.5372445583343506,-1.993625283241272,-6.254833221435547
0,658908,-9.056035041809082,-39.123992919921875,26.697935104370117,-12.378332138061523
0,658908,2.7194197177886963,-43.495155334472656,9.484686851501465,-49.50801086425781
0,658908,-19.77606201171875,-66.34477233886719,-29.575387954711914,-54.062374114990234
0,658909,-4.021557807922363,-82.18631744384766,8.020003318786621,-36.26936721801758
0,658909,9.425823211669922,-9.05116081237793,47.49484634399414,14.174256324768066
0,658909,14.470954895019531,47.55582046508789,-0.7753165364265442,35.361732482910156
0,658909,0.986355185508728,21.231298446655273,-9.930562973022461,13.508980751037598
0,658909,-15.1045560836792,21.00765037536621,-2.117616653442383,39.07380294799805
0,658909,9.727551460266113,72.1513442993164,7.7430925369262695,24.347028732299805
0,658910,11.35705280303955,3.899834632873535,15.323758125305176,-16.152334213256836
0,658910,-1.6798430681228638,-67.38003540039062,-32.79560089111328,7.365725517272949
0,658910,-16.756328582763672,-17.789003372192383,-9.176247596740723,-9.727478981018066
0,658910,-18.293054580688477,-11.942718505859375,14.199179649353027,-45.42866134643555
0,658910,18.51470375061035,-54.01875686645508,-22.122777938842773,-17.59223175048828
0,658910,11.703324317932129,-12.097099304199219,11.747248649597168,18.204158782958984
0,658911,11.128698348999023,56.98091125488281,9.366687774658203,22.58919334411621
0,658911,22.02140998840332,31.768169403076172,-20.92569923400879,-5.459650993347168
0,658911,-10.731318473815918,26.962867736816406,12.492355346679688,20.45235252380371
0,658911,-7.663154602050781,32.71230697631836,6.016770839691162,33.586204528808594
0,658911,8.662997245788574,-11.769947052001953,-16.66724967956543,-21.622161865234375
0,658911,6.6401777267456055,-3.50994610786438,-0.26121100783348083,6.378206253051758
0,658912,0.41687384247779846,-6.26628303527832,4.480147361755371,0.561060905456543
0,658912,-18.53440284729004,-38.192535400390625,15.12787914276123,-44.243995666503906
0,658912,-7.937292098999023,7.2236175537109375,0.5641587972640991,-5.584778308868408
0,658912,10.65515422821045,21.61945915222168,-27.54477882385254,35.01646423339844
0,658912,-0.06549707055091858,-14.083209037780762,0.5236275792121887,15.693154335021973
0,658913,-9.620728492736816,9.281136512756348,-8.653326988220215,-22.72618293762207
0,658913,-17.13788414001465,30.607669830322266,-3.286426067352295,27.107542037963867
0,658913,-2.528286933898926,43.96848678588867,25.053579330444336,36.5709342956543
0,658913,28.591886520385742,11.476308822631836,-12.890416145324707,-16.526643753051758
0,658913,13.418737411499023,-21.204086303710938,-18.595539093017578,0.32581058144569397
0,658913,-9.20261287689209,16.07699966430664,24.225318908691406,9.224821090698242
0,658914,1.7550915479660034,1.4999799728393555,25.343847274780273,-29.139680862426758
0,658914,-1.6802152395248413,-36.147586822509766,-2.5975654125213623,-19.58898162841797
0,658914,-7.227623462677002,-11.270825386047363,0.6510733962059021,19.142436981201172
0,658914,6.4012885093688965,16.25725555419922,-10.458824157714844,6.731177806854248
0,658914,0.4911288619041443,3.3415608406066895,-15.961134910583496,3.68013334274292
0,658914,-7.565396308898926,0.6302082538604736,7.831774711608887,7.542023181915283
0,658915,12.734416007995605,20.365867614746094,-9.992713928222656,-16.775665283203125
0,658915,3.158513307571411,-10.819137573242188,-5.451559543609619,-5.074395656585693
0,658915,-12.432722091674805,-47.10829544067383,4.923044204711914,14.019801139831543
0,658915,-17.915220260620117,0.8325199484825134,-1.9384685754776,-12.058417320251465
0,658915,-4.182705879211426,28.422698974609375,4.599608421325684,-2.477038621902466
0,658915,9.717529296875,-27.209774017333984,-7.795360088348389,18.573347091674805
0,658916,-7.582406520843506,-14.682281494140625,-3.67614483833313,3.9633328914642334
0,658916,16.596723556518555,29.559860229492188,-0.032928112894296646,-2.5675060749053955
0,658916,2.6056275367736816,5.778913497924805,18.871578216552734,5.900274753570557
0,658916,-12.564573287963867,14.358683586120605,22.397842407226562,4.489144325256348
0,658916,19.891658782958984,22.31065559387207,-30.053966522216797,9.65582275390625
0,658916,-6.970077037811279,-10.488998413085938,3.1329262256622314,28.990314483642578
0,658917,-28.62760353088379,-12.281025886535645,40.12338638305664,4.120696067810059
0,658917,8.341666221618652,-1.789027214050293,-14.26821517944336,-9.204584121704102
0,658917,6.779904365539551,-25.096092224121094,-15.638619422912598,-2.4252278804779053
0,658917,-12.354393005371094,-2.075754404067993,2.5644688606262207,-16.203901290893555
0,658917,6.171172142028809,8.257612228393555,-12.026118278503418,-25.111980438232422
0,658917,5.884920120239258,-9.983787536621094,12.03269100189209,-22.289426803588867
0,658918,-3.395413875579834,8.029912948608398,23.098907470703125,-18.0513973236084
0,658918,-20.952041625976562,-13.236493110656738,-12.992810249328613,-18.021575927734375
0,658918,-1.0767213106155396,-8.991501808166504,-2.3900954723358154,-15.66202163696289
0,658918,18.362974166870117,7.2733635902404785,-7.599751949310303,-35.42816162109375
0,658918,-14.726147651672363,-6.295195579528809,-18.525733947753906,-22.241830825805664
0,658918,-4.3897480964660645,-27.138639450073242,10.424888610839844,-14.00854206085205
0,658919,1.1879692077636719,-14.152981758117676,-5.56234073638916,-45.23878479003906
0,658919,-7.508017063140869,20.27079200744629,-4.419163227081299,-2.5366246700286865
0,658919,2.119175910949707,-16.38359832763672,12.00399112701416,23.99565887451172
0,658919,2.97279953956604,-32.697906494140625,-1.9882463216781616,4.45841646194458
0,658919,7.94887638092041,10.425786972045898,-0.9201192259788513,16.206876754760742
0,658919,12.619765281677246,16.204118728637695,22.634822845458984,32.38212585449219
0,658920,16.356979370117188,1.5635502338409424,25.433185577392578,24.334396362304688
0,658921,30.194063186645508,-59.48667526245117,-4.201435089111328,-23.697345733642578
0,658921,3.022517442703247,-56.61873245239258,-4.119239807128906,-1.8635766506195068
0,658921,-34.28094482421875,49.645286560058594,-0.27193892002105713,39.84678649902344
0,658921,13.616328239440918,17.933027267456055,-18.66973876953125,11.102472305297852
0,658922,19.93059539794922,-13.626968383789062,1.080001950263977,7.600436687469482
0,658922,-17.480365753173828,50.30617904663086,23.133098602294922,5.220453262329102
0,658922,-2.9908111095428467,25.95633316040039,-12.139187812805176,4.912583827972412
0,658923,-4.958049297332764,-56.34162139892578,-22.489347457885742,41.409446716308594
0,658924,1.414244532585144,-36.00063705444336,0.6323944926261902,50.36460876464844
0,658926,25.96601104736328,38.49259567260742,-16.35470962524414,-7.236257553100586
0,658928,-30.95490264892578,16.80268669128418,-22.28786849975586,-59.86457061767578
0,658930,-67.1263656616211,-56.85838317871094,-21.584331512451172,-109.20057678222656
0,658932,13.658540725708008,-22.801422119140625,7.362828254699707,8.8185396194458
0,658934,75.99048614501953,123.2446517944336,13.858043670654297,192.3197479248047
0,658937,49.14181137084961,254.73452758789062,15.018223762512207,119.81800842285156
0,658938,-25.057340621948242,127.55891418457031,36.28160858154297,-31.014177322387695
0,658941,-63.59514617919922,-232.6270294189453,2.643984317779541,-148.24862670898438
0,658942,-38.505836486816406,-210.87049865722656,-23.923158645629883,-226.360595703125
0,658945,-2.0909106731414795,-24.754154205322266,-40.568092346191406,-7.017401218414307
0,658946,23.64697265625,8.988222122192383,37.30481719970703,222.28492736816406
0,658949,35.73705291748047,102.68138885498047,54.50494384765625,-87.33201599121094
0,658950,-1.7554610967636108,-47.78485870361328,-24.79275894165039,-133.6681671142578
0,658953,-22.521942138671875,-134.18051147460938,-29.350414276123047,216.65692138671875
0,658954,28.64682960510254,126.17741394042969,-18.65471839904785,103.154296875
0,658957,51.751976013183594,249.73953247070312,31.316133499145508,-20.584558486938477
0,658958,-24.38575553894043,50.23837661743164,-7.140222072601318,61.62056350708008
0,658961,-69.41696166992188,-239.53256225585938,-41.44557571411133,-127.02474975585938
0,658962,-23.65022087097168,-167.8585205078125,18.679670333862305,-199.36611938476562
0,658965,35.73136520385742,59.98410415649414,-1.3443102836608887,18.94246482849121
0,658966,31.467926025390625,85.63636779785156,15.570902824401855,86.28511047363281
0,658969,-13.700206756591797,54.23857116699219,62.925540924072266,56.379478454589844
0,658970,-8.483454704284668,-93.74931335449219,26.035457611083984,-42.96342086791992
0,659145,-18.465267181396484,-56.85673141479492,-68.27769470214844,-64.4767837524414
0,659145,-8.873321533203125,67.37409210205078,-59.855377197265625,24.170679092407227
0,659145,13.430747985839844,-65.29202270507812,42.367462158203125,-37.41843795776367
0,659146,3.6312124729156494,-60.185882568359375,14.695158004760742,-10.2791748046875
0,659146,3.7081496715545654,48.36311721801758,-15.377981185913086,66.72687530517578
0,659146,16.4981632232666,81.92498779296875,13.410083770751953,55.37708282470703
0,659146,27.945283889770508,85.97434997558594,-12.116658210754395,45.35976791381836
0,659146,-8.145540237426758,38.669708251953125,-7.869191646575928,26.375810623168945
0,659147,-24.376934051513672,17.37740707397461,16.71209144592285,3.2575724124908447
0,659147,7.543944358825684,-10.656087875366211,-0.679208517074585,-34.56148910522461
0,659147,-7.821987152099609,-57.46131134033203,13.221323013305664,-33.971046447753906
0,659147,-17.577028274536133,-52.55243682861328,19.18194580078125,-31.170242309570312
0,659147,15.17322063446045,-44.04892349243164,-10.849209785461426,-13.008307456970215
0,659147,20.966896057128906,-4.785617828369141,-7.078885078430176,12.745949745178223
0,659148,-1.4706748723983765,12.096219062805176,-2.1983606815338135,8.153091430664062
0,659148,-4.716281414031982,1.108382225036621,-2.3072142601013184,47.57639694213867
0,659148,12.26370906829834,53.38820266723633,2.2354953289031982,34.45337677001953
0,659148,-10.19129753112793,58.4169921875,5.735923767089844,-12.179852485656738
0,659148,-2.7381343841552734,-8.892267227172852,-11.467133522033691,-11.575867652893066
0,659148,8.801616668701172,-36.23390579223633,-11.826348304748535,-26.3935546875
0,659149,-16.086030960083008,-26.309234619140625,15.499322891235352,-35.123199462890625
0,659149,-7.551952362060547,-49.49584197998047,-12.355011940002441,-22.71234130859375
0,659149,-23.676063537597656,-44.89799118041992,-12.475381851196289,-3.14003324508667
0,659149,-2.8599190711975098,16.979915618896484,33.31447219848633,-14.496265411376953
0,659149,37.127967834472656,24.290897369384766,5.541684150695801,-19.75172996520996
0,659149,-14.83862018585205,-12.30609130859375,-42.1601448059082,18.216312408447266
0,659150,-19.444501876831055,1.795422911643982,-8.849569320678711,37.92082977294922
0,659150,21.325191497802734,37.442806243896484,20.840147018432617,10.471467018127441
0,659150,3.6723923683166504,17.131153106689453,-12.093778610229492,-30.226057052612305
0,659150,-8.731986045837402,-25.600065231323242,-25.775245666503906,1.5232733488082886
0,659150,-8.216397285461426,-10.236612319946289,8.669208526611328,14.33661937713623
0,659150,4.5705671310424805,16.173765182495117,24.5885009765625,-29.142181396484375
0,659151,14.17305850982666,-16.281415939331055,-0.2650478482246399,13.059083938598633
0,659151,8.615411758422852,-15.39200496673584,-8.45522403717041,23.521465301513672
0,659151,2.9558069705963135,26.733884811401367,0.05099205672740936,9.76916217803955
0,659151,1.269665002822876,27.957347869873047,7.4164605140686035,52.31978988647461
0,659151,19.386009216308594,39.16455841064453,16.915620803833008,22.05158233642578
0,659151,4.312712669372559,38.396827697753906,10.758856773376465,-12.465097427368164
0,659152,-11.417046546936035,-12.452644348144531,-12.132173538208008,-8.474845886230469
0,659152,1.5654324293136597,-34.864200592041016,-21.767114639282227,4.908203601837158
0,659152,-6.116295337677002,6.595305919647217,1.2080646753311157,1.107925295829773
0,659152,-3.5971672534942627,0.6594941020011902,14.119315147399902,-33.52704620361328
0,659152,1.5955660343170166,-22.076709747314453,-11.164519309997559,2.4468042850494385
0,659152,-19.99534034729004,8.17948055267334,-13.061092376708984,22.919034957885742
0,659153,-13.205733299255371,11.145743370056152,2.384021282196045,-37.5661506652832
0,659153,13.778529167175293,26.881242752075195,-3.054016351699829,-16.349092483520508
0,659153,6.437867164611816,19.459218978881836,-20.820035934448242,42.2928352355957
0,659153,2.617006301879883,-4.740276336669922,27.07761001586914,0.9145764708518982
0,659153,3.6689884662628174,6.815433979034424,42.66265869140625,-31.660430908203125
0,659154,-14.627480506896973,-22.590604782104492,-49.83308792114258,9.373979568481445
0,659154,-24.69166374206543,-14.856592178344727,-13.870924949645996,13.658820152282715
0,659154,0.4046971797943115,7.086970329284668,29.877586364746094,-23.698575973510742
0,659154,24.155536651611328,-8.931327819824219,-3.960573434829712,2.509063720703125
0,659154,0.8987160921096802,-15.411056518554688,7.894950866699219,24.78079605102539
0,659154,6.935277938842773,5.822453022003174,-4.4016242027282715,-14.76756477355957
0,659155,13.796486854553223,2.821100950241089,-0.9823419451713562,-10.597822189331055
0,659155,-24.540630340576172,-22.52253532409668,12.143046379089355,31.64624786376953
0,659155,-10.37039852142334,22.12764549255371,-10.6624174118042,9.52915096282959
0,659155,19.2355899810791,32.3255729675293,-17.009437561035156,-18.964603424072266
0,659155,-2.100473642349243,-5.996714115142822,13.5260648727417,6.685430526733398
0,659155,-13.217048645019531,-19.717321395874023,28.096355438232422,3.309687614440918
0,659156,14.675281524658203,3.870380163192749,0.8676429390907288,-5.672532558441162
0,659156,28.451129913330078,13.090559959411621,-5.311957836151123,20.684839248657227
0,659156,0.43148085474967957,-8.628218650817871,-0.46112605929374695,-6.882078170776367
0,659156,-23.68756103515625,-10.752934455871582,-6.658451080322266,-20.06279754638672
0,659156,-3.7863094806671143,2.6007871627807617,12.79367446899414,16.759199142456055
0,659156,11.563006401062012,36.12374496459961,5.574886322021484,10.18589973449707
0,659157,0.49192073941230774,13.25753116607666,-8.780838012695312,8.242043495178223
0,659157,2.605804204940796,-21.939294815063477,9.097993850708008,-17.537172317504883
0,659157,-9.073390007019043,-11.371707916259766,-16.972518920898438,-27.051610946655273
0,659157,-16.090993881225586,-11.092612266540527,-16.286270141601562,5.323460102081299
0,659157,6.283641815185547,0.8609102964401245,30.149288177490234,-17.92970848083496
0,659157,-8.345319747924805,-7.375775337219238,9.48095703125,-26.104082107543945
0,659158,-9.821212768554688,-26.527362823486328,-17.860958099365234,11.89151382446289
0,659158,13.242615699768066,-10.457898139953613,-5.318254470825195,9.034774780273438
0,659158,-16.662269592285156,0.8086159825325012,2.6492908000946045,-4.155343055725098
0,659158,-1.1230051517486572,-5.01325798034668,7.099248886108398,-11.651986122131348
0,659158,24.88893699645996,-17.477155685424805,0.40194451808929443,-12.694189071655273
0,659158,-13.155162811279297,-5.480373382568359,-4.930733680725098,8.16218090057373
0,659159,-13.750882148742676,23.50206756591797,-15.531792640686035,-6.590165615081787
0,659159,5.482673645019531,-10.647725105285645,-11.14006519317627,-13.374805450439453
0,659159,-1.8902819156646729,-39.978546142578125,23.248830795288086,11.997257232666016
0,659159,-6.518721103668213,4.944813251495361,7.048041820526123,4.503468990325928
0,659159,5.585509300231934,-0.17548075318336487,-17.447547912597656,-6.72507905960083
0,659159,4.066613674163818,-23.698808670043945,5.957878589630127,-10.067973136901855
0,659160,4.114963531494141,7.962136268615723,5.844688415527344,7.805286884307861
0,659160,22.717222213745117,12.166192054748535,-0.8992528915405273,17.99456214904785
0,659161,32.99322509765625,-41.339683532714844,35.98792266845703,-87.85916900634766
0,659161,-1.9213929176330566,-41.766231536865234,18.987751007080078,-60.16660690307617
0,659161,-27.62281608581543,34.149532318115234,-26.094791412353516,82.77303314208984
0,659162,1.128659725189209,32.89380645751953,-28.364200592041016,24.26809310913086
0,659162,1.9807406663894653,-10.387612342834473,-18.438365936279297,-32.00925064086914
0,659162,-5.4757819175720215,-5.571624755859375,-3.210636615753174,9.168794631958008
0,659162,-0.9870679378509521,19.38089370727539,-7.269812107086182,27.642576217651367
0,659162,-11.745367050170898,30.155517578125,5.517566204071045,26.496633529663086
0,659164,-7.021000385284424,-18.763566970825195,1.3928297758102417,2.684542655944824
0,659164,2.0728375911712646,-16.967361450195312,-23.245162963867188,-1.0031228065490723
0,659167,14.574978828430176,73.78462219238281,7.751360893249512,27.184722900390625
0,659168,11.860825538635254,16.472959518432617,12.568414688110352,57.31597137451172
0,659171,-18.53437042236328,-127.7981948852539,11.628847122192383,-73.93339538574219
0,659172,5.949448585510254,-46.1872673034668,35.57769775390625,-90.64881896972656
0,659175,25.039932250976562,229.68438720703125,-29.49616241455078,222.9015350341797
0,659176,17.607019424438477,218.99404907226562,-30.750104904174805,164.5132293701172
0,659179,-7.20659065246582,-2.4204261302948,51.17458724975586,-162.72023010253906
0,659180,-52.07155227661133,-100.4945068359375,17.148893356323242,-116.88970184326172
0,659183,-5.986717700958252,-221.0041046142578,-25.1800594329834,-31.362998962402344
0,659184,36.738929748535156,-114.76620483398438,-15.571660995483398,-46.485801696777344
0,659187,-33.904685974121094,95.99451446533203,2.7816669940948486,39.370872497558594
0,659188,-23.97417449951172,59.74078369140625,36.160465240478516,33.21937561035156
0,659191,22.96714210510254,-131.41644287109375,-55.64646530151367,-57.079681396484375
0,659192,-13.780838966369629,-112.94076538085938,-92.49722290039062,-32.67408752441406
0,659195,30.379499435424805,251.6055450439453,54.317962646484375,123.50460815429688
0,659196,37.453041076660156,234.10720825195312,57.322731018066406,120.60657501220703
0,659199,-20.908042907714844,-43.056026458740234,36.087371826171875,-65.86055755615234
0,659200,-13.146541595458984,-145.50047302246094,36.154056549072266,-103.61573791503906
0,659203,-8.042306900024414,-205.12806701660156,-55.85825729370117,-37.07662582397461
0,659204,-18.509641647338867,13.557564735412598,-16.953983306884766,-19.371593475341797
0,659207,15.421853065490723,174.6221160888672,27.04871940612793,51.068294525146484
0,659208,21.799806594848633,10.547958374023438,-51.12464141845703,71.53217315673828
0,659211,-18.692825317382812,-165.9339599609375,-44.088077545166016,-106.85050201416016
0,659212,0.8349533677101135,-70.58194732666016,54.75017547607422,-36.28403854370117
0,659395,35.103614807128906,227.9158477783203,4.028231143951416,180.89407348632812
0,659395,1.5112477540969849,85.59211730957031,-51.0510368347168,19.75056266784668
0,659395,-24.265817642211914,-167.31199645996094,3.364375591278076,-114.27153778076172
0,659395,2.2866334915161133,4.361745834350586,7.153754234313965,10.238255500793457
0,659395,0.9614631533622742,122.63810729980469,10.6498384475708,42.83541488647461
0,659396,0.2879759967327118,51.90236282348633,-11.058704376220703,35.57710647583008
0,659396,3.242475748062134,33.740272521972656,6.127348899841309,51.52439498901367
0,659396,-27.024263381958008,38.81352615356445,51.12268829345703,-11.88272476196289
0,659396,-12.499433517456055,-17.13945198059082,22.19051742553711,-54.67779541015625
0,659396,30.728622436523438,-70.61178588867188,18.572528839111328,-37.53692626953125
0,659396,-0.5252241492271423,-109.94720458984375,18.980987548828125,-23.57682991027832
0,659397,-30.552133560180664,-75.72355651855469,-8.830207824707031,-34.45833206176758
0,659397,3.7077696323394775,9.378914833068848,-17.92383575439453,-19.607873916625977
0,659397,14.020105361938477,-4.725715637207031,-13.616124153137207,19.08426856994629
0,659397,3.349083185195923,14.961535453796387,2.570085048675537,28.633325576782227
0,659397,22.127336502075195,77.114013671875,-4.759892463684082,25.942564010620117
0,659398,7.41573429107666,47.411468505859375,-13.085800170898438,2.766871452331543
0,659398,-22.71034049987793,-6.653397560119629,3.3972811698913574,-11.561463356018066
0,659398,-10.200550079345703,-43.266963958740234,21.822612762451172,-8.555086135864258
0,659398,3.1378331184387207,-41.58885192871094,-3.037062883377075,-30.944978713989258
0,659398,19.74814796447754,-26.378202438354492,-27.619020462036133,-45.373043060302734
0,659398,-10.080581665039062,-36.6458625793457,1.121458649635315,-29.91252899169922
0,659399,-30.005386352539062,-56.394840240478516,7.649767875671387,6.952051639556885
0,659399,13.586089134216309,4.6826605796813965,-5.613426208496094,36.62049865722656
0,659399,6.413928985595703,71.86302185058594,-10.004640579223633,16.2477970123291
0,659399,-0.030306946486234665,9.45720100402832,0.1506640613079071,2.1093673706054688
0,659399,10.944906234741211,-3.1309452056884766,0.6317200064659119,28.260671615600586
0,659399,-16.802553176879883,33.989158630371094,-0.8186798691749573,24.22256851196289
0,659400,-2.5991125106811523,-2.130246639251709,9.391311645507812,-4.326401233673096
0,659400,25.35062026977539,-46.61412048339844,3.2569570541381836,-21.971466064453125
0,659400,-8.147255897521973,-30.97394561767578,-19.992042541503906,-35.830989837646484
0,659400,-25.211437225341797,-5.672093868255615,-7.747869491577148,-5.768224239349365
0,659400,6.115410327911377,0.31037768721580505,29.51067543029785,33.22054672241211
0,659400,12.76513671875,25.467849731445312,-2.529480218887329,4.045172691345215
0,659401,-2.319218158721924,26.62884521484375,-34.06120300292969,-1.1864569187164307
0,659401,3.3092644214630127,17.818017959594727,14.218770027160645,14.59067440032959
0,659401,25.947612762451172,27.563215255737305,10.223732948303223,2.5639543533325195
0,659401,-7.1646528244018555,3.8457837104797363,-23.401657104492188,7.631691932678223
0,659401,-36.631229400634766,-13.130423545837402,17.028553009033203,4.26922607421875
0,659401,11.331499099731445,-23.296674728393555,23.85753059387207,-13.96564769744873
0,659402,15.873661994934082,-21.500844955444336,-8.239632606506348,-17.967613220214844
0,659402,-7.681992053985596,12.89638614654541,-9.337685585021973,-8.842480659484863
0,659402,-10.26522159576416,-4.073147296905518,3.977220296859741,-2.5361571311950684
0,659402,-4.549890518188477,7.574275970458984,0.4063534438610077,21.16819190979004
0,659402,14.002514839172363,31.64576530456543,-5.114228248596191,22.466758728027344
0,659403,0.7381779551506042,0.5993252396583557,-1.241377353668213,1.0791503190994263
0,659403,-2.897921323776245,1.3689541816711426,5.789936065673828,-3.584646701812744
0,659403,18.970722198486328,16.328458786010742,13.541569709777832,0.02805550955235958
0,659403,-2.1370909214019775,14.253602027893066,0.9292799830436707,3.3161892890930176
0,659403,-12.742268562316895,-0.54383784532547,-7.767262935638428,-19.733776092529297
0,659403,8.057289123535156,-31.040313720703125,-7.783353805541992,-12.112410545349121
0,659403,-7.422374725341797,-24.2016658782959,3.5970771312713623,21.365293502807617
0,659404,2.30523681640625,6.488687515258789,18.356386184692383,-0.9063262939453125
0,659404,31.488828659057617,1.6861985921859741,-11.134889602661133,-4.586214065551758
0,659404,-21.996938705444336,-5.808930397033691,-13.412875175476074,24.14012908935547
0,659404,-26.89574432373047,1.1049007177352905,9.502361297607422,-12.78763198852539
0,659404,19.700510025024414,12.255294799804688,-19.936052322387695,-21.543628692626953
0,659404,-3.5710465908050537,3.6230692863464355,1.3790643215179443,17.785736083984375
0,659405,-4.441170692443848,-13.83681583404541,23.459455490112305,3.1262242794036865
0,659405,16.51439094543457,-11.280549049377441,-33.0644645690918,-2.6339242458343506
0,659405,-9.250102043151855,2.0023603439331055,-23.21964454650879,2.2713534832000732
0,659405,-32.654354095458984,11.392232894897461,22.702959060668945,-5.149196624755859
0,659405,5.533196449279785,6.984969139099121,19.866941452026367,-5.09843111038208
0,659406,31.488161087036133,6.460188865661621,5.459739685058594,-12.121621131896973
0,659406,-6.544062614440918,-3.863718032836914,-24.506675720214844,6.1063313484191895
0,659406,-18.364322662353516,1.4876078367233276,-23.96333122253418,12.167262077331543
0,659406,9.80139446258545,5.186140060424805,11.381357192993164,-9.969757080078125
0,659406,0.8639295697212219,-8.13646125793457,16.085664749145508,6.005417346954346
0,659406,-14.683121681213379,11.646636962890625,8.45039176940918,20.199234008789062
0,659407,8.934640884399414,5.818425178527832,2.6848626136779785,-27.750673294067383
0,659407,20.011035919189453,-28.077486038208008,-5.479003429412842,-29.43781852722168
0,659407,-1.2529438734054565,7.132377624511719,1.9704468250274658,12.811842918395996
0,659407,-18.657546997070312,36.83814239501953,10.502984046936035,9.148764610290527
0,659407,5.54691219329834,-11.594406127929688,-4.516969203948975,-1.0483039617538452
0,659407,20.763734817504883,-13.594420433044434,-2.3423688411712646,-7.2813591957092285
0,659408,-7.864804744720459,15.196663856506348,7.7054595947265625,14.1939115524292
0,659408,-10.309460639953613,-1.9119588136672974,2.461169958114624,-6.16453218460083
0,659408,3.1853888034820557,-12.62178897857666,13.441983222961426,-55.00061798095703
0,659408,-9.598121643066406,-6.939495086669922,-6.1234235763549805,-13.239448547363281
0,659408,-14.020173072814941,-6.97398567199707,1.7258168458938599,33.48304748535156
0,659408,4.505591869354248,6.1561055183410645,24.16208839416504,-8.777372360229492
0,659409,17.05417251586914,-5.5082011222839355,-16.933589935302734,-26.752376556396484
0,659409,6.161395072937012,-47.86680603027344,-7.18796968460083,25.085494995117188
0,659409,-8.74957275390625,-19.51809310913086,3.294440746307373,9.515385627746582
0,659409,-8.28259563446045,25.46843147277832,-16.447229385375977,-4.720176696777344
0,659409,8.115507125854492,11.334092140197754,4.516681671142578,12.546380996704102
0,659409,5.290264129638672,-14.34676742553711,0.6723731160163879,20.542341232299805
0,659410,-2.0225915908813477,7.505959987640381,-1.2186729907989502,32.34507751464844
0,659410,11.574223518371582,22.28486442565918,-6.92814302444458,15.047045707702637
0,659410,-6.456103801727295,4.15174674987793,-13.732454299926758,3.8453991413116455
0,659410,-3.7088022232055664,1.028415560722351,16.2287654876709,-6.563447952270508
0,659411,11.49199104309082,-1.4364145994186401,-30.969785690307617,45.54352951049805
0,659412,-13.644416809082031,13.212605476379395,-38.348575592041016,51.367549896240234
0,659412,3.1671676635742188,11.543317794799805,29.77390480041504,-24.124170303344727
0,659412,23.846677780151367,24.693096160888672,12.999706268310547,-9.736650466918945
0,659412,4.30700159072876,30.925418853759766,-8.229549407958984,-0.165862575173378
0,659412,-17.67115020751953,-13.839216232299805,-6.197193622589111,0.6200635433197021
0,659412,-14.828688621520996,-21.346847534179688,5.43761682510376,10.877237319946289
0,659413,7.657524108886719,11.095293998718262,24.760848999023438,-16.88738250732422
0,659414,17.890609741210938,87.57403564453125,-8.013193130493164,-23.700069427490234
0,659414,5.5052809715271,36.997901916503906,-13.636920928955078,-12.401083946228027
0,659417,-28.42214584350586,69.4059829711914,40.68668746948242,74.08048248291016
0,659418,-4.683074474334717,148.28785705566406,23.9686279296875,23.68738555908203
0,659421,-12.28515338897705,-258.63482666015625,-29.249788284301758,-161.62725830078125
0,659422,-23.575820922851562,-310.3383483886719,-3.23307728767395,-89.94567108154297
0,659425,30.55344581604004,94.9582748413086,39.837074279785156,-35.62548828125
0,659426,8.342382431030273,81.95791625976562,27.20631980895996,-15.398188591003418
0,659429,-14.646446228027344,-77.76651763916016,-22.674867630004883,65.22398376464844
0,659430,-2.776646375656128,-106.64445495605469,-21.033737182617188,-20.641443252563477
0,659433,30.415061950683594,68.890869140625,-39.1313591003418,78.31136322021484
0,659434,48.80598449707031,188.30294799804688,-35.38856887817383,153.14962768554688
0,659437,-25.73478889465332,119.57986450195312,27.685951232910156,-45.41640853881836
0,659438,-60.843597412109375,30.594722747802734,32.958656311035156,-60.3426399230957
0,659441,-2.4193148612976074,-199.4345245361328,42.50779724121094,-29.033132553100586
0,659442,31.36851692199707,-162.43173217773438,-27.460132598876953,-19.2611026763916
0,659444,18.80769157409668,104.54312133789062,-57.50258255004883,48.712799072265625
0,659446,-29.297086715698242,67.85935974121094,24.103540420532227,24.715585708618164
0,659448,-24.599334716796875,-18.499147415161133,9.220937728881836,-22.566511154174805
0,659450,9.655022621154785,-111.25072479248047,-43.908836364746094,-84.3609390258789
0,659452,3.8162307739257812,-114.53262329101562,-4.460988521575928,-20.70793342590332
0,659454,35.6811637878418,200.07681274414062,39.37651824951172,140.5034637451172
0,659456,24.77400779724121,217.49560546875,-12.231183052062988,88.24391174316406
0,659458,-27.082664489746094,-17.64105224609375,5.80704927444458,-53.39449691772461
0,659460,-26.991968154907227,-108.51778411865234,55.3270263671875,-83.9859390258789
0,659462,12.392190933227539,-145.90211486816406,5.5091986656188965,-26.01752471923828
0,659464,13.425359725952148,29.210620880126953,-16.902448654174805,15.613020896911621
1,665162,-21.85928726196289,111.50180053710938,-23.3381404876709,5.649759292602539
1,665165,2.124115228652954,50.575313568115234,-25.476520538330078,62.10440444946289
1,665166,21.17155647277832,63.749839782714844,10.0281343460083,59.51186752319336
1,665168,3.5790953636169434,-72.977294921875,11.865738868713379,-40.25971603393555
1,665170,-7.082852363586426,-187.50901794433594,12.580168724060059,-102.44808959960938
1,665172,-9.4590425491333,-125.13736724853516,0.9484140872955322,-104.94636535644531
1,665174,0.286991685628891,1.2418097257614136,-40.98497009277344,9.767539978027344
1,665176,-3.188122272491455,93.40898132324219,-12.169294357299805,75.37525939941406
1,665185,-5.122597694396973,123.2991943359375,0.8205177187919617,51.743553161621094
1,665185,2.498849868774414,80.16686248779297,-26.330364227294922,55.05241012573242
1,665185,-4.8656792640686035,4.02960729598999,29.623842239379883,4.489597320556641
1,665185,5.36058235168457,-15.357917785644531,48.99504852294922,-27.21401023864746
1,665186,17.951465606689453,-4.733000755310059,5.520705223083496,11.015822410583496
1,665188,10.624044418334961,8.278709411621094,16.612525939941406,-2.980807065963745
1,665190,-28.075925827026367,-93.142333984375,0.3937394618988037,-63.917625427246094
1,665192,-48.42849349975586,-136.94033813476562,-31.383108139038086,-57.82879638671875
1,665194,18.044559478759766,22.839950561523438,0.7996599674224854,3.063887357711792
1,665196,37.26595687866211,70.57127380371094,-6.085877418518066,21.671287536621094
1,665198,11.204254150390625,48.08116149902344,-6.2814531326293945,27.268543243408203
1,665200,-12.229682922363281,32.34871292114258,15.563940048217773,4.2056565284729
1,665202,-16.139280319213867,-19.50640869140625,-28.723588943481445,-7.057943820953369
1,665204,4.615121364593506,25.093120574951172,-4.095544338226318,22.744243621826172
1,665206,23.400545120239258,83.7137680053711,5.867122650146484,42.19354248046875
1,665208,32.5043830871582,7.948310375213623,-21.322269439697266,52.36057662963867
1,665230,-50.76113510131836,-101.23423767089844,56.322509765625,-59.73386764526367
1,665230,-50.356998443603516,-72.68667602539062,39.52775955200195,-66.5720443725586
1,665230,36.168296813964844,33.07269287109375,-40.837615966796875,53.52574157714844
1,665230,28.319992065429688,39.5967903137207,-23.856996536254883,16.59724235534668
1,665231,8.733180046081543,-1.4864691495895386,-3.8433399200439453,5.264570713043213
1,665231,-2.510580062866211,18.757701873779297,23.307106018066406,24.223039627075195
1,665231,-8.86612606048584,9.873932838439941,35.7358283996582,-43.19129180908203
1,665231,0.16607999801635742,-51.43942642211914,-23.537866592407227,-36.8465690612793
1,665231,-14.80909538269043,-52.013526916503906,-22.546106338500977,-2.6776437759399414
1,665231,-9.529657363891602,7.0383429527282715,5.306694030761719,-18.2279052734375
1,665232,6.508459568023682,-12.365501403808594,-17.12587547302246,-4.5506391525268555
1,665233,6.246654987335205,-20.54545021057129,-16.828510284423828,-11.780106544494629
1,665234,6.142999649047852,34.87782287597656,-26.79994010925293,-26.63943099975586
1,665236,0.6898064017295837,38.92121124267578,-4.758067607879639,37.58088684082031
1,665238,-4.251901149749756,22.234668731689453,37.14579391479492,55.98666000366211
1,665240,-19.694286346435547,-19.3221435546875,21.907310485839844,-24.960601806640625
1,665242,8.807695388793945,-39.92603302001953,0.8629939556121826,-20.462751388549805
1,665244,48.72883224487305,55.11767578125,-14.279363632202148,44.80949783325195
1,665246,1.046170949935913,85.9981689453125,-20.591346740722656,72.21753692626953
1,665248,-28.37511444091797,-13.526459693908691,-4.657687664031982,24.10420036315918
1,665250,-3.149801015853882,-77.6126937866211,36.04301071166992,-98.57789611816406
1,665252,-2.0151002407073975,-57.28175735473633,41.905860900878906,-64.71322631835938
1,665254,2.888749361038208,14.045976638793945,-37.758888244628906,21.162134170532227
1,665256,-1.651404619216919,37.60034942626953,-32.207244873046875,25.2620792388916
1,665259,1.4335423707962036,25.344064712524414,40.25310134887695,28.66606330871582
1,665373,9.016045570373535,47.336978912353516,34.31515884399414,-10.4793701171875
1,665373,3.8150577545166016,-68.73169708251953,75.93563079833984,-98.00254821777344
1,665373,-8.40416145324707,4.4417724609375,-43.3013801574707,27.699237823486328
1,665373,-5.7293009757995605,27.590646743774414,-25.65910530090332,61.791255950927734
1,665373,26.47834014892578,13.988348960876465,38.685951232910156,15.527277946472168
1,665373,25.50667953491211,49.53104782104492,-3.8477962017059326,6.894359588623047
1,665373,-6.593597888946533,2.3093817234039307,-29.209426879882812,2.375080108642578
1,665374,-11.382363319396973,-27.185985565185547,-12.666985511779785,-4.134174823760986
1,665374,12.859870910644531,-14.51975154876709,-4.901003360748291,-28.71364402770996
1,665374,-11.284443855285645,-24.068126678466797,-18.534305572509766,-24.403514862060547
1,665374,-24.256834030151367,-32.55015563964844,-2.324918508529663,-15.347107887268066
1,665374,-14.474867820739746,-21.016775131225586,-3.6426143646240234,-19.66158676147461
1,665375,-9.604818344116211,14.56756591796875,-11.249751091003418,3.6075401306152344
1,665375,18.727561950683594,22.608617782592773,0.17034217715263367,27.055444717407227
1,665375,27.943439483642578,14.367243766784668,1.6869479417800903,40.81156539916992
1,665375,-22.487247467041016,11.799062728881836,16.57476043701172,8.319308280944824
1,665375,-7.483968734741211,-0.9510438442230225,2.5963029861450195,-23.868389129638672
1,665375,24.3668155670166,-14.883400917053223,9.360230445861816,2.564674139022827
1,665376,-24.3748779296875,-5.234579563140869,32.67571258544922,0.29316192865371704
1,665376,0.9266248345375061,16.681425094604492,-8.451228141784668,-27.910825729370117
1,665376,12.457441329956055,-3.9974114894866943,-15.072419166564941,-15.334691047668457
1,665376,-20.330856323242188,-16.824975967407227,-0.5457721948623657,14.802045822143555
1,665376,12.184906959533691,-2.8251445293426514,-2.4054665565490723,-1.1325029134750366
1,665376,6.40976619720459,7.2707014083862305,25.141069412231445,8.57214069366455
1,665378,0.9431518316268921,18.116212844848633,-0.5971454381942749,15.724152565002441
1,665378,-2.1666946411132812,-3.0708165168762207,-17.423080444335938,-14.959619522094727
1,665378,-9.185751914978027,7.828724384307861,28.190673828125,14.80088996887207
1,665381,17.403078079223633,-12.293522834777832,5.074826240539551,-10.244196891784668
1,665382,9.160009384155273,-37.842933654785156,-17.157665252685547,-20.192583084106445
1,665385,3.5603151321411133,96.50366973876953,-12.203750610351562,96.46038818359375
1,665386,9.124032974243164,107.43113708496094,1.6467546224594116,40.969757080078125
1,665389,22.774860382080078,-50.15180206298828,41.92867660522461,-49.15877914428711
1,665390,3.0524730682373047,-94.44486236572266,10.931380271911621,-41.79389190673828
1,665393,-54.22534942626953,-65.38301086425781,-42.76608657836914,-41.56378173828125
1,665394,-27.168672561645508,-3.0399084091186523,-33.408023834228516,49.61140060424805
1,665397,27.298423767089844,46.514530181884766,39.38456344604492,-26.75591468811035
1,665398,-12.406578063964844,17.128211975097656,25.455852508544922,-115.51051330566406
1,665401,-16.575214385986328,-35.2291374206543,-65.06565856933594,6.439839839935303
1,665402,34.02075958251953,-43.64368438720703,-22.526020050048828,62.57973861694336
1,665459,-18.866907119750977,17.303110122680664,73.2877426147461,0.010812286287546158
1,665460,-23.243297576904297,-1.6040241718292236,41.41777801513672,-25.19303321838379
1,665460,24.337535858154297,-18.120792388916016,-44.49415588378906,9.792621612548828
1,665460,10.233495712280273,37.96818542480469,-36.505863189697266,5.041533470153809
1,665460,12.499507904052734,10.863485336303711,-9.216155052185059,24.115589141845703
1,665460,10.160648345947266,19.150997161865234,9.042093276977539,36.527103424072266
1,665460,7.768126964569092,21.402435302734375,3.247152805328369,-9.73429012298584
1,665461,10.070206642150879,-17.19548988342285,-17.21169090270996,11.801486015319824
1,665461,-17.987327575683594,7.740717887878418,11.090168952941895,37.10497283935547
1,665461,-12.989174842834473,-2.3667497634887695,19.417282104492188,-12.950383186340332
1,665461,8.29811954498291,-23.76506233215332,-4.92835807800293,-30.559982299804688
1,665461,-17.531505584716797,-22.957874298095703,-22.863061904907227,1.5970090627670288
1,665462,-21.686296463012695,7.127804279327393,-13.782997131347656,7.90440559387207
1,665462,11.179756164550781,34.62336730957031,7.687680721282959,5.9099040031433105
1,665462,3.9366321563720703,19.902475357055664,2.654933214187622,31.19200897216797
1,665462,-4.843628883361816,3.3663554191589355,-5.491825580596924,6.737515926361084
1,665462,13.55996322631836,-15.526649475097656,9.10073471069336,-5.304329872131348
1,665462,3.1354055404663086,8.575477600097656,8.304977416992188,27.239471435546875
1,665463,-7.191720962524414,35.94189453125,9.81742000579834,5.629194736480713
1,665463,6.379818439483643,7.374575138092041,12.164762496948242,-20.657672882080078
1,665463,9.73438835144043,-33.403079986572266,-23.42842674255371,-35.7964973449707
1,665463,3.7074708938598633,-35.077232360839844,-2.53930401802063,-24.440549850463867
1,665463,-1.759737491607666,15.948902130126953,31.05086898803711,12.491131782531738
1,665463,-11.268080711364746,19.504053115844727,-5.06406831741333,-3.524735689163208
1,665464,-8.114788055419922,-15.138713836669922,-9.324933052062988,1.5660511255264282
1,665464,15.051559448242188,11.074349403381348,16.573543548583984,25.979835510253906
1,665464,20.8328857421875,10.023014068603516,11.751511573791504,-5.004611015319824
1,665464,-10.473373413085938,-2.713837146759033,-15.737972259521484,-33.588470458984375
1,665465,-7.59657621383667,7.477235317230225,-9.180274963378906,27.825164794921875
1,665466,10.394189834594727,-4.325341701507568,18.5289363861084,44.537357330322266
1,665466,-13.188497543334961,-32.94746017456055,-16.463483810424805,-40.20011901855469
1,665467,-19.55681037902832,5.334466934204102,-37.1114616394043,-54.89833068847656
1,665468,13.690788269042969,34.20838165283203,34.45537185668945,6.377027988433838
1,665470,-0.4414850175380707,-45.971656799316406,32.39558029174805,20.912841796875
1,665472,-34.1269416809082,-69.41459655761719,-35.966041564941406,-41.96276092529297
1,665474,5.026237964630127,-19.15389060974121,-8.413829803466797,-32.99964141845703
1,665476,13.8944673538208,49.409542083740234,39.149070739746094,21.520263671875
1,665478,-7.353396415710449,73.62084197998047,-8.425986289978027,7.544340133666992
1,665480,10.935831069946289,11.827264785766602,-32.17596435546875,-22.42183494567871
1,665482,25.008337020874023,-38.93695068359375,34.05094909667969,16.831480026245117
1,665484,-25.045448303222656,-174.49429321289062,-0.49191808700561523,-8.905097961425781
1,665486,-2.335054397583008,-110.88179779052734,-48.565486907958984,15.368298530578613
1,665488,79.94522094726562,270.1918029785156,31.913904190063477,141.66574096679688
1,665490,0.16986510157585144,212.8437957763672,48.221309661865234,-3.7165169715881348
1,665493,-68.87893676757812,-129.20706176757812,-48.8455924987793,-97.52220916748047
1,665494,-30.15927505493164,-108.46504974365234,-38.85989761352539,21.35751724243164
1,665497,19.23348617553711,49.76622772216797,11.942788124084473,21.219158172607422
1,665566,37.25091552734375,79.39176177978516,-12.659201622009277,16.574352264404297
1,665567,6.235064506530762,28.6507511138916,11.377012252807617,10.011353492736816
1,665567,-22.146089553833008,-52.40359115600586,21.407859802246094,-38.25425720214844
1,665567,-17.592330932617188,-33.45449447631836,-24.462575912475586,-20.17957878112793
1,665567,-2.842364549636841,29.65496826171875,0.755989134311676,7.74965763092041
1,665567,-13.331107139587402,-20.3797550201416,33.90875244140625,1.2301737070083618
1,665567,1.0971735715866089,-38.240501403808594,-9.13821029663086,-9.878144264221191
1,665568,35.11663055419922,12.683843612670898,-13.138227462768555,-6.321106433868408
1,665568,17.02688980102539,-3.743560552597046,35.875484466552734,5.876211166381836
1,665568,5.636620998382568,-6.959752559661865,27.27701759338379,0.4824201762676239
1,665568,-8.14158821105957,-5.467357158660889,-16.078153610229492,-4.328788757324219
1,665568,-25.434839248657227,-27.5651912689209,-10.685591697692871,-8.342095375061035
1,665568,3.5081875324249268,4.142783164978027,-7.254706382751465,-19.056690216064453
1,665569,-11.980170249938965,18.714527130126953,-3.6497342586517334,6.142663478851318
1,665569,-14.685531616210938,-6.75156307220459,1.9774425029754639,-1.3986821174621582
1,665569,24.279117584228516,-3.2465529441833496,-4.832381248474121,-12.046184539794922
1,665569,1.254632830619812,-6.722925186157227,4.711415767669678,9.062219619750977
1,665569,-14.236160278320312,-26.82946014404297,-5.445895671844482,-4.742639064788818
1,665570,5.283534526824951,6.871976375579834,-2.5922629833221436,10.603300094604492
1,665570,-5.034958362579346,2.472060441970825,26.94910430908203,13.101066589355469
1,665570,4.354526042938232,-14.03201961517334,19.360471725463867,-2.422309160232544
1,665570,25.576133728027344,17.820411682128906,-17.666791915893555,2.99053692817688
1,665570,-15.119229316711426,8.39909839630127,-11.82682991027832,-1.7090823650360107
1,665570,-20.7041015625,0.7498739957809448,9.793985366821289,-0.9012792110443115
1,665571,19.946828842163086,19.013935089111328,-22.66071319580078,-21.791109085083008
1,665571,0.7233054637908936,-11.183792114257812,-13.26144790649414,-11.28249740600586
1,665571,-4.084010601043701,-25.997779846191406,8.13350772857666,14.681925773620605
1,665571,3.0379951000213623,13.700251579284668,-24.11715316772461,0.25719666481018066
1,665571,-17.39910316467285,22.639551162719727,-3.8989205360412598,-0.10358776897192001
1,665571,0.45818808674812317,8.425328254699707,14.693211555480957,8.658845901489258
1,665572,16.60547637939453,-15.382328033447266,-18.23106575012207,9.517972946166992
1,665572,-4.448015213012695,-17.400114059448242,4.644496917724609,-5.4296488761901855
1,665572,-15.67845344543457,-0.7646167874336243,15.41376781463623,-21.599580764770508
1,665572,-0.6695058941841125,-10.405645370483398,-19.746095657348633,-5.854988098144531
1,665572,3.4078500270843506,6.8401899337768555,5.551738739013672,27.294357299804688
1,665574,11.868379592895508,22.87921714782715,-23.059436798095703,-5.890265941619873
1,665574,22.06978988647461,2.5115323066711426,-25.50191307067871,-21.44084930419922
1,665574,5.03663969039917,-2.0235424041748047,42.1121711730957,30.543745040893555
1,665574,11.964408874511719,12.499398231506348,16.769216537475586,12.460986137390137
1,665577,-9.485430717468262,-18.94264793395996,-4.294078350067139,5.467648029327393
1,665578,-27.37040138244629,-20.990070343017578,-4.96616792678833,32.05575942993164
1,665581,-11.080329895019531,14.9931640625,-2.519237756729126,-88.7989730834961
1,665582,-28.670448303222656,17.93746566772461,7.986889362335205,-55.37764358520508
1,665585,30.394609451293945,106.16227722167969,15.536041259765625,200.97076416015625
1,665586,63.39718246459961,77.73002624511719,42.08678436279297,110.55975341796875
1,665589,-33.37675857543945,-111.73574829101562,-11.592536926269531,-110.62909698486328
