Aktueller Finger,timestamp_ms,sensor_0,sensor_1,sensor_2,sensor_3
0,955369,-5.232089996337891,-309.8106384277344,-18.025623321533203,-4.594089508056641
0,955369,-24.560945510864258,179.2815704345703,-7.2206621170043945,25.027883529663086
0,955371,0.548746645450592,232.5576934814453,-9.739974975585938,-62.56985855102539
0,955373,35.40194320678711,-190.92750549316406,22.85014533996582,-28.905723571777344
0,955375,12.266905784606934,-58.42029571533203,27.817989349365234,43.10301971435547
0,955377,-27.850908279418945,134.80184936523438,-21.645360946655273,-38.83584213256836
0,955379,-1.6485357284545898,-95.10833740234375,-36.65785598754883,-63.88298416137695
0,955381,12.504374504089355,-51.39162063598633,21.71092987060547,91.70713806152344
0,955383,3.2605607509613037,215.0831756591797,38.3089714050293,53.12962341308594
0,955385,-13.839082717895508,-117.25758361816406,-15.758316040039062,-79.53572845458984
0,955387,-0.8794455528259277,-159.57275390625,-17.601633071899414,60.14396667480469
0,955389,-0.11015795171260834,213.53414916992188,21.83635711669922,44.7237548828125
0,955391,-5.3882670402526855,30.91277503967285,-0.4956117868423462,-85.77900695800781
0,955393,15.463679313659668,-128.5115966796875,-5.76724910736084,-34.13502883911133
0,955395,-28.064075469970703,-30.308910369873047,-1.137636423110962,20.850671768188477
0,955397,-7.9221343994140625,58.395263671875,-20.485309600830078,32.9082145690918
0,955399,53.76834487915039,-38.937007904052734,15.289826393127441,46.97691345214844
0,955401,-21.494285583496094,-26.247562408447266,5.367805480957031,-5.002430438995361
0,955403,-50.457027435302734,192.37767028808594,-7.376365661621094,-99.0203857421875
0,955405,37.961402893066406,-139.56326293945312,-8.710149765014648,-7.174759864807129
0,955407,18.284151077270508,-190.15858459472656,-26.005998611450195,39.80392837524414
0,955409,2.416078805923462,279.465576171875,47.19004821777344,29.438980102539062
0,955411,22.372812271118164,76.9745101928711,21.100130081176758,57.18218994140625
0,955413,-21.729068756103516,-175.68093872070312,-36.65553665161133,-58.84202575683594
0,955415,-27.67069435119629,-3.85866641998291,17.233549118041992,-43.36723709106445
0,955417,2.0060698986053467,47.950923919677734,-10.495105743408203,47.461936950683594
0,955419,2.6712968349456787,-91.98291778564453,-22.697484970092773,-36.34834671020508
0,955421,1.487492322921753,14.885912895202637,35.304542541503906,-33.9313850402832
0,955423,27.89727020263672,227.42337036132812,31.503751754760742,68.40210723876953
0,955425,0.2748541533946991,-168.28778076171875,-41.35774230957031,25.26115608215332
0,955427,-15.044609069824219,-193.37762451171875,-26.423179626464844,-19.870012283325195
0,955429,-9.332381248474121,250.25315856933594,35.38078689575195,-22.16175079345703
0,955431,-30.654958724975586,49.17265701293945,-14.954645156860352,-44.750404357910156
0,955433,23.262712478637695,-139.0838623046875,-16.65057373046875,24.400909423828125
0,955435,33.35105514526367,-31.379058837890625,1.2657331228256226,127.35005950927734
0,955437,-34.28940200805664,51.319217681884766,-2.5133249759674072,-32.42822265625
0,955439,-5.313141822814941,-8.423993110656738,19.429290771484375,-129.37905883789062
0,955441,27.242401123046875,-20.968507766723633,-3.812903642654419,42.590599060058594
0,955443,2.6456356048583984,146.28370666503906,16.065208435058594,16.80638885498047
0,955445,-5.436927318572998,-139.1259765625,-6.185815334320068,-7.367873191833496
0,955447,0.7687951922416687,-145.93894958496094,-25.844528198242188,5.909476280212402
0,955449,-3.9877545833587646,264.6098327636719,28.691904067993164,-18.3946533203125
0,955451,-23.791120529174805,20.8466854095459,-2.8674466609954834,-6.8344550132751465
0,955453,14.849982261657715,-165.48004150390625,-14.710611343383789,-21.789798736572266
0,955455,26.39853286743164,46.92082214355469,16.37260627746582,48.19856643676758
0,955457,-26.878982543945312,62.5788688659668,15.91600227355957,21.746116638183594
0,955459,-17.02890396118164,-115.1761474609375,-26.169078826904297,-55.53077697753906
0,955461,22.6868953704834,27.63981819152832,-20.290939331054688,34.485504150390625
0,955463,27.126052856445312,253.61819458007812,42.49711608886719,92.32906341552734
0,955465,-35.65707015991211,-214.96185302734375,-23.341291427612305,-75.96075439453125
0,955467,-35.96866989135742,-272.3853759765625,-52.190128326416016,-74.2496566772461
0,955469,63.012264251708984,278.4026794433594,56.88709259033203,35.60810089111328
0,955471,6.023425102233887,120.82708740234375,34.959449768066406,-55.68220520019531
0,955473,-48.060447692871094,-144.90333557128906,-33.995262145996094,62.508853912353516
0,955475,36.98746109008789,-11.119370460510254,0.691222608089447,95.21971130371094
0,955477,9.480914115905762,42.936893463134766,12.456021308898926,-55.29383087158203
0,955479,-33.206520080566406,-78.92391204833984,-13.403997421264648,-34.117027282714844
0,955481,-4.324578285217285,10.375292778015137,-21.201461791992188,-17.50379753112793
0,955483,0.11254401504993439,221.67579650878906,13.092781066894531,20.378787994384766
0,955485,6.368930339813232,-137.55838012695312,28.479612350463867,49.003257751464844
0,955487,-1.8580514192581177,-214.39453125,-16.723405838012695,9.446646690368652
0,955489,5.509883403778076,216.90147399902344,-5.098405838012695,-39.713993072509766
0,955491,14.905609130859375,67.99888610839844,3.5350003242492676,-37.57755661010742
0,955493,-2.691596031188965,-131.83639526367188,-13.433308601379395,22.029922485351562
0,955495,14.320762634277344,17.823089599609375,43.92141342163086,-17.100194931030273
0,955497,-16.371355056762695,38.91914367675781,-14.736940383911133,-40.21320343017578
0,955499,-27.853837966918945,-101.11228942871094,-58.48526382446289,60.67204666137695
0,955501,38.685890197753906,-12.921553611755371,37.44586944580078,41.74843215942383
0,955503,10.06807804107666,215.2954864501953,41.9142951965332,-40.86424255371094
0,955505,-27.503414154052734,-107.31385040283203,-30.24598503112793,-51.71906280517578
0,955760,-24.0924129486084,-214.27880859375,-11.130102157592773,7.366274356842041
0,955763,-1.8689550161361694,473.448974609375,25.375404357910156,77.16389465332031
0,955764,23.579280853271484,459.6282958984375,-29.39052963256836,29.326536178588867
0,955767,9.429445266723633,-241.37356567382812,-42.08183288574219,-82.3838119506836
0,955768,3.6515085697174072,-314.4529113769531,8.246146202087402,-87.86436462402344
0,955771,11.046554565429688,-458.82244873046875,25.91275978088379,78.41622161865234
0,961400,-0.3290660083293915,-539.1048583984375,-1.70708429813385,61.62763595581055
0,961404,-37.205745697021484,-0.5417735576629639,7.5092363357543945,-55.08722686767578
0,961405,-18.605043411254883,159.55836486816406,-8.822979927062988,2.6695587635040283
0,961407,24.23906707763672,236.60755920410156,-3.5919501781463623,81.26116180419922
0,961409,24.0196533203125,602.090087890625,55.33554458618164,21.470422744750977
0,961411,-23.405776977539062,431.0550231933594,6.42672872543335,-87.65176391601562
0,961413,-7.11845588684082,-78.78055572509766,-39.37925338745117,-19.49747085571289
0,961415,29.020915985107422,-162.826904296875,-9.543360710144043,31.329641342163086
0,961417,-5.7216620445251465,-125.14604187011719,4.313911437988281,-8.118793487548828
0,961419,28.050479888916016,-271.1460876464844,-11.934425354003906,-1.2514382600784302
0,961421,3.529149055480957,-397.1285400390625,-9.317158699035645,-7.390495300292969
0,961423,-60.81370544433594,-78.66114044189453,23.283836364746094,-20.05714225769043
0,961425,-0.24222640693187714,218.15016174316406,19.094215393066406,27.2179012298584
0,961427,23.530887603759766,73.88697052001953,-5.051024436950684,39.3651123046875
0,961429,-21.63766860961914,300.5467834472656,-3.009758472442627,-22.782678604125977
0,961431,-13.793420791625977,347.6094055175781,6.873850345611572,-34.39118576049805
0,961433,28.54706382751465,-107.56839752197266,-6.952858924865723,13.329771041870117
0,961435,19.96645164489746,-164.49081420898438,-24.675722122192383,6.0475172996521
0,961437,0.037907857447862625,-17.510534286499023,11.856749534606934,-28.312602996826172
0,961439,0.3697936534881592,-104.07103729248047,14.01548957824707,19.643234252929688
0,961441,-18.2398681640625,-330.6935729980469,-14.941689491271973,16.240234375
0,961443,-2.8743791580200195,-85.13139343261719,-1.7173091173171997,-36.36098098754883
0,961445,10.011590957641602,217.63172912597656,1.8719627857208252,14.803600311279297
0,961447,-2.222295045852661,5.364643573760986,-7.57855749130249,25.113006591796875
0,961449,10.509944915771484,182.06690979003906,-9.796854972839355,-5.469460964202881
0,961451,6.874128341674805,263.0950622558594,35.13840866088867,17.223678588867188
0,961453,-23.58612060546875,-122.94456481933594,5.892059326171875,-7.910999298095703
0,961455,-12.498826026916504,-116.78424072265625,-40.15988540649414,-23.998600006103516
0,961457,23.544694900512695,30.05496597290039,6.162176609039307,7.252563953399658
0,961459,3.7592005729675293,-53.3131217956543,11.810200691223145,-0.5336102843284607
0,961461,-5.865645408630371,-227.9810333251953,26.1749210357666,7.875943183898926
0,961463,-5.909268856048584,-39.47233200073242,-12.20490550994873,11.480538368225098
0,961465,-23.94574546813965,191.85768127441406,-41.529781341552734,-30.97153663635254
0,961467,23.796051025390625,-75.2353515625,13.29566764831543,-12.926791191101074
0,961469,20.783796310424805,102.39461517333984,17.065105438232422,14.789807319641113
0,961471,-37.48969650268555,289.0599060058594,6.93359899520874,6.3146185874938965
0,961473,6.411403179168701,-160.51702880859375,-13.033393859863281,-3.2356064319610596
0,961475,32.01833724975586,-134.57469177246094,10.690320014953613,-6.9750189781188965
0,961477,4.98942232131958,102.00555419921875,6.742269515991211,10.739933967590332
0,961479,-8.3462495803833,-52.876346588134766,-26.880823135375977,19.496423721313477
0,961481,-13.777618408203125,-179.82740783691406,37.76991271972656,8.858709335327148
0,961483,-22.88617706298828,35.710330963134766,10.62342357635498,1.8785589933395386
0,961485,-11.177485466003418,70.54940795898438,-68.50675964355469,10.877243995666504
0,961487,56.75946044921875,-126.32158660888672,11.596563339233398,-71.49011993408203
0,961489,-2.361363649368286,177.17791748046875,51.73147201538086,-18.201425552368164
0,961491,-76.29692077636719,191.34762573242188,-25.79758071899414,84.85250091552734
0,961493,42.06111526489258,-173.16180419921875,-1.452095866203308,-20.344234466552734
0,961495,68.98568725585938,-43.25312042236328,22.47896957397461,-9.201143264770508
0,961497,-22.92292594909668,110.83131408691406,-30.065906524658203,-13.808759689331055
0,961499,-44.112579345703125,-20.44538688659668,-22.076200485229492,-8.206304550170898
0,961501,-21.904542922973633,-215.85733032226562,12.157938957214355,26.845739364624023
0,961503,9.128446578979492,3.953667640686035,5.623634338378906,-13.921841621398926
0,961505,27.252504348754883,188.2635955810547,5.299315452575684,28.11791229248047
0,961507,22.571136474609375,-128.1051483154297,22.097627639770508,-3.3444206714630127
0,961509,-31.629846572875977,45.03958511352539,-9.001599311828613,-44.904991149902344
0,961511,-27.597084045410156,186.90931701660156,-19.525972366333008,9.677926063537598
0,961513,47.588287353515625,-137.17601013183594,17.086231231689453,12.61788272857666
0,961515,7.677497863769531,-85.29805755615234,1.6652603149414062,5.8479766845703125
0,961517,-32.77484893798828,131.61807250976562,-13.914508819580078,-5.784245491027832
0,961519,4.457764625549316,20.506195068359375,9.506707191467285,-17.389820098876953
0,961521,10.9613676071167,-196.31227111816406,7.5839009284973145,45.90323257446289
0,961523,14.2462739944458,35.75579071044922,-4.162661552429199,21.1785888671875
0,961525,-4.959190368652344,141.2401580810547,-5.71201753616333,-60.96937942504883
0,961527,-28.650503158569336,-137.6036834716797,-7.533359527587891,-47.063377380371094
0,961529,10.096329689025879,87.47724151611328,16.243133544921875,50.85312271118164
0,961531,-0.9794284105300903,141.34849548339844,-5.190215110778809,68.43464660644531
0,961533,-14.218069076538086,-191.16966247558594,-26.61541748046875,-22.077739715576172
0,961535,36.80158996582031,-36.311405181884766,31.76122283935547,-47.24393081665039
0,961537,-5.295279502868652,110.68697357177734,5.709993839263916,-2.772477388381958
0,961539,-22.95863914489746,-0.5792765617370605,-26.477127075195312,18.92423439025879
0,961541,-1.4008551836013794,-134.24949645996094,2.2217941284179688,-45.429927825927734
0,961543,-15.25088882446289,22.709529876708984,8.593729972839355,-17.5003604888916
0,961545,19.553760528564453,141.60191345214844,8.616289138793945,86.6777572631836
0,961547,21.888925552368164,-148.0029754638672,-20.045141220092773,13.028444290161133
0,961549,-15.728272438049316,59.50326156616211,-2.1879830360412598,-40.02900695800781
0,961551,-20.766977310180664,186.29356384277344,17.759159088134766,10.191086769104004
0,961553,1.5971912145614624,-200.8334503173828,3.1868529319763184,-7.534877300262451
0,961555,30.265714645385742,-80.4010009765625,3.7406797409057617,-6.329554557800293
0,961557,8.515175819396973,156.45555114746094,-11.61840534210205,24.222408294677734
0,961559,-18.42745018005371,-8.925483703613281,-10.627324104309082,-0.40937164425849915
0,961561,2.3129494190216064,-137.90899658203125,6.187130928039551,-9.373393058776855
0,961563,-5.198174476623535,69.9070053100586,14.72378921508789,-16.64100456237793
0,961565,14.322285652160645,116.74958801269531,7.705929279327393,3.435607671737671
0,961567,13.906286239624023,-145.1427459716797,-9.317940711975098,17.952163696289062
0,961569,-27.938249588012695,85.67695617675781,-22.898775100708008,-32.58041763305664
0,961571,6.517111301422119,170.2424774169922,10.577587127685547,1.3774539232254028
0,961574,-1.666573166847229,-217.4583282470703,19.16070556640625,14.302992820739746
0,961575,-33.89659881591797,-63.849971771240234,-20.013917922973633,-20.04195213317871
0,961578,20.158044815063477,128.46641540527344,-5.930933952331543,1.5342462062835693
0,961579,29.935340881347656,-44.54014587402344,15.4920072555542,20.482677459716797
0,961582,-22.066110610961914,-95.07850646972656,2.5866663455963135,7.089066505432129
0,961583,-20.305734634399414,90.62281799316406,-14.115822792053223,-6.637819290161133
0,961586,17.75950813293457,60.756996154785156,0.469526469707489,9.004441261291504
0,961587,33.62336349487305,-115.7469482421875,42.5595588684082,-30.323749542236328
0,961590,-18.765365600585938,127.29592895507812,-5.8753180503845215,-23.666423797607422
0,961591,-46.37469482421875,46.38080978393555,-73.62666320800781,78.34274291992188
0,961594,43.47273254394531,-185.6449432373047,16.594581604003906,23.86783218383789
0,961595,41.42107391357422,41.9831428527832,60.1347541809082,-56.85985565185547
0,961598,-51.4837760925293,72.98584747314453,-33.75560760498047,-24.506179809570312
0,961599,-19.457603454589844,-67.55754852294922,-37.420310974121094,3.4012274742126465
0,961602,29.784841537475586,-58.409423828125,45.228759765625,16.4073543548584
0,961603,-18.074575424194336,77.42918395996094,7.759578227996826,-2.903390884399414
0,961606,-8.880195617675781,64.805419921875,-32.62359619140625,28.076168060302734
0,961607,32.92964172363281,-138.6802215576172,11.127910614013672,31.5272159576416
0,961610,1.0888643264770508,117.56307983398438,21.061887741088867,-52.617557525634766
0,961611,-12.96163272857666,163.0308380126953,17.39310073852539,-48.43703079223633
0,961614,0.7419752478599548,-246.6478729248047,-15.697834968566895,43.60260772705078
0,961615,9.943913459777832,-53.51355743408203,-26.229881286621094,31.402498245239258
0,961618,2.271435260772705,141.75343322753906,2.943155288696289,-54.25390625
0,961619,-25.624998092651367,-69.59439849853516,-16.817588806152344,-38.56782150268555
0,961622,-5.1938066482543945,-97.2138900756836,-15.6179838180542,104.13471984863281
0,961623,18.058292388916016,128.29666137695312,35.90715026855469,60.12711715698242
0,961626,-7.249748706817627,73.43879699707031,7.97740364074707,-116.81766510009766
0,961627,14.219285011291504,-160.72540283203125,11.942793846130371,-29.08465003967285
0,961630,15.949983596801758,107.10247039794922,27.07754135131836,40.22234344482422
0,961631,-27.327260971069336,131.01524353027344,-45.8918571472168,0.7093400359153748
0,961634,-18.298675537109375,-213.65745544433594,-13.075019836425781,0.9466753005981445
0,961635,5.663278579711914,-11.251678466796875,29.856115341186523,27.25541114807129
0,961638,3.193140983581543,138.61474609375,-21.856870651245117,-14.4769926071167
0,961639,14.209273338317871,-33.003883361816406,1.324094295501709,-49.555816650390625
0,961642,28.472375869750977,-80.751220703125,45.7564811706543,54.070892333984375
0,961643,-6.6561384201049805,55.26081085205078,-18.00748062133789,24.10938835144043
0,961646,-24.586856842041016,49.22833251953125,-48.87186813354492,-81.06338500976562
0,961647,-0.37546953558921814,-165.5091094970703,9.656832695007324,-10.981178283691406
0,961650,-13.334269523620605,105.01729583740234,19.82956314086914,84.45355987548828
0,961651,-9.954902648925781,146.5906219482422,-12.54084587097168,12.397829055786133
0,961654,22.380760192871094,-198.20904541015625,-3.3169822692871094,-68.80017852783203
0,961655,3.253830909729004,-13.370260238647461,11.338728904724121,16.86506462097168
0,961658,5.3088459968566895,100.85252380371094,-7.341609954833984,28.949743270874023
0,961659,17.96917724609375,-33.9340705871582,-0.9061501026153564,-46.20494842529297
0,961662,-20.267488479614258,-30.838958740234375,29.788103103637695,14.395798683166504
0,961663,-30.17946434020996,74.0559310913086,15.308032989501953,32.397701263427734
0,961666,12.336258888244629,13.83891487121582,-33.760658264160156,6.8564772605896
0,961667,30.58257484436035,-169.58816528320312,-23.703828811645508,-2.3757011890411377
0,961670,17.601375579833984,126.4565200805664,29.821367263793945,-26.481800079345703
0,961671,-19.541677474975586,144.2444610595703,6.993484973907471,14.148331642150879
0,961674,-30.661502838134766,-234.71270751953125,-30.675636291503906,1.2917977571487427
0,961675,16.606828689575195,13.506202697753906,21.18898582458496,-19.031335830688477
0,961678,-7.866796493530273,145.58401489257812,15.673233032226562,-10.807308197021484
0,961679,-15.876518249511719,-67.54563903808594,-25.67084312438965,-12.426228523254395
0,961682,31.97111701965332,-61.72170639038086,8.252382278442383,49.86408233642578
0,961683,-0.6861016750335693,74.76036834716797,-2.027798891067505,15.842623710632324
0,961686,-10.776432037353516,8.209507942199707,-9.935556411743164,-27.43150520324707
0,961687,-11.737995147705078,-198.56663513183594,-18.408592224121094,11.236113548278809
0,961690,-10.086573600769043,131.65525817871094,-0.0850236713886261,-17.526010513305664
0,961691,40.68326950073242,219.91677856445312,63.45845031738281,-9.593356132507324
0,961694,10.348011016845703,-223.67135620117188,-13.039968490600586,-10.462533950805664
0,961695,-28.52796745300293,-83.09268951416016,-35.33763885498047,-32.352081298828125
0,961698,13.437068939208984,157.6121826171875,40.16798782348633,35.662147521972656
0,961699,32.20392608642578,19.468223571777344,9.606897354125977,24.708715438842773
0,961702,-40.35952377319336,-64.3547134399414,-29.054868698120117,0.3589601516723633
0,961703,-35.76649856567383,59.644981384277344,-11.869368553161621,18.835237503051758
0,961706,35.74324417114258,-6.681362152099609,-6.494779586791992,-45.98161315917969
0,961707,5.923285007476807,-219.18479919433594,-27.790788650512695,-36.44075012207031
0,961710,-25.456527709960938,171.1031494140625,19.05226707458496,49.05369186401367
0,961711,-16.74163818359375,203.97596740722656,47.95370864868164,37.80101013183594
0,961714,26.364904403686523,-273.9049072265625,-9.929725646972656,-39.978492736816406
0,961715,18.531545639038086,-49.39545822143555,-30.07280158996582,-16.02685546875
0,961718,-11.7681245803833,156.02830505371094,-7.079248428344727,44.7540168762207
0,961719,-9.529152870178223,-24.87207794189453,15.332859992980957,-3.5862021446228027
0,961722,-0.3846205174922943,-58.235260009765625,24.04449462890625,-37.01588439941406
0,961723,35.22290802001953,95.89690399169922,7.074962139129639,30.122941970825195
0,961726,-12.201871871948242,40.684173583984375,-26.00919532775879,-0.12890715897083282
0,961727,-18.5921688079834,-179.6883544921875,-13.008295059204102,-27.707273483276367
0,961730,22.411865234375,102.15099334716797,13.650479316711426,40.55933380126953
0,961731,-16.242942810058594,127.90087890625,-3.5088837146759033,-22.575584411621094
0,961732,-12.717947006225586,-247.44053649902344,1.5181756019592285,-8.618478775024414
0,961735,8.159754753112793,-6.075904846191406,2.135082244873047,24.057687759399414
0,961736,-8.637596130371094,288.7601318359375,-14.890923500061035,-31.398174285888672
0,961739,4.574934005737305,-73.88545989990234,2.732978343963623,-1.9318028688430786
0,961740,20.673742294311523,-186.93760681152344,10.019207000732422,12.720442771911621
0,961743,9.846535682678223,153.65109252929688,7.423856258392334,13.400625228881836
0,961744,-11.161558151245117,52.43525695800781,-7.512804985046387,-5.973270893096924
0,961747,-12.849126815795898,-202.3102264404297,-6.936241149902344,-20.793365478515625
0,961748,-0.832023024559021,-91.8054428100586,10.238187789916992,5.3844122886657715
0,961751,-2.7654590606689453,170.67459106445312,-1.5617918968200684,-0.7991036176681519
0,961752,3.0501456260681152,15.860658645629883,-4.819117069244385,16.433055877685547
0,961755,-1.9425737857818604,-96.71524047851562,-3.7948975563049316,27.595552444458008
0,961756,0.19221524894237518,201.3380126953125,-3.2332801818847656,-18.744823455810547
0,961759,7.698646545410156,-44.17851638793945,2.264220714569092,-28.189207077026367
0,961760,-20.937435150146484,-222.3685302734375,7.3350677490234375,-22.899560928344727
0,961763,-4.136023044586182,160.27474975585938,3.126549243927002,6.515039920806885
0,961764,44.25787353515625,117.8796615600586,2.381053924560547,46.40978240966797
0,961767,-9.67606258392334,-134.5605010986328,6.282112121582031,2.356635093688965
0,961768,-27.757356643676758,-100.33857727050781,-19.916954040527344,-16.7030029296875
0,961771,18.883451461791992,112.27900695800781,-4.505558490753174,-14.051986694335938
0,961772,-1.0913498401641846,16.185007095336914,23.73776626586914,-4.30815315246582
0,961775,-11.863651275634766,-83.46643829345703,-7.757124900817871,44.0563850402832
0,961776,11.275979995727539,187.6964874267578,11.277975082397461,27.218923568725586
0,961779,16.32822608947754,-63.230037689208984,-1.6941558122634888,-57.25589370727539
0,961780,-9.310796737670898,-199.67623901367188,-23.83168601989746,-37.47834014892578
0,961783,-21.047719955444336,165.50807189941406,29.80685043334961,51.82251739501953
0,961784,6.524549961090088,83.31034851074219,3.4864249229431152,10.389803886413574
0,961787,12.505386352539062,-148.19210815429688,-26.971363067626953,-24.054990768432617
0,961788,-20.412952423095703,-75.34998321533203,-17.46099281311035,-14.016172409057617
0,961791,6.0282206535339355,118.14856719970703,-11.163942337036133,-6.789851188659668
0,961792,21.393342971801758,-23.119340896606445,26.687347412109375,27.493532180786133
0,961795,-21.571331024169922,-44.88003158569336,21.256961822509766,12.393672943115234
0,961796,-9.359158515930176,213.2313232421875,-9.243769645690918,-23.838319778442383
0,961799,31.39284896850586,-119.31043243408203,-15.506927490234375,5.854282379150391
0,961800,4.200742721557617,-185.59307861328125,-4.706696510314941,24.521493911743164
0,961803,-32.468257904052734,199.86053466796875,45.13866424560547,-36.825138092041016
0,961804,10.873690605163574,43.956077575683594,8.307085037231445,-7.9774370193481445
0,961807,11.538301467895508,-131.56484985351562,-57.28102111816406,58.708648681640625
0,961808,-6.846449851989746,15.32505989074707,16.209753036499023,-14.077676773071289
0,961811,-17.351303100585938,62.272552490234375,16.558340072631836,-71.81466674804688
0,961812,1.3036431074142456,-100.7386703491211,-31.238719940185547,3.0694217681884766
0,961815,47.20833206176758,34.8358154296875,36.496578216552734,53.59701156616211
0,961816,-36.66576385498047,192.64288330078125,0.4557262361049652,17.267976760864258
0,961819,-24.53493881225586,-192.53506469726562,-56.8798828125,-25.49646759033203
0,961820,41.00090026855469,-151.35853576660156,20.420507431030273,2.9476592540740967
0,961823,-17.90534210205078,238.62025451660156,23.787551879882812,20.008188247680664
0,961824,-13.053020477294922,58.65315628051758,-10.698017120361328,-53.74563980102539
0,961827,14.191401481628418,-178.28367614746094,9.959904670715332,-3.6905159950256348
0,961828,-2.591315746307373,-48.04674530029297,-12.18714427947998,68.35731506347656
0,961831,-2.5767629146575928,167.33343505859375,-8.829906463623047,2.7147257328033447
0,961832,23.128944396972656,-28.70489501953125,19.909828186035156,-43.126129150390625
0,961835,-11.003585815429688,-113.78487396240234,-13.167510032653809,-15.428230285644531
0,961836,-29.5909423828125,191.1119384765625,-7.2704973220825195,19.487733840942383
0,961839,58.02886962890625,-59.73550033569336,37.35291290283203,23.407527923583984
0,961840,2.7844319343566895,-203.02833557128906,-22.600831985473633,-2.0075020790100098
0,961843,-63.80792999267578,148.22628784179688,-42.894798278808594,-53.2711296081543
0,961844,35.0269660949707,114.91695404052734,45.21702575683594,-4.7472333908081055
0,961847,7.051655292510986,-98.31639099121094,27.011323928833008,61.10679626464844
0,961848,-39.37818145751953,-54.27011489868164,-26.57001304626465,11.306984901428223
0,961851,24.212665557861328,85.62168884277344,0.7389065623283386,-19.995033264160156
0,961852,16.337106704711914,-43.72451400756836,13.58452033996582,3.886655569076538
0,961855,-22.3389892578125,-69.72776794433594,-10.594695091247559,-10.486334800720215
0,961856,-6.248525619506836,170.9446258544922,4.995551109313965,-17.847684860229492
0,961859,15.017477035522461,-75.00711822509766,-1.6941375732421875,10.743144989013672
0,961860,-0.23242005705833435,-174.0050811767578,-18.981794357299805,-9.631084442138672
0,961863,-10.449553489685059,171.00839233398438,6.0199689865112305,9.219141960144043
0,961864,20.967859268188477,81.01299285888672,-0.458052396774292,-18.507160186767578
0,961867,12.261612892150879,-126.95885467529297,6.366078853607178,-34.84528732299805
0,961868,-30.520681381225586,-45.136322021484375,12.662108421325684,64.51814270019531
0,961871,-10.371323585510254,119.82815551757812,-5.777862548828125,7.153189182281494
0,961872,20.970788955688477,-42.44628143310547,-30.49517250061035,-43.45286178588867
0,961875,10.5354585647583,-81.42403411865234,-9.038286209106445,22.965471267700195
0,961876,-13.794097900390625,204.62188720703125,43.44756317138672,19.18210792541504
0,961879,-3.0943028926849365,-80.98420715332031,8.589842796325684,7.01608943939209
0,961880,10.259908676147461,-220.98190307617188,-24.665151596069336,7.885289192199707
0,961883,-27.003299713134766,179.98297119140625,1.1777530908584595,-14.097557067871094
0,961884,-7.508899211883545,109.4137954711914,0.2081747055053711,-31.75226593017578
0,961887,42.12360763549805,-151.69105529785156,-16.002201080322266,-2.057476043701172
0,961888,-0.6759281754493713,-40.87192916870117,11.059358596801758,45.77277374267578
0,961891,-11.986756324768066,141.16062927246094,30.80217170715332,-4.617166996002197
0,961892,15.557950019836426,-32.5434684753418,4.007180213928223,-75.28924560546875
0,961895,-23.06047821044922,-107.92033386230469,-31.5875244140625,17.582365036010742
0,961896,-15.281569480895996,150.72303771972656,-20.273414611816406,74.74736785888672
0,961899,28.568389892578125,-86.0011978149414,8.732544898986816,-47.831905364990234
0,961900,-6.495443344116211,-165.60809326171875,16.250144958496094,-34.3033447265625
0,961903,-11.155485153198242,242.39996337890625,15.331127166748047,56.12165832519531
0,961904,15.180323600769043,96.48593139648438,-9.370240211486816,-7.321392059326172
0,961907,2.6308250427246094,-180.3230438232422,-4.250503063201904,0.263163685798645
0,961908,-14.849207878112793,-49.25288772583008,10.010333061218262,42.43408966064453
0,961911,1.9999933242797852,120.37696838378906,-17.436920166015625,-37.808990478515625
0,961912,32.79265213012695,-52.974891662597656,-9.951431274414062,-56.29943084716797
0,961915,-21.005611419677734,-87.29615783691406,25.34215545654297,22.793909072875977
0,961916,-23.921438217163086,176.4404296875,-17.727397918701172,36.031890869140625
0,961919,21.750688552856445,-93.82727813720703,-17.430641174316406,-3.659458637237549
0,961920,-16.412839889526367,-159.26638793945312,24.311084747314453,5.721980571746826
0,961923,-10.056927680969238,223.53392028808594,13.478777885437012,-22.908639907836914
0,961924,20.093957901000977,58.257076263427734,-2.3636064529418945,-19.123855590820312
0,961927,10.860414505004883,-165.06634521484375,-26.51561737060547,38.093994140625
0,961928,-17.202287673950195,-8.001006126403809,9.709269523620605,-0.3773863613605499
0,961931,-5.997195243835449,117.27422332763672,13.830628395080566,-53.007423400878906
0,961932,27.366506576538086,-69.31743621826172,-13.628019332885742,-34.240379333496094
0,961935,-15.711801528930664,-63.424049377441406,1.7394027709960938,84.28684997558594
0,961936,-2.7649307250976562,193.5142059326172,14.545014381408691,129.10093688964844
0,961939,12.747649192810059,-135.866455078125,-9.48774242401123,-82.09420776367188
0,961941,-19.716064453125,-205.42665100097656,-38.552215576171875,-119.45582580566406
0,961943,6.0480055809021,237.11990356445312,14.853479385375977,42.66636276245117
0,961945,6.675363063812256,51.83388137817383,32.98999786376953,9.360260963439941
0,961948,-19.21171760559082,-74.77545928955078,3.464353322982788,-3.389591932296753
0,961949,3.2507553100585938,83.36226654052734,3.566964864730835,21.222999572753906
0,961952,30.971845626831055,-21.12830924987793,2.8409311771392822,-11.260211944580078
0,961953,9.684630393981934,-106.81685638427734,-16.108474731445312,-2.950003147125244
0,961956,-18.38735580444336,14.947872161865234,-10.702486991882324,18.85463523864746
0,961957,-4.097553253173828,153.95608520507812,24.95035743713379,-20.264305114746094
0,961960,15.727693557739258,-174.9972686767578,-8.411593437194824,-46.81450653076172
0,961961,-9.602524757385254,-176.12063598632812,-17.146623611450195,16.806489944458008
0,961964,-10.917128562927246,265.9219970703125,23.54908561706543,59.322479248046875
0,961965,7.6021881103515625,49.78168869018555,-21.563966751098633,4.598669528961182
0,961968,-14.84541130065918,-113.36290740966797,-29.369888305664062,-19.860307693481445
0,961969,-11.881508827209473,75.1880111694336,18.517684936523438,30.001880645751953
0,961972,17.114240646362305,-15.396158218383789,1.33950674533844,-14.78600025177002
0,961973,15.666411399841309,-110.58650970458984,20.48147201538086,-66.14622497558594
0,961976,-8.216111183166504,58.051483154296875,24.34918975830078,6.756130218505859
0,961977,-17.370574951171875,149.85691833496094,-42.1411247253418,11.205751419067383
0,961980,-8.499164581298828,-180.55332946777344,-13.813051223754883,-5.409759044647217
0,961981,-0.12973511219024658,-138.76046752929688,13.899449348449707,70.6929702758789
0,961984,26.624319076538086,252.401611328125,20.763826370239258,45.89978790283203
0,961985,19.029827117919922,31.14665985107422,36.53173065185547,-43.60295486450195
0,961988,-15.395858764648438,-102.50495147705078,-36.35123825073242,-83.44163513183594
0,961989,3.0508809089660645,80.38772583007812,-27.0327205657959,-2.4117255210876465
0,961992,1.2994569540023804,-20.591487884521484,20.965484619140625,83.96099090576172
0,961993,-39.77969741821289,-150.49722290039062,-23.941801071166992,-22.396852493286133
0,961996,-4.840940952301025,56.79832077026367,10.55515193939209,-34.8469352722168
0,961997,27.45756721496582,190.47755432128906,21.524776458740234,55.31005096435547
0,962000,14.589122772216797,-198.833740234375,-36.05072021484375,-34.54814910888672
0,962001,26.784841537475586,-125.3603744506836,31.453710556030273,-47.6682014465332
0,962004,-30.282882690429688,258.3198547363281,37.2293586730957,25.373027801513672
0,962005,-33.98853302001953,-38.84408187866211,-37.60134506225586,11.809968948364258
0,962008,37.18373107910156,-94.95993041992188,-13.604534149169922,2.572517156600952
0,962009,6.335562705993652,122.34465026855469,2.6537466049194336,22.887893676757812
0,962012,-28.96213722229004,-17.924217224121094,-0.048768676817417145,-20.056787490844727
0,962013,1.7957016229629517,-128.57778930664062,4.792882442474365,-50.47822189331055
0,962016,7.887263298034668,46.506832122802734,-2.0805304050445557,72.58985137939453
0,962017,-15.85943603515625,168.93997192382812,5.251871109008789,84.04083251953125
0,962020,15.408867835998535,-186.66957092285156,-17.232542037963867,-49.99876403808594
0,962021,30.08710289001465,-156.71717834472656,-10.861128807067871,-71.32295227050781
0,962024,-3.077742338180542,271.0570373535156,34.3189697265625,12.78821086883545
0,962025,-28.114839553833008,24.15570831298828,-7.03889274597168,42.154300689697266
0,962028,-26.71769142150879,-131.9922637939453,-22.609357833862305,-35.94435119628906
0,962029,15.296294212341309,75.76549530029297,36.36565399169922,-50.80740737915039
0,962032,37.78626251220703,9.28707218170166,3.25325345993042,37.93603515625
0,962033,-0.778293788433075,-101.32405853271484,-35.877159118652344,24.75556182861328
0,962036,-19.2603702545166,29.700023651123047,4.480377197265625,-18.958955764770508
0,962037,-1.9490597248077393,170.29617309570312,26.560754776000977,6.665637016296387
0,962040,-20.698030471801758,-164.3863067626953,17.953933715820312,-57.965152740478516
0,962041,8.192197799682617,-146.88893127441406,-9.847987174987793,-52.28111267089844
0,962044,14.625370025634766,232.09303283691406,-17.15749740600586,102.90399932861328
0,962045,-14.280553817749023,-14.69272518157959,-8.700121879577637,69.3047103881836
0,962048,21.974721908569336,-105.92241668701172,-27.106897354125977,-50.87302017211914
0,962049,2.073634147644043,72.77657318115234,-15.289632797241211,6.009641170501709
0,962052,9.04504108428955,36.952392578125,55.712947845458984,-50.0283317565918
0,962053,1.2741715908050537,-85.01648712158203,27.049238204956055,-38.519718170166016
0,962056,-42.25741958618164,-29.211349487304688,-48.32911682128906,156.7113800048828
0,962057,23.18402671813965,182.38980102539062,-8.377427101135254,6.7191996574401855
0,962060,6.471149921417236,-127.17403411865234,22.021024703979492,-146.89170837402344
0,962061,-36.23944091796875,-151.8444061279297,19.132596969604492,17.9600772857666
0,962064,22.960121154785156,239.7725067138672,-8.034346580505371,75.08776092529297
0,962065,30.548065185546875,-7.583051681518555,-26.692180633544922,-50.478145599365234
0,962068,-19.825925827026367,-122.67758178710938,14.759498596191406,-43.99263000488281
0,962069,-36.929473876953125,71.87834167480469,2.9541938304901123,-15.716663360595703
0,962072,22.402530670166016,11.420818328857422,-8.777048110961914,33.957557678222656
0,962073,42.073585510253906,-110.23524475097656,17.469680786132812,187.57261657714844
0,962076,-45.74649429321289,14.009366035461426,-17.533693313598633,-13.64062213897705
0,962077,-20.37382698059082,194.47801208496094,-16.93648910522461,-134.71556091308594
0,962080,36.82719039916992,-152.4092559814453,12.21251106262207,-5.525209903717041
0,962081,-8.475558280944824,-167.0649871826172,-2.0654420852661133,-91.81407165527344
0,962084,6.908744812011719,260.4969482421875,11.886524200439453,21.35171127319336
0,962085,24.3812255859375,-7.2025933265686035,12.947361946105957,126.41816711425781
0,962088,-34.720985412597656,-116.83920288085938,-11.353679656982422,-1.9326262474060059
0,962089,-25.625904083251953,104.26554870605469,4.872453212738037,-19.16345977783203
0,962092,38.41842269897461,-46.62224197387695,-1.1439133882522583,-26.266586303710938
0,962093,22.680309295654297,-99.4222183227539,-1.006028652191162,-69.62943267822266
0,962096,-22.1196231842041,97.51741027832031,9.157146453857422,-40.82659912109375
0,962097,-13.391379356384277,158.22547912597656,-16.975059509277344,17.170249938964844
0,962100,18.706098556518555,-178.43508911132812,-10.244930267333984,124.43376159667969
0,962101,6.488781452178955,-128.3187713623047,-9.5462646484375,131.30059814453125
0,962104,-36.64483642578125,197.10386657714844,15.122419357299805,-193.52134704589844
0,962105,-16.491918563842773,-49.23773956298828,45.29144287109375,-177.31594848632812
0,962106,31.886096954345703,-186.64002990722656,-8.107234954833984,221.12350463867188
0,962109,6.9698686599731445,146.9942626953125,-48.42011642456055,221.4618682861328
0,962110,-1.898242473602295,137.0904998779297,-21.284290313720703,-48.09831619262695
0,962113,0.6274940371513367,-179.53662109375,22.85420036315918,-240.0524444580078
0,962114,-30.234853744506836,-15.511697769165039,36.315216064453125,-125.76237487792969
0,962117,19.351276397705078,204.4315948486328,-6.516928195953369,147.40359497070312
0,962118,60.85670852661133,89.04776763916016,-11.175896644592285,32.31782150268555
0,962121,-20.061506271362305,-134.3645782470703,10.63353157043457,-112.0713119506836
0,962122,-57.68455123901367,-87.57156372070312,-37.16738510131836,-5.8215179443359375
0,962125,2.2907979488372803,25.556316375732422,-23.09248924255371,88.99674987792969
0,962126,42.570228576660156,-140.0322723388672,45.28358840942383,139.85084533691406
0,962129,3.868783712387085,84.08152770996094,25.446544647216797,70.18256378173828
0,962130,-29.025699615478516,173.8209228515625,-21.20757293701172,6.119815826416016
0,962133,-7.1013288497924805,-184.89385986328125,-12.465778350830078,-245.56576538085938
0,962134,-8.820404052734375,-46.93244552612305,7.738041877746582,-256.8050231933594
0,962137,-10.431447982788086,190.79074096679688,12.781606674194336,257.9544677734375
0,962138,36.9778938293457,34.617530822753906,12.599733352661133,201.8821258544922
0,962141,15.690900802612305,-168.7743377685547,-8.212942123413086,-111.45802307128906
0,962142,-39.78776168823242,17.662748336791992,-22.945322036743164,-4.043232440948486
0,962145,-4.638998031616211,104.53115844726562,5.862979412078857,-27.274982452392578
0,962146,18.605323791503906,-194.65377807617188,17.57682228088379,-81.40593719482422
0,962149,13.422699928283691,108.20018005371094,-5.985194206237793,8.972392082214355
0,962150,3.9655706882476807,199.47967529296875,-16.605329513549805,63.84331512451172
0,962156,0.6321660280227661,-139.7126007080078,-5.865352153778076,6.474671363830566
0,962156,-9.742136001586914,-12.205049514770508,23.923280715942383,-36.2140998840332
0,962157,-8.860321998596191,-60.4203987121582,-3.3359673023223877,52.034141540527344
0,962159,17.52878189086914,-71.79597473144531,-28.149187088012695,58.06345748901367
0,962161,-4.956116199493408,47.59890365600586,33.532508850097656,13.165467262268066
0,962163,-7.542458534240723,85.50062561035156,32.651180267333984,-63.8377799987793
0,962165,-14.873908042907715,-15.047036170959473,-66.13557434082031,-153.2913818359375
0,962167,-19.01271629333496,-170.95492553710938,-39.61021423339844,-6.054999828338623
0,962169,48.04002380371094,208.89059448242188,71.66508483886719,152.508544921875
0,962171,19.282957077026367,152.61825561523438,26.560653686523438,-7.163958549499512
0,962173,-29.126096725463867,-290.7281494140625,-32.34028625488281,-69.32388305664062
0,962175,10.594758987426758,-7.008426189422607,0.9756213426589966,37.31406021118164
0,962177,-6.918615341186523,127.86339569091797,15.131847381591797,72.31405639648438
0,962179,-13.679059028625488,-39.306087493896484,8.407700538635254,20.74466896057129
0,962181,6.139730453491211,-26.7739200592041,-65.31948852539062,-27.297985076904297
0,962183,-6.737778663635254,43.42855453491211,-71.9738540649414,42.2081184387207
0,962185,6.855226516723633,30.560848236083984,89.28604125976562,58.77288055419922
0,962187,-0.4803493320941925,-164.5030517578125,75.01292419433594,-110.8482437133789
0,962189,0.3960926830768585,123.06195068359375,-36.754268646240234,-150.24395751953125
0,962191,10.312704086303711,184.72445678710938,-7.664066314697266,37.732662200927734
0,962193,-12.995936393737793,-236.23280334472656,-3.308095932006836,28.1834659576416
0,962195,-27.642269134521484,-21.353477478027344,-11.534132957458496,-0.5310623049736023
0,962197,1.3480854034423828,71.02423095703125,-11.509920120239258,32.183326721191406
0,962199,33.813682556152344,-50.692684173583984,24.29393768310547,-61.10287857055664
0,962201,23.111862182617188,44.476890563964844,29.909934997558594,-102.48839569091797
0,962203,-12.34257984161377,77.28099060058594,-39.55143356323242,99.06224822998047
0,962205,-40.12643814086914,-6.766536235809326,-21.38684844970703,310.2443542480469
0,962207,10.093427658081055,-199.56788635253906,-11.368330955505371,62.518375396728516
0,962209,6.5930352210998535,109.56890869140625,-14.126386642456055,-574.2456665039062
0,962211,-20.327415466308594,183.3343963623047,25.100053787231445,-293.9712219238281
0,962213,22.9050235748291,-236.76011657714844,38.770904541015625,645.7064208984375
0,962215,10.955999374389648,-1.7524895668029785,11.718591690063477,284.1568603515625
0,962217,18.04788589477539,153.2439727783203,-3.728271007537842,-209.17779541015625
0,962219,2.721802234649658,-95.48992919921875,-7.7036213874816895,-84.01101684570312
0,962221,-37.414005279541016,-52.9522590637207,-50.16222381591797,28.90740966796875
0,962223,5.425509929656982,145.08184814453125,-18.786836624145508,54.82135772705078
0,962225,10.595057487487793,16.416418075561523,55.11690139770508,-223.623046875
0,962227,3.943493127822876,-220.2678985595703,27.315176010131836,3.7664759159088135
0,962229,16.509544372558594,156.77090454101562,-4.198663711547852,260.4100341796875
0,962231,-10.037995338439941,155.35372924804688,10.491302490234375,-62.00107192993164
0,962233,-17.765947341918945,-268.5935363769531,-36.180397033691406,-292.06884765625
0,962235,-2.0683531761169434,34.534034729003906,-14.387737274169922,-122.31095123291016
0,962237,17.182294845581055,108.57640075683594,29.292253494262695,298.9805603027344
0,962239,6.694319725036621,-91.31438446044922,-16.842010498046875,233.36428833007812
0,962241,-41.34425354003906,19.086780548095703,-12.71181583404541,-273.6364440917969
0,962243,-36.70766830444336,55.445220947265625,5.9662933349609375,-134.16671752929688
0,962245,44.536354064941406,-14.645936965942383,20.7471923828125,163.48484802246094
0,962247,47.04604721069336,-96.48793029785156,26.83390998840332,1.9537793397903442
0,962249,-45.38137435913086,112.33285522460938,-14.070977210998535,-4.4241719245910645
0,962251,-20.581789016723633,70.40583038330078,-52.18096923828125,67.01641082763672
0,962253,26.41546630859375,-200.51702880859375,-33.81846618652344,-48.692134857177734
0,962255,14.773736953735352,105.5064697265625,44.56558609008789,-70.72200012207031
0,962257,18.89118766784668,85.1267318725586,27.773046493530273,71.66461944580078
0,962259,-16.63743782043457,-196.02679443359375,-14.478296279907227,17.663860321044922
0,962261,-38.02765655517578,11.961840629577637,-3.2562036514282227,-53.114356994628906
0,962263,-12.792037963867188,141.92257690429688,-18.082979202270508,35.41086959838867
0,962265,59.46502685546875,2.555478096008301,38.03441619873047,-66.39420318603516
0,962267,28.165695190429688,-142.3380584716797,7.694300651550293,-184.6678466796875
0,962269,-69.87907409667969,96.57369232177734,-43.009334564208984,157.64712524414062
0,962271,-8.133841514587402,121.00691223144531,28.648303985595703,236.83560180664062
0,962273,41.08505630493164,-191.80044555664062,21.339630126953125,75.94210052490234
0,962275,-11.436237335205078,-1.109870433807373,-45.91712188720703,-55.75679397583008
0,962277,21.63637351989746,94.45610809326172,-2.413461446762085,-243.86949157714844
0,962279,66.56085205078125,-62.916175842285156,35.823368072509766,-150.33056640625
0,962281,-82.12334442138672,-21.94807243347168,-32.583316802978516,181.37698364257812
0,962283,-80.99028015136719,116.50287628173828,16.58753776550293,588.4788818359375
0,962285,71.02359008789062,-19.373769760131836,22.480756759643555,-293.20391845703125
0,962287,-9.134237289428711,-225.3495635986328,-43.805946350097656,-608.2278442382812
0,962289,-7.450821876525879,165.88336181640625,19.610565185546875,327.9684143066406
0,962291,72.1548843383789,184.02691650390625,16.168989181518555,115.66242218017578
0,962293,-29.753873825073242,-254.306884765625,-17.27142333984375,-217.5294647216797
0,962295,-76.59152221679688,9.767294883728027,3.5684401988983154,-128.2716827392578
0,962297,3.9716296195983887,135.27285766601562,-15.485494613647461,-8.063848495483398
0,962299,68.7912368774414,-76.26666259765625,58.13027572631836,121.770263671875
0,962301,4.793280124664307,18.60213851928711,5.0536417961120605,273.1595764160156
0,962303,-25.804134368896484,85.25765228271484,-94.81562042236328,166.56768798828125
0,962305,18.81437110900879,-54.420772552490234,22.656862258911133,-330.5059814453125
0,962307,-21.779577255249023,-209.69229125976562,15.090079307556152,-170.48931884765625
0,962309,19.210662841796875,209.27308654785156,13.044026374816895,142.37774658203125
0,962311,37.804893493652344,227.46923828125,40.15132522583008,49.96968460083008
0,962313,-38.212162017822266,-347.69586181640625,-23.02594566345215,151.61683654785156
0,962315,-34.973323822021484,-25.893884658813477,-29.62394905090332,125.07073211669922
0,962317,-16.037429809570312,180.58331298828125,-30.6434326171875,-559.017578125
0,962319,31.326719284057617,-71.8174057006836,24.6274471282959,-386.0380554199219
0,962322,37.016178131103516,-33.56082534790039,61.17873764038086,778.9739379882812
0,962323,-16.01617431640625,48.059940338134766,-17.02048110961914,386.2159729003906
0,962326,-44.757442474365234,-15.314549446105957,-125.13875579833984,-537.4710693359375
0,962327,-88.26152038574219,-188.70358276367188,-100.66059875488281,-188.7273406982422
0,962330,67.14077758789062,224.48805236816406,187.9663848876953,400.23382568359375
0,962331,141.53152465820312,208.76858520507812,169.15345764160156,109.16121673583984
0,962334,-47.07086181640625,-332.66278076171875,-129.8169403076172,-248.57203674316406
0,962335,-56.99422073364258,32.336143493652344,-62.81966018676758,38.139862060546875
0,962336,12.375354766845703,269.7969970703125,46.67422103881836,75.33563995361328
0,962339,3.2904105186462402,-203.2436065673828,-6.473297119140625,-150.45547485351562
0,962340,1.2584015130996704,-188.26551818847656,-3.094066619873047,-110.87813568115234
0,962343,13.833498001098633,267.29608154296875,24.456884384155273,17.881752014160156
0,962344,8.007698059082031,13.87609577178955,-2.286682605743408,12.561997413635254
0,962347,-4.03986120223999,-200.88589477539062,-2.936807632446289,13.389936447143555
0,962348,7.288963317871094,64.62532806396484,-1.0296757221221924,40.92512893676758
0,962351,-20.221506118774414,32.81026077270508,-48.0337028503418,76.55133819580078
0,962352,-38.975364685058594,-103.7587661743164,-49.886932373046875,80.06761169433594
0,962355,-7.655158519744873,56.26384735107422,6.358157157897949,-16.251171112060547
0,962356,2.1034557819366455,228.5591583251953,68.73505401611328,-32.60272979736328
0,962359,0.36068418622016907,-139.19134521484375,26.554296493530273,-218.40159606933594
0,962360,17.292919158935547,-186.56394958496094,-37.37544250488281,-104.64240264892578
0,962363,87.23802947998047,228.60801696777344,-16.367328643798828,239.41221618652344
0,962364,106.37212371826172,13.993406295776367,55.42182540893555,73.59821319580078
0,962367,-98.60006713867188,-142.5077362060547,66.85689544677734,107.32976531982422
0,962368,-175.87843322753906,24.94193458557129,-62.95100021362305,-51.374595642089844
0,962371,37.42378234863281,9.280806541442871,-54.230201721191406,-211.43861389160156
0,962375,64.26356506347656,80.1202621459961,3.641416549682617,-3.472223997116089
0,962375,-27.18673324584961,-7.012200832366943,-10.117377281188965,3.925898551940918
0,962376,-4.69111967086792,-84.12007904052734,20.563556671142578,136.24330139160156
0,962379,-5.4760236740112305,-52.83209991455078,-5.217374324798584,162.62721252441406
0,962380,40.956092834472656,-24.349069595336914,8.240379333496094,-121.46044158935547
0,962383,52.29295349121094,200.41201782226562,31.14812469482422,-226.34722900390625
0,962384,-64.61459350585938,-20.982181549072266,-68.47361755371094,11.330451011657715
0,962387,-47.93428039550781,-211.02212524414062,-34.2926025390625,50.4260139465332
0,962388,43.437400817871094,86.1814193725586,90.6003189086914,-28.980815887451172
0,962391,30.781230926513672,83.14814758300781,19.689844131469727,113.55980682373047
0,962392,-16.462507247924805,-121.22357177734375,-20.161914825439453,245.56964111328125
0,962395,24.442691802978516,48.45935821533203,2.173391342163086,-90.38510131835938
0,962396,23.45026206970215,221.81459045410156,-17.21825408935547,-231.2864532470703
0,962399,-59.52510452270508,-196.58267211914062,2.986473798751831,90.08927154541016
0,962400,-15.791248321533203,-194.53863525390625,-27.340866088867188,-115.41181945800781
0,962403,7.275683403015137,268.7489318847656,4.39031457901001,120.39888763427734
0,962404,-13.055896759033203,34.28824234008789,64.83245849609375,265.1399841308594
0,962407,48.36906814575195,-98.8850326538086,-6.805092811584473,-362.56866455078125
0,962408,-3.2959463596343994,10.126580238342285,-66.18135070800781,-412.0361022949219
0,962411,-35.758270263671875,-75.27224731445312,-13.72934341430664,384.8087463378906
0,962412,61.443626403808594,-32.633819580078125,34.30084228515625,634.4339599609375
0,962415,-4.033422946929932,82.1164321899414,-15.764766693115234,-382.7276306152344
0,962416,-22.638931274414062,186.2504425048828,5.412670612335205,-389.1134033203125
0,962419,8.822220802307129,-143.7652587890625,38.96042251586914,118.37972259521484
0,962420,-28.35395622253418,-140.36997985839844,30.722625732421875,18.148839950561523
0,962423,-3.3989510536193848,198.11441040039062,-11.781428337097168,293.69134521484375
0,962424,14.910091400146484,-66.96202087402344,-50.21543502807617,6.700484752655029
0,962427,-42.189693450927734,-104.13658905029297,-14.944479942321777,-365.2608337402344
0,962428,-59.067588806152344,86.31250762939453,-13.627182960510254,69.8924560546875
0,962431,81.95843505859375,35.22091293334961,28.698719024658203,-193.90003967285156
0,962432,56.22439193725586,-64.66898345947266,42.15226364135742,-291.0998840332031
0,962435,10.797465324401855,34.005035400390625,15.632404327392578,1042.0042724609375
0,962436,0.583013653755188,165.9795379638672,-59.891300201416016,450.3439025878906
0,962439,-116.98843383789062,-245.14474487304688,-92.35443115234375,-1164.19091796875
0,962440,-27.841747283935547,-191.99742126464844,61.09019088745117,-267.51983642578125
0,962443,91.8571548461914,366.7095642089844,101.3391342163086,568.599365234375
0,962444,69.28610229492188,92.55265808105469,19.126794815063477,145.1292724609375
0,962447,-25.247255325317383,-217.471923828125,-45.58559799194336,-231.85813903808594
0,962448,-59.37850570678711,25.913599014282227,-68.8558120727539,-271.3432312011719
0,962451,30.06774139404297,43.551692962646484,11.899157524108887,376.6777038574219
0,962452,35.13776397705078,-133.14706420898438,69.4821548461914,548.38134765625
0,962455,-112.82682037353516,30.05605125427246,-79.63227081298828,-735.7229614257812
0,962456,-68.72377014160156,170.6248779296875,-63.1930046081543,-473.5565490722656
0,962459,128.67092895507812,-135.84666442871094,110.760498046875,769.9256591796875
0,962460,39.64929962158203,-87.69271087646484,25.7984676361084,49.910526275634766
0,962463,2.351526975631714,238.21522521972656,-23.116180419921875,-275.3793029785156
0,962464,42.508056640625,-10.529420852661133,60.55612564086914,11.610995292663574
0,962467,-64.0866928100586,-210.95411682128906,-3.7837908267974854,123.4798355102539
0,962468,-12.02758502960205,45.828365325927734,-129.26626586914062,297.3434753417969
0,962471,-39.83464050292969,65.87158203125,-67.88148498535156,-295.624267578125
0,962472,-67.11425018310547,-159.59596252441406,24.179275512695312,-369.51025390625
0,962475,122.72036743164062,89.38248443603516,168.16360473632812,232.60459899902344
0,962476,51.46931457519531,272.7043151855469,107.41899871826172,89.06509399414062
0,962479,-41.27606964111328,-219.0111083984375,-142.1392364501953,-77.5093002319336
0,962480,19.259803771972656,-152.57040405273438,-60.22810745239258,54.75361251831055
0,962483,-97.6707992553711,223.04464721679688,-7.472844123840332,-63.87129592895508
0,962484,-59.34626388549805,-63.92168426513672,-43.242332458496094,-35.41730499267578
0,962487,93.2840805053711,-46.57969284057617,48.27437973022461,300.80169677734375
0,962488,28.360126495361328,136.52301025390625,59.907222747802734,109.51972198486328
0,962491,-28.180362701416016,-56.926170349121094,-27.800493240356445,-720.8683471679688
0,962492,-6.268838405609131,-129.0435791015625,-23.48832130432129,-155.2276611328125
0,962495,5.314558982849121,43.345706939697266,36.0325813293457,709.2213134765625
0,962496,33.228328704833984,154.30099487304688,-2.655888319015503,-37.959716796875
0,962499,20.033052444458008,-140.17091369628906,-17.23609733581543,-272.1276550292969
0,962500,-32.648597717285156,-100.81245422363281,15.662466049194336,246.17880249023438
0,962503,-28.10223388671875,231.60263061523438,3.6476945877075195,354.4642333984375
0,962504,-9.225552558898926,-56.3162956237793,-15.906139373779297,271.2616882324219
0,962507,-11.906454086303711,-96.7152099609375,-66.6287841796875,-787.64404296875
0,962508,25.060924530029297,105.4942855834961,-39.43374252319336,-893.7235107421875
0,962511,54.66191482543945,-85.11796569824219,108.46067810058594,875.21923828125
0,962512,18.22920799255371,-63.23794174194336,109.63029479980469,550.7514038085938
0,962515,-33.51123809814453,136.8731689453125,-31.40703582763672,-485.7526550292969
0,962516,-21.7342586517334,141.36378479003906,-52.869197845458984,-91.7422103881836
0,962519,2.98700213432312,-188.6641387939453,-8.587751388549805,35.11555862426758
0,962520,-14.974970817565918,-164.0559844970703,-15.588149070739746,-78.33921813964844
0,962523,4.03484582901001,237.87838745117188,-6.300201892852783,31.283300399780273
0,962524,8.64867877960205,-16.240236282348633,-1.0649758577346802,94.62657165527344
0,962527,11.715904235839844,-103.9137954711914,31.672821044921875,54.098411560058594
0,962528,17.170536041259766,180.4051513671875,33.56126022338867,65.29324340820312
0,962531,-9.288084983825684,-45.54262924194336,-51.46685791015625,-13.553630828857422
0,962532,-31.413238525390625,-222.70956420898438,-52.001678466796875,-17.451913833618164
0,962535,-18.356536865234375,74.54388427734375,13.973127365112305,125.8121337890625
0,962536,40.85081481933594,227.25387573242188,23.386953353881836,-116.59640502929688
0,962539,-12.236651420593262,-189.61265563964844,-38.704383850097656,-366.0022888183594
0,962540,-63.57697677612305,-192.65713500976562,-36.38791275024414,110.68257141113281
0,962543,36.05402374267578,272.3153076171875,52.738616943359375,283.91326904296875
0,962544,44.24971008300781,29.62462043762207,45.19440841674805,20.771562576293945
0,962547,-1.2198251485824585,-129.09007263183594,42.163551330566406,143.9479217529297
0,962548,2.6513586044311523,128.9380645751953,42.34191131591797,-265.5726013183594
0,962551,4.201479911804199,-11.052635192871094,-54.03723907470703,-350.9037170410156
0,962553,-6.598104476928711,-169.99212646484375,-102.47749328613281,537.1494140625
0,962555,-70.88202667236328,8.139244079589844,-28.8708553314209,131.78573608398438
0,962557,-4.825826644897461,176.31576538085938,61.062747955322266,-563.3090209960938
0,962559,76.4042739868164,-86.80050659179688,43.27480697631836,-44.41415786743164
0,962561,18.622446060180664,-86.44259643554688,17.535877227783203,359.3426513671875
0,962563,14.187361717224121,167.5849609375,1.3910897970199585,240.39344787597656
0,962565,3.1677920818328857,-111.727783203125,-40.91796112060547,-404.5926513671875
0,962567,-79.93734741210938,-21.164371490478516,-37.23604965209961,-437.2818298339844
0,962569,-49.58842849731445,160.47410583496094,-11.922503471374512,381.0601501464844
0,962571,62.6623649597168,-100.11726379394531,32.020198822021484,372.33880615234375
0,962573,32.759544372558594,-62.62749481201172,64.531005859375,-39.96146774291992
0,962575,-23.05563735961914,94.35513305664062,4.369156837463379,-72.01439666748047
0,962577,31.86758804321289,72.29635620117188,-49.6375732421875,71.28379821777344
0,962579,7.531648635864258,-198.2986297607422,-22.547170639038086,7.710769176483154
0,962581,-51.01813888549805,-75.77696228027344,16.40679168701172,-246.3068084716797
0,962583,-13.230474472045898,268.3836669921875,0.026556041091680527,-212.2470245361328
0,962585,-2.947096824645996,-53.89596176147461,-6.148017883300781,257.6282958984375
0,962588,21.44327163696289,-59.669925689697266,18.640090942382812,180.89036560058594
0,962589,37.65469741821289,151.0686492919922,-3.1300675868988037,-315.9415588378906
0,962592,10.408432006835938,-133.63072204589844,27.32199478149414,142.62545776367188
0,962593,-14.344976425170898,-126.95941162109375,-1.8533046245574951,142.21434020996094
0,962596,-53.864688873291016,128.53475952148438,-68.13450622558594,-210.85739135742188
0,962597,-3.588582992553711,67.94316864013672,6.265404224395752,61.940147399902344
0,962600,39.3828239440918,-218.14573669433594,41.234710693359375,-20.737638473510742
0,962601,0.11805608123540878,-26.307987213134766,32.39805603027344,110.4778823852539
0,962602,14.919343948364258,329.1888122558594,33.0897216796875,49.769378662109375
0,962607,-42.55795669555664,57.58755111694336,-103.49210357666016,-355.4874267578125
0,962607,-61.76140594482422,-226.43836975097656,-111.96832275390625,7.310643672943115
0,962608,66.001708984375,-113.51652526855469,87.63078308105469,364.9891052246094
0,962611,64.58963012695312,105.16864013671875,108.27180480957031,234.4457550048828
0,962612,-22.191299438476562,-12.030513763427734,-13.465165138244629,-27.917970657348633
0,962615,-16.706315994262695,-9.511977195739746,-14.27890396118164,-682.9310302734375
0,962616,26.824983596801758,218.9218292236328,23.34236717224121,-542.0780029296875
0,962619,-31.189090728759766,-179.1018829345703,-145.86720275878906,998.1126098632812
0,962620,-55.31177520751953,-199.2806396484375,-67.36824035644531,728.0773315429688
0,962623,23.18807601928711,253.13101196289062,233.2274627685547,-840.2423706054688
0,962624,65.73413848876953,-5.074731826782227,139.33335876464844,-385.6850891113281
0,962627,33.2105598449707,-107.12567901611328,-136.5562286376953,422.9544982910156
0,962628,-33.907352447509766,68.41462707519531,-159.71224975585938,96.0523452758789
0,962631,-39.95930862426758,-15.83520221710205,37.48862075805664,-175.72952270507812
0,962632,21.03278923034668,-64.40641784667969,55.30677032470703,-88.55931854248047
0,962635,24.824750900268555,75.21414184570312,-10.378426551818848,112.44696807861328
0,962636,-61.27772521972656,187.7520751953125,34.58497619628906,129.4042205810547
0,962639,-27.082773208618164,-185.14254760742188,8.41476058959961,-158.24273681640625
0,962640,49.666866302490234,-188.58750915527344,-42.75038528442383,-79.92963409423828
0,962643,-7.703385353088379,200.8157501220703,-23.211320877075195,192.46310424804688
0,962644,-20.799850463867188,-19.318063735961914,-1.1520533561706543,-87.36285400390625
0,962647,21.115589141845703,-47.23657989501953,27.8528995513916,-149.29608154296875
0,962648,10.512646675109863,122.24186706542969,13.824346542358398,225.35610961914062
0,962651,-19.818344116210938,-37.419639587402344,-35.478782653808594,54.747501373291016
0,962652,-22.607057571411133,-121.39373016357422,-7.068984508514404,-75.30198669433594
0,962655,8.52857780456543,26.431575775146484,26.65333366394043,-120.67754364013672
0,962656,20.180994033813477,167.5812530517578,6.26002311706543,-191.04736328125
0,962659,35.61740493774414,-117.56598663330078,-3.2623798847198486,497.29876708984375
0,962660,19.712682723999023,-61.741390228271484,7.81743860244751,130.08489990234375
0,962663,-67.58563995361328,178.02783203125,-21.876049041748047,-610.7341918945312
0,962664,-21.461090087890625,-108.99346923828125,19.759746551513672,106.55729675292969
0,962667,86.93324279785156,-46.62206268310547,67.29125213623047,228.445556640625
0,962668,-19.35018539428711,111.20552062988281,-19.820270538330078,-126.97509002685547
0,962671,-58.163818359375,-92.86287689208984,-60.10768127441406,24.853229522705078
0,962672,50.039337158203125,-85.84706115722656,10.26263427734375,25.484394073486328
0,962675,-2.8907887935638428,111.14704895019531,-2.9454598426818848,124.52558135986328
0,962676,-35.95365524291992,148.3214569091797,-40.76785659790039,85.8129653930664
0,962679,7.656691074371338,-185.04942321777344,20.01709747314453,-361.1856689453125
0,962680,-11.356157302856445,-152.34796142578125,3.3808205127716064,-125.10154724121094
0,962683,23.648048400878906,251.42562866210938,6.64320707321167,212.64089965820312
0,962684,50.6711540222168,-5.28285026550293,57.60098648071289,120.16710662841797
0,962687,-15.833260536193848,-91.26835632324219,19.164663314819336,125.05396270751953
0,962688,-52.3941650390625,91.66783142089844,-59.331642150878906,-236.94033813476562
0,962691,-14.654878616333008,-89.44873809814453,-84.37273406982422,-107.41048431396484
0,962692,-17.10901641845703,-86.25326538085938,4.637223720550537,75.59292602539062
0,962695,18.947092056274414,157.5626678466797,72.0465087890625,-18.7219181060791
0,962696,70.00402069091797,164.45745849609375,51.306087493896484,278.94189453125
0,962699,-3.3379759788513184,-219.25958251953125,-20.531536102294922,-35.929203033447266
0,962700,-25.69097900390625,-127.4713134765625,-34.43744659423828,-221.06141662597656
0,962703,-13.841374397277832,225.61502075195312,5.3503851890563965,64.04656982421875
0,962704,-5.472428798675537,-43.293609619140625,3.4402928352355957,72.50865173339844
0,962707,14.0512113571167,-85.28649139404297,-0.5432177782058716,-11.45981502532959
0,962708,3.882275104522705,126.41302490234375,13.371078491210938,-38.23628234863281
0,962711,13.965546607971191,-43.99485397338867,17.43299674987793,8.01951789855957
0,962712,-11.52077579498291,-127.81616973876953,-20.53476333618164,29.002532958984375
0,962715,-52.81322479248047,43.619300842285156,-44.12525939941406,-21.035484313964844
0,962716,-12.724874496459961,92.9610824584961,-26.488325119018555,41.20886993408203
0,962719,53.38544464111328,-126.70398712158203,23.372093200683594,-151.68992614746094
0,962720,20.177459716796875,-22.160400390625,62.17826461791992,-348.9952392578125
0,962723,-24.243099212646484,216.10130310058594,-1.2993909120559692,395.1789855957031
0,962724,16.070058822631836,-81.86283111572266,-61.94029998779297,514.3639526367188
0,962727,-2.759058713912964,-110.47584533691406,1.441264271736145,-374.70611572265625
0,962728,-11.442449569702148,135.80743408203125,55.24365997314453,-252.8318328857422
0,962731,4.64561653137207,-7.896139144897461,11.485158920288086,210.61813354492188
0,962732,-16.703527450561523,-117.9515151977539,-23.895036697387695,-94.37781524658203
0,962735,29.20278549194336,71.03831481933594,-12.494392395019531,-27.453536987304688
0,962736,19.891210556030273,162.3419647216797,36.52008819580078,203.52670288085938
0,962739,-27.312870025634766,-202.997802734375,0.18847182393074036,-150.1588897705078
0,962740,-23.989933013916016,-122.3803482055664,-81.83395385742188,-145.86453247070312
0,962743,-5.82129430770874,269.5753173828125,35.032806396484375,190.4745330810547
0,962744,5.515946388244629,-94.8978042602539,38.966896057128906,74.2191162109375
0,962747,0.9726781249046326,-141.01597595214844,-92.84014892578125,-485.01239013671875
0,962748,-21.58823013305664,162.49497985839844,-9.487144470214844,59.153411865234375
0,962751,25.949979782104492,-7.126462936401367,72.5136947631836,717.7890014648438
0,962752,42.01101303100586,-115.34420776367188,31.61556625366211,-319.39862060546875
0,962755,-27.466764450073242,111.64102172851562,18.96282958984375,-289.2782287597656
0,962756,27.349002838134766,190.7159423828125,-1.8998600244522095,347.84033203125
0,962759,10.51010799407959,-247.10928344726562,-63.13652801513672,-56.23419189453125
0,962760,-44.32354736328125,-179.4345703125,-30.742748260498047,-87.55391693115234
0,962763,-2.9139339923858643,270.9555358886719,42.83796310424805,48.477508544921875
0,962764,20.834177017211914,-9.911004066467285,29.653223037719727,-1.6685528755187988
0,962767,8.049010276794434,-105.11299896240234,7.278594493865967,-20.71463394165039
0,962768,-20.94072914123535,162.97227478027344,8.311318397521973,-3.2101004123687744
0,962771,-2.2435202598571777,-32.76878356933594,-27.852697372436523,-0.2792404294013977
0,962772,-9.332254409790039,-176.98809814453125,-30.26984214782715,-37.916683197021484
0,962775,5.404702663421631,107.64692687988281,30.835634231567383,35.59632110595703
0,962776,21.454174041748047,151.8491668701172,0.8247638940811157,25.812744140625
0,962779,2.873034954071045,-239.29527282714844,-42.68976974487305,-59.89267349243164
0,962780,-5.101780891418457,-99.53947448730469,24.729753494262695,-18.5131893157959
0,962783,-29.456560134887695,296.6444396972656,15.768378257751465,23.589323043823242
0,962784,9.703316688537598,-48.63124084472656,-38.56707000732422,1.754050374031067
0,962787,24.645540237426758,-112.5208511352539,15.4265718460083,8.580599784851074
0,962788,-9.157780647277832,159.58230590820312,61.225189208984375,28.53207778930664
0,962791,-32.417083740234375,-129.3006591796875,-42.3387451171875,-104.3028564453125
0,962792,-24.782516479492188,-179.4649200439453,-53.79270935058594,-8.167109489440918
0,962795,36.47621154785156,189.1470947265625,56.85383224487305,165.5343017578125
0,962796,19.861726760864258,186.649658203125,3.2869620323181152,-12.681387901306152
0,962799,-27.327381134033203,-237.32383728027344,-39.85350799560547,-91.59899139404297
0,962800,18.596332550048828,-93.33799743652344,15.013813972473145,-8.017004013061523
0,962803,7.559042930603027,266.2002258300781,29.605451583862305,54.744293212890625
0,962805,-25.23358154296875,-99.21602630615234,8.7265625,-2.402700662612915
0,962807,19.87240219116211,-61.880271911621094,-9.877509117126465,-17.05302619934082
0,962809,24.837352752685547,173.01083374023438,-13.074152946472168,40.32246780395508
0,962811,-12.398624420166016,-118.77297973632812,-6.32321834564209,-17.631528854370117
0,962813,-27.930381774902344,-150.05857849121094,-23.465585708618164,-37.57545852661133
0,962815,-6.388028144836426,136.9078369140625,28.57973861694336,-8.235109329223633
0,962817,51.07048797607422,154.96905517578125,38.672794342041016,17.708797454833984
0,962819,22.002723693847656,-221.0211639404297,-77.50479888916016,13.42002010345459
0,962821,-71.98725128173828,-75.5715560913086,-29.548900604248047,-0.4755851626396179
0,962823,-21.585878372192383,258.05670166015625,89.8888168334961,-4.725504398345947
0,962825,24.505096435546875,-96.91339111328125,31.35811424255371,3.669260025024414
0,962827,-11.06337833404541,-47.57516860961914,-86.53421783447266,9.940073013305664
0,962829,17.538002014160156,177.58428955078125,-15.65492057800293,-39.3385124206543
0,962831,43.36809158325195,-147.09857177734375,105.03681945800781,-33.3488883972168
0,962833,44.27077102661133,-152.93011474609375,53.93693542480469,55.90205001831055
0,962835,-21.824420928955078,154.63211059570312,-67.73768615722656,73.58757019042969
0,962837,-94.25311279296875,103.61882019042969,-94.02002716064453,-44.73186492919922
0,962840,-29.21162986755371,-229.30250549316406,10.147221565246582,-125.61893463134766
0,962841,39.3876838684082,-21.86842918395996,33.121395111083984,-35.71280288696289
0,962844,23.686311721801758,268.2112731933594,-5.141654968261719,82.63623046875
0,962845,-20.706798553466797,-105.34388732910156,9.025906562805176,122.41019439697266
0,962846,30.83188819885254,-155.5920867919922,-2.388096809387207,86.9012222290039
0,962850,22.90355110168457,283.0384216308594,-40.331146240234375,-82.80026245117188
0,962851,-39.753875732421875,67.86917877197266,-35.215763092041016,-149.83807373046875
0,962853,-20.563432693481445,-369.6187438964844,28.29203224182129,9.958410263061523
0,962855,12.367094993591309,61.105934143066406,71.44100952148438,29.84369659423828
0,962857,55.71568298339844,266.9384460449219,47.84685134887695,38.53455352783203
0,962859,-0.7355286478996277,-184.97280883789062,-18.960187911987305,42.416351318359375
0,962861,-34.11946105957031,-77.84112548828125,-37.57243728637695,-57.30074691772461
0,962863,0.3491111695766449,192.26470947265625,-21.279279708862305,-26.80695152282715
0,962865,-4.3656158447265625,-113.18461608886719,2.2785732746124268,2.398745059967041
0,962867,-6.839337348937988,-48.62591552734375,23.831005096435547,76.6662826538086
0,962869,-6.304040908813477,188.56118774414062,-17.681995391845703,13.365856170654297
0,962871,19.63197135925293,-90.97767639160156,-5.7780256271362305,-106.12767791748047
0,962873,6.770590305328369,-148.82301330566406,28.70946502685547,130.26072692871094
0,962875,-34.00959777832031,107.95303344726562,-11.096460342407227,-48.01053237915039
0,962877,-5.312197208404541,113.40106201171875,-15.622977256774902,-369.5247497558594
0,962879,16.51164436340332,-182.7045440673828,7.794064998626709,237.59056091308594
0,962881,11.685786247253418,-25.3205509185791,11.230815887451172,366.12481689453125
0,962883,0.09130778163671494,217.7426300048828,-13.94677734375,-219.8001251220703
0,962885,24.937936782836914,-103.65039825439453,-9.910266876220703,-82.38848876953125
0,962887,9.219236373901367,-41.502140045166016,30.34701919555664,66.11209106445312
0,962889,-37.046417236328125,129.9043426513672,2.185359477996826,-61.42519760131836
0,962891,-14.885149955749512,-146.0797119140625,-35.844791412353516,-25.62235450744629
0,962893,4.7601470947265625,-82.4162368774414,2.3179938793182373,58.66371154785156
0,962895,9.023053169250488,183.7486114501953,25.0693302154541,97.84083557128906
0,962897,0.6480509042739868,56.90068817138672,-1.0707614421844482,-28.81961441040039
0,962899,20.422874450683594,-196.13426208496094,-16.811260223388672,-73.98609161376953
0,962901,16.369577407836914,14.771397590637207,3.92144775390625,-6.092620372772217
0,962903,-13.572762489318848,217.7032012939453,13.254618644714355,11.884453773498535
0,962905,-6.946473598480225,-148.69744873046875,-18.852243423461914,-14.6662015914917
0,962907,-18.83176612854004,-93.35889434814453,-1.8996303081512451,-38.0260009765625
0,962909,-22.872812271118164,161.82650756835938,-1.1846771240234375,7.811558246612549
0,962911,14.296015739440918,-75.48532104492188,-10.365642547607422,44.948734283447266
0,962913,13.24231243133545,-106.23287963867188,21.66421127319336,16.38750648498535
0,962915,-34.123512268066406,101.43054962158203,0.04618680477142334,7.149152755737305
0,962917,9.496539115905762,131.988525390625,-4.253331661224365,-1.0803947448730469
0,962919,45.068851470947266,-175.27183532714844,-1.3197301626205444,-53.35784149169922
0,962921,-7.412603378295898,-63.08737564086914,13.031259536743164,-9.693037033081055
0,962923,-5.293951988220215,233.84747314453125,19.624359130859375,46.023677825927734
0,962925,1.492862582206726,-115.14215850830078,7.903371334075928,-1.8982661962509155
0,962927,-19.839181900024414,-41.83378982543945,2.5138516426086426,-9.143213272094727
0,962929,-13.190861701965332,171.20272827148438,-59.23773193359375,-12.856163024902344
0,962931,18.568559646606445,-116.69818115234375,-38.71888732910156,-19.56190299987793
0,962933,6.274992942810059,-118.62218475341797,22.837282180786133,38.0902099609375
0,962935,13.654510498046875,146.1857147216797,60.6235237121582,10.748713493347168
0,962937,35.45078659057617,95.66344451904297,21.36034393310547,-0.9410747289657593
0,962939,-29.66852569580078,-239.80941772460938,-25.2285213470459,33.323768615722656
0,962941,-18.666719436645508,-34.74213409423828,-1.0345866680145264,-34.96607208251953
0,962943,-14.614801406860352,223.71580505371094,-74.32102966308594,-25.207843780517578
0,962945,-32.80604553222656,-120.90331268310547,-28.44220733642578,18.330724716186523
0,962947,44.75239944458008,-18.1591739654541,102.83021545410156,9.511575698852539
0,962949,32.84553146362305,163.9584197998047,17.953990936279297,-14.553858757019043
0,962951,-16.146732330322266,-119.90755462646484,-51.46425247192383,-35.97053146362305
0,962953,-10.682598114013672,-95.31962585449219,12.769094467163086,33.1319580078125
0,962955,-16.176679611206055,133.543701171875,4.498734951019287,32.034515380859375
0,962957,-1.2196276187896729,111.4747085571289,-14.769339561462402,-60.58423614501953
0,962959,14.001891136169434,-195.21571350097656,18.046140670776367,3.2199690341949463
0,962961,5.203128337860107,-66.10977935791016,2.6722803115844727,52.78998947143555
0,962963,-17.001850128173828,231.684326171875,-3.9553444385528564,-27.86490821838379
0,962965,-6.994595050811768,-106.7952880859375,2.3169138431549072,-3.784532308578491
0,962967,16.17412757873535,-73.76803588867188,-5.833731174468994,-29.636497497558594
0,962969,5.317575931549072,180.54544067382812,-1.2643159627914429,-23.79747200012207
0,962971,13.52861213684082,-122.8670654296875,4.239295482635498,80.32878112792969
0,962973,-18.58292579650879,-163.6920928955078,8.253655433654785,3.215484380722046
0,962975,-20.912866592407227,193.2122344970703,8.763328552246094,-8.995012283325195
0,962977,12.200772285461426,147.23887634277344,-20.899656295776367,30.474824905395508
0,962979,0.13145838677883148,-251.48519897460938,-36.611907958984375,-49.28102111816406
0,962981,12.190138816833496,-34.59345626831055,21.40031623840332,-28.495107650756836
0,962983,-4.276293754577637,247.76483154296875,28.943435668945312,31.54335594177246
0,962985,9.370575904846191,-95.37923431396484,-0.3780878782272339,1.188964605331421
0,962987,24.898771286010742,-7.2121405601501465,11.740196228027344,-10.740765571594238
0,962989,-32.2595329284668,106.01568603515625,-24.639312744140625,5.975490570068359
0,962991,-16.663362503051758,-169.4505615234375,-26.229177474975586,41.82750701904297
0,962993,26.077211380004883,-80.25762939453125,17.219009399414062,8.680218696594238
0,962995,-12.298683166503906,127.52275085449219,-4.27244234085083,-83.17842864990234
0,962997,-11.22746753692627,103.3531265258789,13.328561782836914,-17.23758316040039
0,962999,23.352392196655273,-185.4695587158203,-3.354146718978882,49.107154846191406
0,963001,-30.679290771484375,-81.26600646972656,-25.54947280883789,7.787416934967041
0,963003,-1.927003264427185,249.06410217285156,23.206899642944336,-1.1506929397583008
0,963005,62.54288101196289,-82.95063781738281,11.923503875732422,3.4333903789520264
0,963007,-8.059041976928711,-60.46769714355469,4.590725898742676,17.986101150512695
0,963009,-42.85886001586914,175.14671325683594,-4.805586338043213,14.139881134033203
0,963011,3.5300166606903076,-146.4580841064453,-13.423428535461426,-22.73541831970215
0,963013,15.015440940856934,-114.6416244506836,-1.6849695444107056,-23.59705352783203
0,963015,-17.224773406982422,165.44517517089844,-5.029855728149414,-12.631454467773438
0,963017,9.537321090698242,94.02281188964844,31.771644592285156,-1.9357606172561646
0,963019,12.61645793914795,-187.09619140625,5.190647602081299,22.008766174316406
0,963021,-39.49699020385742,-26.029428482055664,-41.52717208862305,10.422137260437012
0,963023,18.113344192504883,216.17478942871094,14.703003883361816,9.192689895629883
0,963025,42.3766975402832,-143.798828125,18.542707443237305,4.775290489196777
0,963027,-31.887310028076172,-58.327396392822266,-26.864580154418945,-44.17739486694336
0,963029,-9.85368824005127,196.232666015625,4.913619041442871,-25.327499389648438
0,963031,22.13949203491211,-114.70133209228516,33.39906311035156,41.70579147338867
0,963033,-8.509801864624023,-127.42877960205078,-2.07270884513855,24.504348754882812
0,963035,-9.259324073791504,154.3580780029297,-36.91030502319336,-24.281227111816406
0,963037,-16.094648361206055,79.84581756591797,-15.26162338256836,10.685403823852539
0,963039,7.325253009796143,-203.99159240722656,23.97895050048828,15.009581565856934
0,963041,28.766014099121094,22.931665420532227,-3.4178354740142822,-13.078927040100098
0,963043,-24.551424026489258,212.173828125,-12.544450759887695,6.353404998779297
0,963045,-16.985015869140625,-185.35125732421875,16.24519157409668,-17.0307559967041
0,963047,26.847566604614258,-38.529541015625,11.377313613891602,-11.053145408630371
0,963049,9.905816078186035,192.82046508789062,-7.2014875411987305,2.0936107635498047
0,963051,11.672451972961426,-117.6910629272461,-5.371344566345215,15.365607261657715
0,963053,-9.971567153930664,-108.56721496582031,-9.649614334106445,60.78928756713867
0,963056,-21.12033462524414,132.84817504882812,-7.36318302154541,-67.81391143798828
0,963057,25.173831939697266,102.08203125,31.40652084350586,-58.63688278198242
0,963060,-13.670802116394043,-206.118408203125,11.385601043701172,90.49134826660156
0,963061,-16.801719665527344,-13.009413719177246,-29.136737823486328,12.033649444580078
0,963064,26.29916000366211,199.31484985351562,-6.121840476989746,-35.05168914794922
0,963065,-4.210866451263428,-154.75193786621094,43.43724060058594,-17.563337326049805
0,963068,-30.289710998535156,41.8603515625,34.18752670288086,-15.505476951599121
0,963069,-8.159295082092285,184.22991943359375,-34.37063980102539,11.503960609436035
0,963070,28.69209861755371,-223.6206817626953,-63.110748291015625,0.3886272609233856
0,963073,16.710891723632812,-102.88775634765625,3.383481740951538,4.2096781730651855
0,963074,-3.1135194301605225,253.9380645751953,35.18146514892578,16.312108993530273
0,963077,-7.847747802734375,53.185203552246094,-10.314737319946289,-3.588642120361328
0,963078,-14.458114624023438,-156.8768310546875,-20.275514602661133,-0.92509526014328
0,963081,-13.78884220123291,12.094069480895996,16.604013442993164,10.645329475402832
0,963082,14.028280258178711,26.323911666870117,33.384986877441406,-11.025382995605469
0,963085,18.885265350341797,-136.84185791015625,-32.51729965209961,-31.21360969543457
0,963086,-7.685659408569336,-107.51905059814453,-30.483562469482422,0.34951186180114746
0,963089,2.3109912872314453,210.58285522460938,31.626028060913086,51.95041275024414
0,963090,3.8982386589050293,136.76231384277344,30.44610595703125,46.02864456176758
0,963093,-13.076044082641602,-206.52813720703125,-0.4215831458568573,-69.73666381835938
0,963094,-24.268768310546875,58.993247985839844,-17.847753524780273,-49.45955276489258
0,963097,34.991722106933594,131.18264770507812,-3.792581081390381,66.93768310546875
0,963098,39.14319610595703,-104.70185089111328,-10.880224227905273,13.511966705322266
0,963103,-50.958675384521484,-41.59389114379883,5.725193023681641,-7.471594333648682
0,963103,-2.1726462841033936,53.282527923583984,23.234783172607422,-1.1868197917938232
0,963104,28.275217056274414,-35.348365783691406,-33.14491271972656,-33.54519271850586
0,963107,-39.65827178955078,-60.665287017822266,-5.506153106689453,-15.376180648803711
0,963108,-15.739569664001465,84.29786682128906,28.346097946166992,11.231575965881348
0,963111,49.94486618041992,-28.069252014160156,-20.49472427368164,28.85837173461914
0,963112,42.88499069213867,-73.51652526855469,9.425788879394531,28.172927856445312
0,963115,-44.929134368896484,125.0287094116211,25.495779037475586,-13.910314559936523
0,963116,-51.54832077026367,100.1930160522461,-30.529346466064453,-41.704833984375
0,963119,28.79570960998535,-176.84848022460938,-12.840141296386719,-9.797934532165527
0,963120,16.906822204589844,-39.373870849609375,18.543888092041016,34.0085563659668
0,963123,-3.2240612506866455,188.4608917236328,5.964703559875488,-21.28746795654297
0,963124,15.34647274017334,-110.71109771728516,3.9692864418029785,-34.632598876953125
0,963127,-3.6827728748321533,-77.49031829833984,-14.749451637268066,62.00803756713867
0,963128,-11.931364059448242,135.0902099609375,21.113800048828125,40.2255973815918
0,963131,-10.474669456481934,-66.93103790283203,11.094278335571289,-51.26690673828125
0,963132,-1.6110303401947021,-117.1443862915039,-28.55467987060547,-26.039825439453125
0,963135,13.930914878845215,166.60459899902344,17.634531021118164,38.946495056152344
0,963136,-5.981963157653809,146.46531677246094,-3.205460786819458,13.09332275390625
0,963139,-0.6329196691513062,-251.1028594970703,-13.32010269165039,-46.76997375488281
0,963140,1.9813709259033203,-84.64690399169922,11.281949043273926,-25.888797760009766
0,963143,-12.334738731384277,262.3757629394531,-19.05321502685547,60.04756546020508
0,963144,15.497079849243164,-86.82454681396484,-35.99222946166992,33.101654052734375
0,963147,-2.91994571685791,-116.26402282714844,2.8848748207092285,-19.502758026123047
0,963148,-22.569305419921875,130.95709228515625,32.13713836669922,-44.980995178222656
0,963151,26.40932846069336,-73.82769012451172,15.399447441101074,-42.59320068359375
0,963152,41.43925857543945,-79.18645477294922,4.993863582611084,51.77888870239258
0,963155,-26.624692916870117,132.92237854003906,-8.185851097106934,7.674498558044434
0,963156,-35.39506912231445,115.20532989501953,3.154789924621582,-29.337514877319336
0,963159,24.919361114501953,-168.91441345214844,21.850854873657227,44.836219787597656
0,963160,-4.523606300354004,-80.7140121459961,-6.699630260467529,-4.635063171386719
0,963163,-22.478614807128906,219.736083984375,-21.100034713745117,-13.503708839416504
0,963164,-20.40448570251465,-106.57364654541016,-24.83168601989746,11.160840034484863
0,963167,8.447739601135254,-101.83180236816406,12.410075187683105,8.833645820617676
0,963168,51.931148529052734,192.99998474121094,57.31028366088867,24.404499053955078
0,963171,-23.584522247314453,-85.08899688720703,-39.145938873291016,-49.06072998046875
0,963172,-42.8951530456543,-147.81588745117188,-54.98832321166992,0.5068748593330383
0,963175,40.88505172729492,138.1658172607422,25.139633178710938,60.67567825317383
0,963176,21.96607208251953,131.86456298828125,30.795549392700195,-60.19099044799805
0,963179,-34.089561462402344,-200.08843994140625,7.674449920654297,-85.79244232177734
0,963180,14.25819206237793,-44.822265625,-16.778453826904297,11.362789154052734
0,963183,39.2644157409668,254.72683715820312,10.76736831665039,92.06037139892578
0,963184,3.6028783321380615,-95.05026245117188,-2.1161463260650635,41.61964416503906
0,963187,-17.9942684173584,-67.88868713378906,-7.641805171966553,-51.27368927001953
0,963188,-29.39453125,115.8927230834961,12.803810119628906,-12.492115020751953
0,963191,-4.241139888763428,-111.30110931396484,-6.63359260559082,7.063641548156738
0,963192,2.1091060638427734,-79.06737518310547,-7.348670959472656,-5.4755377769470215
0,963195,-20.177881240844727,123.60987854003906,-10.514168739318848,18.22720718383789
0,963196,14.665238380432129,112.00263977050781,8.360014915466309,-1.497182011604309
0,963199,31.325786590576172,-193.4590301513672,9.060425758361816,-14.146869659423828
0,963200,1.1787992715835571,-80.57296752929688,-13.041876792907715,4.3430352210998535
0,963203,-12.0855131149292,232.9925537109375,5.017520427703857,25.020923614501953
0,963204,-21.722434997558594,-91.28870391845703,-7.806963920593262,-11.895889282226562
0,963207,12.173355102539062,-81.78132629394531,25.782732009887695,-51.45270919799805
0,963208,46.46848678588867,162.7115936279297,34.299705505371094,21.594989776611328
0,963211,-41.17036056518555,-76.12993621826172,-55.79631423950195,33.22319412231445
0,963212,-47.021488189697266,-123.50347137451172,-10.392448425292969,-19.667795181274414
0,963215,53.43710708618164,148.38523864746094,33.72096252441406,1.3698588609695435
0,963216,17.25054168701172,140.3332977294922,-22.581693649291992,26.250173568725586
0,963219,-21.274986267089844,-214.2281951904297,3.6835594177246094,16.07628059387207
0,963220,-21.427631378173828,-91.80652618408203,10.026886940002441,-39.4262580871582
0,963223,-29.321823120117188,194.1595001220703,-34.41024398803711,-52.093753814697266
0,963224,34.21492385864258,-67.67675018310547,12.881989479064941,7.310870170593262
0,963227,41.07109069824219,-26.292661666870117,43.062843322753906,75.89923095703125
0,963228,-15.047027587890625,125.49100494384766,1.0944652557373047,49.65445327758789
0,963231,-44.66587829589844,-138.46717834472656,-30.52356719970703,-72.6773452758789
0,963232,-4.518429756164551,-118.07552337646484,-21.1055850982666,-69.22416687011719
0,963235,60.9853401184082,158.14456176757812,22.682863235473633,43.06589126586914
0,963236,20.433969497680664,166.68687438964844,8.29740047454834,64.82067108154297
0,963239,-44.43704605102539,-194.90606689453125,-22.346996307373047,-48.96088790893555
0,963240,-38.25695037841797,-103.2048568725586,1.2941561937332153,-32.015380859375
0,963243,33.439186096191406,240.25051879882812,23.748001098632812,57.5784797668457
0,963244,38.749488830566406,-92.90107727050781,3.7859554290771484,-0.8148028254508972
0,963247,-35.06821060180664,-90.51832580566406,-38.55929946899414,-7.720962047576904
0,963248,-23.387310028076172,175.36306762695312,11.430184364318848,-9.246336936950684
0,963251,28.919984817504883,-75.34872436523438,30.6906681060791,-46.73059844970703
0,963252,-3.471360683441162,-133.61111450195312,-32.67352294921875,21.658416748046875
0,963255,-26.574195861816406,128.97494506835938,18.342567443847656,18.284114837646484
0,963256,28.307207107543945,136.61767578125,23.148487091064453,1.217238426208496
0,963259,52.074092864990234,-175.18788146972656,-15.043785095214844,0.872946560382843
0,963260,-18.09575843811035,-73.80107879638672,9.668556213378906,-54.798377990722656
0,963263,-75.93524932861328,172.5853729248047,-20.352807998657227,48.33061981201172
0,963264,16.767549514770508,-90.029541015625,-14.845637321472168,66.86604309082031
0,963267,43.256282806396484,-41.98359680175781,6.080204486846924,-48.390804290771484
0,963268,-34.08788299560547,136.59962463378906,-20.9183406829834,-28.01946258544922
0,963271,-14.299729347229004,-92.08759307861328,-5.285844802856445,16.05032730102539
0,963272,17.46982192993164,-103.35222625732422,20.765216827392578,-1.7774320840835571
0,963275,16.675537109375,124.99009704589844,18.321304321289062,2.010331392288208
0,963276,-0.996505618095398,114.29737854003906,14.250454902648926,13.474676132202148
0,963279,-14.250077247619629,-209.68154907226562,-0.8582382202148438,6.253255367279053
0,963280,-8.298962593078613,-80.7622299194336,-20.922666549682617,-8.020636558532715
0,963283,-13.28142261505127,290.56597900390625,-2.7888073921203613,-50.26654815673828
0,963284,25.478412628173828,-64.37696075439453,8.638434410095215,-1.9765985012054443
0,963287,29.65147590637207,-139.50770568847656,-12.397554397583008,44.285099029541016
0,963288,-31.88924789428711,166.45973205566406,5.272156715393066,2.3155834674835205
0,963291,11.191749572753906,-54.63269805908203,11.04672908782959,13.825299263000488
0,963292,24.561723709106445,-150.0039520263672,-19.68817710876465,-1.7245407104492188
0,963295,-38.31040954589844,86.82868194580078,-7.187991619110107,-28.033771514892578
0,963296,-20.82720947265625,125.71713256835938,3.792121171951294,-11.904458045959473
0,963299,17.18853759765625,-146.73060607910156,12.046041488647461,51.403568267822266
0,963300,10.976146697998047,-53.021827697753906,12.539520263671875,16.544269561767578
0,963303,-1.9411133527755737,213.53273010253906,-13.81872844696045,-58.65467834472656
0,963304,12.056754112243652,-116.85458374023438,-9.187606811523438,-4.098018646240234
0,963307,3.7880911827087402,-70.7924575805664,17.77228546142578,-7.404887676239014
0,963308,-12.934112548828125,201.12960815429688,23.096271514892578,29.205360412597656
0,963311,15.049220085144043,-94.03543853759766,-2.516859769821167,-15.064213752746582
0,963312,-1.2928845882415771,-126.65888977050781,-25.391294479370117,-60.20724105834961
0,963315,-11.123895645141602,119.64705657958984,-12.420289039611816,62.309329986572266
0,963316,28.686431884765625,103.26670837402344,19.49750328063965,30.09845542907715
0,963319,-12.180886268615723,-150.35684204101562,6.352896213531494,20.752107620239258
0,963320,-23.567710876464844,-74.07919311523438,-4.196167945861816,49.82733917236328
0,963323,-6.371800422668457,142.3124237060547,-28.49708366394043,-92.07093811035156
0,963324,-29.189960479736328,-117.43480682373047,-30.55272102355957,-142.8478546142578
0,963327,4.810230255126953,1.6658564805984497,50.26829528808594,30.892593383789062
0,963328,47.6688346862793,194.95912170410156,35.18425750732422,95.07035064697266
0,963331,21.858505249023438,-100.27590942382812,-23.10310935974121,91.07658386230469
0,963332,-30.84619903564453,-155.81907653808594,-33.003807067871094,84.26225280761719
0,963335,-39.16265869140625,98.84099578857422,-7.090172290802002,-137.0670623779297
0,963336,3.3295340538024902,165.1184539794922,39.46955490112305,-96.66451263427734
0,963339,51.36491775512695,-180.11572265625,24.617984771728516,70.79560852050781
0,963340,13.446226119995117,-50.94023132324219,-11.35871696472168,8.300760269165039
0,963343,-32.068634033203125,218.29180908203125,-36.87129211425781,12.30482006072998
0,963344,14.728979110717773,-106.37577819824219,0.3898954391479492,-1.193795084953308
0,963347,4.73533296585083,-13.695717811584473,24.853660583496094,-37.15086364746094
0,963349,-28.98775291442871,169.1262969970703,2.384281873703003,20.25079917907715
0,963351,-5.91803503036499,-175.84445190429688,-10.428662300109863,6.760693073272705
0,963353,5.205021858215332,-140.27113342285156,-11.274826049804688,-47.29207992553711
1,963356,-6.165653705596924,53.67695617675781,-5.893496990203857,1.552107572555542
1,963357,6.790820598602295,-15.891555786132812,14.422124862670898,29.646724700927734
1,963359,12.485676765441895,28.068082809448242,-9.33988094329834,30.301071166992188
1,963361,-7.742342472076416,129.681640625,-36.14669418334961,10.839971542358398
1,963363,-11.812767028808594,92.84678649902344,48.06517791748047,-26.288808822631836
1,963365,1.3708845376968384,-111.25740051269531,29.173324584960938,8.08172607421875
1,963367,28.521739959716797,-50.27128219604492,-33.737770080566406,-13.432300567626953
1,963369,0.9772834777832031,180.68605041503906,-4.723645210266113,-19.123004913330078
1,963371,-23.05845069885254,-92.63066864013672,9.348958015441895,26.783906936645508
1,963373,6.86807918548584,-153.9525604248047,-14.194260597229004,3.58166766166687
1,963375,7.4327239990234375,201.4807891845703,-6.9200215339660645,-24.650434494018555
1,963377,-18.727569580078125,-113.2076416015625,13.192530632019043,-2.904489755630493
1,963379,-0.20433157682418823,-207.18722534179688,3.6868672370910645,19.49942398071289
1,963381,3.549593687057495,216.04904174804688,3.282066583633423,-3.06707763671875
1,963383,5.368043422698975,100.77018737792969,-5.837423324584961,9.734447479248047
1,963385,20.149580001831055,-110.95822143554688,1.8058990240097046,-1.8541178703308105
1,963387,-25.57042694091797,-34.13944625854492,15.977804183959961,-13.502546310424805
1,963389,4.900341033935547,116.6097412109375,-17.100141525268555,24.44274139404297
1,963391,30.87944221496582,-35.94264221191406,-30.19538688659668,-2.2583248615264893
1,963393,-26.029382705688477,-133.13275146484375,17.68157386779785,-59.8033332824707
1,963395,-11.696870803833008,142.09744262695312,36.965797424316406,-31.710220336914062
1,963397,12.677872657775879,-49.52647018432617,-0.28174126148223877,64.22529602050781
1,963399,-0.20718993246555328,-173.78701782226562,-26.3085880279541,38.67211151123047
1,963401,-3.2259483337402344,163.39199829101562,-3.579381227493286,-0.6993260979652405
1,963403,6.7608842849731445,115.5375747680664,9.617059707641602,-5.375912189483643
1,963405,14.642236709594727,-102.20355224609375,5.0509772300720215,-27.9571590423584
1,963407,-4.907888889312744,-57.32404327392578,8.01872730255127,27.345291137695312
1,963409,-28.665550231933594,74.63578033447266,-54.08324432373047,12.202126502990723
1,963411,-23.367156982421875,-48.871158599853516,-22.076866149902344,-47.118595123291016
1,963413,23.775253295898438,-24.59466552734375,82.10167694091797,-22.623825073242188
1,963415,36.77883529663086,183.28500366210938,14.669166564941406,8.701748847961426
1,963417,-9.085186958312988,-123.6273193359375,-36.62894058227539,13.307368278503418
1,963419,-4.684096813201904,-149.72271728515625,19.003381729125977,24.956544876098633
1,963421,-3.4434990882873535,178.61566162109375,1.0148255825042725,-9.82218074798584
1,963423,-14.558440208435059,46.04352569580078,-45.032100677490234,-25.93358612060547
1,963425,10.20486068725586,-121.29911804199219,5.639566421508789,50.013206481933594
1,963427,12.832025527954102,-15.45150089263916,42.383018493652344,42.9486198425293
1,963429,-2.2950029373168945,148.2420654296875,-6.0441179275512695,-91.95162200927734
1,963431,-32.13298797607422,-98.97356414794922,-43.30886459350586,-66.20823669433594
1,963433,-9.94092082977295,-121.7060775756836,17.613224029541016,86.94806671142578
1,963435,31.2359676361084,230.00245666503906,37.14089584350586,32.169742584228516
1,963437,7.4932990074157715,-101.5700454711914,-51.79499053955078,-10.390348434448242
1,963439,-18.25446891784668,-176.85906982421875,-1.5298959016799927,3.8297441005706787
1,963441,-11.485591888427734,188.54037475585938,48.368343353271484,-5.859212875366211
1,963443,10.597804069519043,80.76297760009766,-7.919010639190674,7.666014194488525
1,963445,-3.4077348709106445,-129.6876983642578,-26.13455581665039,-85.97882843017578
1,963447,15.374336242675781,-64.03959655761719,4.969406604766846,-0.6676097512245178
1,963449,29.384254455566406,192.2794952392578,28.564334869384766,108.81597900390625
1,963451,-26.000661849975586,-26.827911376953125,-19.494319915771484,-16.69593048095703
1,963453,-6.471604824066162,-175.42510986328125,-16.742477416992188,-39.1897087097168
1,963455,22.311731338500977,177.5283660888672,13.116310119628906,15.063172340393066
1,963457,-9.243932723999023,-50.67909622192383,-9.212055206298828,11.839427947998047
1,963459,-8.329716682434082,-171.7247772216797,-4.105587482452393,-32.881465911865234
1,963461,-9.034388542175293,193.94126892089844,12.288534164428711,-23.22323226928711
1,963463,-7.131346702575684,73.87937927246094,-1.297572374343872,52.195587158203125
1,963465,32.044857025146484,-148.87852478027344,14.123597145080566,20.14582633972168
1,963467,-1.4701855182647705,-30.933225631713867,0.8957032561302185,-23.892852783203125
1,963469,-42.24222946166992,145.4010772705078,-24.292564392089844,-13.582735061645508
1,963471,14.030728340148926,-62.750972747802734,12.12427043914795,11.078542709350586
1,963473,17.015640258789062,-119.3788070678711,7.496083736419678,26.695966720581055
1,963475,-11.349868774414062,200.45382690429688,-9.509026527404785,-3.7433552742004395
1,963477,21.910354614257812,-65.66507720947266,11.184309005737305,-74.33028411865234
1,963479,-9.594181060791016,-197.09034729003906,-6.360940933227539,-52.30725860595703
1,963481,-27.224395751953125,166.60086059570312,-17.567943572998047,101.62724304199219
1,963483,28.109237670898438,98.88243103027344,12.179827690124512,47.828182220458984
1,963485,-0.6268875598907471,-116.15615844726562,13.179437637329102,-62.68089294433594
1,963487,-25.75864601135254,-51.15118408203125,0.40442904829978943,10.788437843322754
1,963489,21.12046241760254,95.77920532226562,-7.191159248352051,3.847641706466675
1,963491,-1.553001880645752,-60.48574447631836,-14.971778869628906,-30.53304100036621
1,963493,-15.772533416748047,-40.7332878112793,10.178136825561523,41.044036865234375
1,963495,26.034822463989258,235.61500549316406,27.111915588378906,25.345386505126953
1,963497,-7.301044464111328,-128.78492736816406,-29.983863830566406,-48.53022003173828
1,963499,-24.410863876342773,-254.7210235595703,-26.726852416992188,-22.66286277770996
1,963501,7.8221354484558105,207.1982879638672,24.457744598388672,19.64499282836914
1,963503,15.203442573547363,158.35537719726562,3.4584426879882812,18.56768035888672
1,963505,5.995450973510742,-145.65611267089844,-0.9348808526992798,-24.451173782348633
1,963507,-3.064362049102783,-85.46107482910156,-0.9905381202697754,-2.6260454654693604
1,963509,-14.954764366149902,124.04047393798828,-6.2715911865234375,27.40042495727539
1,963511,3.0814919471740723,-23.45011329650879,24.668323516845703,-12.245384216308594
1,963513,30.53809928894043,-73.43350219726562,3.760516405105591,39.3505973815918
1,963515,-15.002310752868652,166.6211395263672,-26.279781341552734,21.548553466796875
1,963517,-25.678409576416016,-103.56137084960938,2.2546260356903076,-72.08341217041016
1,963519,17.857139587402344,-172.78060913085938,6.955776214599609,-63.86807632446289
1,963521,7.21530818939209,198.66290283203125,3.684816360473633,34.413211822509766
1,963523,-20.62480354309082,90.5263900756836,3.0535507202148438,95.78472900390625
1,963525,-13.832658767700195,-138.98785400390625,-19.386653900146484,-25.68562889099121
1,963527,8.495766639709473,-65.97869873046875,-9.950325965881348,-19.641809463500977
1,963529,15.364992141723633,99.74830627441406,13.727381706237793,27.458642959594727
1,963531,25.608720779418945,-9.929316520690918,14.035612106323242,-80.33869171142578
1,963533,-3.879502534866333,-64.62229919433594,10.027189254760742,15.592208862304688
1,963535,-67.2044677734375,118.59544372558594,-12.035914421081543,82.20246124267578
1,963537,16.439786911010742,-74.08501434326172,-5.549182415008545,-46.91543960571289
1,963539,65.91722869873047,-124.91558837890625,16.21119499206543,-11.139692306518555
1,963541,-29.20857810974121,176.9776153564453,-11.901543617248535,35.18896484375
1,963543,-20.143070220947266,71.52616882324219,-10.828217506408691,-33.65195846557617
1,963545,34.81380844116211,-148.95216369628906,10.92235279083252,-16.810932159423828
1,963547,15.71619987487793,-8.560476303100586,16.78809356689453,22.594013214111328
1,963549,-18.314096450805664,146.310546875,9.371114730834961,-7.671562194824219
1,963551,-24.42877197265625,-102.10759735107422,-45.29128646850586,-8.796396255493164
1,963554,-17.167829513549805,-102.8231201171875,-28.935609817504883,10.277332305908203
1,963555,15.05807876586914,226.0709228515625,47.66825866699219,-1.6370736360549927
1,963558,6.986537933349609,-119.55207824707031,6.052565574645996,17.27814292907715
1,963559,-4.27097225189209,-206.32986450195312,-13.120766639709473,-2.183788299560547
1,963562,10.442420959472656,250.3535919189453,19.821186065673828,-13.024996757507324
1,963563,-6.363545894622803,78.09625244140625,-23.9541015625,18.657835006713867
1,963566,0.1631307452917099,-125.80003356933594,4.346940994262695,-7.354649543762207
1,963567,-7.002381324768066,-5.031749725341797,21.2695255279541,-12.803027153015137
1,963568,4.423677444458008,-48.52077865600586,-24.842205047607422,13.0709810256958
1,963571,20.490116119384766,-53.241756439208984,7.456713676452637,1.2964046001434326
1,963572,-8.80373764038086,25.33700180053711,4.359347343444824,-7.801507472991943
1,963575,-34.22054672241211,135.499267578125,-17.372758865356445,-17.26743507385254
1,963576,9.808408737182617,125.07566833496094,13.671911239624023,-6.4920878410339355
1,963579,35.899532318115234,-191.58311462402344,3.448953151702881,33.676116943359375
1,963580,-34.27231979370117,-81.6999282836914,-4.259846210479736,-0.5237476825714111
1,963583,-8.696673393249512,174.12962341308594,17.329914093017578,-2.9970388412475586
1,963584,51.48436737060547,-131.6636505126953,-9.076704025268555,7.463037014007568
1,963587,-13.130373001098633,-51.5173225402832,-19.62214469909668,-16.27753257751465
1,963588,-43.784271240234375,176.57220458984375,-7.790945053100586,10.80471134185791
1,963591,45.33332824707031,-75.19686126708984,31.708309173583984,-9.891352653503418
1,963846,27.415061950683594,-114.88544464111328,16.012836456298828,0.5134605765342712
1,963847,-44.505584716796875,76.03797149658203,-40.58830261230469,9.107337951660156
1,963850,-0.672150731086731,330.263427734375,21.79586410522461,-18.49764060974121
1,963851,6.795177459716797,159.12841796875,4.191734313964844,34.071842193603516
1,967358,-15.791934967041016,-467.2644958496094,-49.373565673828125,13.452463150024414
1,967358,-1.056625485420227,-258.2107238769531,6.8335676193237305,-49.84284973144531
1,967359,24.097715377807617,262.2132873535156,14.496275901794434,-15.025867462158203
1,967361,-17.3908634185791,-84.13701629638672,22.4522647857666,-2.0275514125823975
1,967363,-25.327308654785156,-198.21923828125,23.31397247314453,-4.334959030151367
1,967365,34.214805603027344,188.07337951660156,-22.34503173828125,31.97905921936035
1,967367,-5.557384014129639,106.89561462402344,-8.745157241821289,15.765119552612305
1,967369,-18.147768020629883,28.693025588989258,-1.370177149772644,9.9857759475708
1,967371,5.714723110198975,237.6444549560547,4.326620578765869,0.1077854111790657
1,967373,12.012494087219238,-40.70567321777344,18.412269592285156,-58.122230529785156
1,967375,18.47889518737793,-226.82371520996094,-21.903514862060547,8.081513404846191
1,967377,-21.999494552612305,54.86906051635742,-26.770235061645508,68.86000061035156
1,967379,4.351212501525879,-2.089171886444092,34.79638671875,-57.71885299682617
1,967381,13.632728576660156,-213.3774871826172,25.63121795654297,-33.39149856567383
1,967383,-26.257244110107422,-87.99341583251953,-13.907814025878906,78.2513427734375
1,967385,-2.4092631340026855,200.32310485839844,-44.08200454711914,-25.96666145324707
1,967387,8.032330513000488,46.1527099609375,-34.53020095825195,-30.892444610595703
1,967389,-4.4291510581970215,-20.472097396850586,52.366539001464844,85.56722259521484
1,967391,-6.180971145629883,230.09156799316406,26.196931838989258,4.463090896606445
1,967393,26.022388458251953,-85.10224914550781,-19.098857879638672,-84.1046371459961
1,967395,26.417028427124023,-198.71255493164062,15.796473503112793,-37.77466583251953
1,967397,-13.067636489868164,147.77142333984375,-11.345626831054688,16.005643844604492
1,967399,-21.501291275024414,-1.142479658126831,-14.72963809967041,49.372825622558594
1,967401,-7.081948757171631,-186.02850341796875,5.158543586730957,22.38966941833496
1,967403,2.5207724571228027,-35.47257614135742,-17.327009201049805,-3.5028183460235596
1,967405,16.551607131958008,171.62454223632812,31.33694839477539,-14.831165313720703
1,967407,4.682175159454346,26.997587203979492,13.987068176269531,-16.204727172851562
1,967409,-25.79945182800293,-94.85385131835938,-35.362430572509766,-7.0110602378845215
1,967411,23.386165618896484,216.34068298339844,25.188249588012695,-24.10872459411621
1,967413,7.528298854827881,-51.32845687866211,-1.4646210670471191,14.225942611694336
1,967415,-23.00540542602539,-225.94436645507812,-46.187095642089844,41.198883056640625
1,967417,2.208158493041992,128.50531005859375,28.89128875732422,-3.728834629058838
1,967419,4.125351428985596,27.616355895996094,50.449676513671875,-18.933074951171875
1,967421,-3.9971470832824707,-121.20249938964844,-26.61991310119629,7.538136959075928
1,967423,-20.987781524658203,-11.67979907989502,-24.20029067993164,2.0075037479400635
1,967425,25.9783878326416,123.85953521728516,13.320419311523438,-4.483665943145752
1,967427,3.483429431915283,-38.89261245727539,-5.840033054351807,13.725937843322754
1,967429,-42.70939636230469,-65.31139373779297,-9.554640769958496,-7.811670780181885
1,967431,16.309925079345703,212.49066162109375,-1.0214381217956543,-9.155508041381836
1,967433,45.13691329956055,-85.1575927734375,7.253927230834961,-7.931625843048096
1,967435,-17.788860321044922,-199.9204864501953,-1.5404094457626343,-34.22662353515625
1,967437,-31.315547943115234,193.59063720703125,6.7613725662231445,51.39468002319336
1,967439,9.10328483581543,37.58436584472656,-16.605884552001953,90.21696472167969
1,967441,16.8987979888916,-172.7391357421875,-26.6572322845459,-88.52814483642578
1,967443,8.761981010437012,-2.0258395671844482,36.42617416381836,-73.36712646484375
1,967445,-18.010852813720703,135.86395263671875,11.44724178314209,50.2923698425293
1,967447,-11.655381202697754,-36.394187927246094,-7.4727630615234375,28.81265640258789
1,967449,16.27872657775879,-86.0004653930664,11.276091575622559,4.7719902992248535
1,967451,6.356208324432373,184.40121459960938,-2.8208494186401367,-42.447288513183594
1,967453,-20.3324031829834,-87.54063415527344,-19.566110610961914,5.196067810058594
1,967455,19.595001220703125,-163.06712341308594,-3.062182903289795,37.156898498535156
1,967457,29.907011032104492,220.56295776367188,42.25441360473633,-11.215164184570312
1,967459,-32.21672821044922,54.03934097290039,0.3288814425468445,-52.205177307128906
1,967461,-26.06931495666504,-201.70372009277344,-43.20811080932617,13.2886962890625
1,967463,1.177618145942688,-62.08285140991211,2.273792028427124,75.44805908203125
1,967465,17.9776668548584,136.6139678955078,22.141674041748047,0.2242012768983841
1,967467,11.837722778320312,-18.60218620300293,-4.379140853881836,-22.023115158081055
1,967469,-20.487754821777344,-74.51368713378906,-20.144397735595703,-64.47270202636719
1,967471,11.999653816223145,202.03945922851562,2.4523141384124756,-7.169476509094238
1,967473,-5.047168731689453,-61.500667572021484,17.976119995117188,81.12408447265625
1,967475,-29.935651779174805,-220.9073944091797,-5.815371036529541,18.425437927246094
1,967477,22.030607223510742,187.54440307617188,6.770901679992676,-24.622846603393555
1,967479,26.407590866088867,121.9196548461914,0.17556613683700562,-27.92528533935547
1,967481,13.90976333618164,-161.1671905517578,-13.623188018798828,10.084992408752441
1,967483,0.14145618677139282,-76.86054229736328,20.759675979614258,-17.428157806396484
1,967485,-26.14676856994629,128.9088897705078,1.9303604364395142,-37.40324020385742
1,967487,4.994858264923096,-5.530636310577393,1.2017822265625,38.670867919921875
1,967489,13.852015495300293,-86.33721923828125,12.266397476196289,41.289581298828125
1,967491,-21.17947006225586,148.90699768066406,-42.18619918823242,-8.064824104309082
1,967493,-20.541183471679688,-86.91386413574219,-27.886014938354492,-48.871612548828125
1,967495,13.361675262451172,-171.6875762939453,39.978904724121094,-22.7294921875
1,967497,15.054121017456055,185.263671875,8.521568298339844,41.254425048828125
1,967499,-10.210710525512695,85.37433624267578,-16.997901916503906,2.3250412940979004
1,967501,2.8607685565948486,-132.1502685546875,5.939591884613037,-14.155194282531738
1,967503,-26.551179885864258,-43.19892883300781,-4.958676815032959,16.0833797454834
1,967505,12.221793174743652,136.22874450683594,26.256855010986328,-15.273468971252441
1,967507,59.15395736694336,-18.471242904663086,10.8944091796875,30.481294631958008
1,967509,-31.08770751953125,-101.07971954345703,-55.27680969238281,29.84377098083496
1,967511,-27.910837173461914,161.8820037841797,0.9756708741188049,-47.294437408447266
1,967513,26.105979919433594,-73.1062240600586,55.9675407409668,6.213367938995361
1,967515,1.0974855422973633,-158.88963317871094,-8.971746444702148,30.533601760864258
1,967517,-22.036691665649414,160.5632781982422,-41.22722625732422,-27.38023567199707
1,967519,-15.828512191772461,20.898889541625977,-8.997365951538086,-13.812593460083008
1,967521,3.4242398738861084,-106.47482299804688,6.182893753051758,31.33595085144043
1,967523,7.629549026489258,0.46914058923721313,24.41592788696289,-1.2666089534759521
1,967525,12.993021965026855,62.26228332519531,-3.7944111824035645,-51.783164978027344
1,967527,10.294157981872559,-41.572181701660156,-24.410667419433594,-4.492417335510254
1,967529,4.1021809577941895,-29.652851104736328,36.35329818725586,25.666894912719727
1,967531,-8.891444206237793,177.98550415039062,17.150651931762695,-20.185697555541992
1,967533,-8.589411735534668,-93.03431701660156,-18.315662384033203,29.137434005737305
1,967535,13.734152793884277,-169.1551055908203,9.695752143859863,52.275020599365234
1,967537,-10.381636619567871,172.27781677246094,0.6729260683059692,-53.31955337524414
1,967539,-11.84169864654541,49.03095245361328,-24.86258888244629,-48.24058532714844
1,967541,10.664074897766113,-129.16026306152344,-6.472548007965088,59.53336715698242
1,967543,12.089567184448242,0.9156849384307861,28.269485473632812,23.522552490234375
1,967545,3.2809951305389404,115.89955139160156,-15.063831329345703,-31.142404556274414
1,967547,-22.226421356201172,-90.40802764892578,-48.021568298339844,13.929033279418945
1,967549,-12.171039581298828,-62.936614990234375,36.85932540893555,-30.99641990661621
1,967551,2.9366846084594727,218.88011169433594,46.210174560546875,-34.721656799316406
1,967553,16.710037231445312,-109.23529052734375,-32.39389419555664,62.61172866821289
1,967555,30.321168899536133,-167.72891235351562,-2.5471906661987305,22.529605865478516
1,967557,-4.171535491943359,179.7151336669922,10.963647842407227,-34.381771087646484
1,967559,-10.089959144592285,38.687164306640625,-11.069035530090332,-1.881211757659912
1,967561,-9.093548774719238,-80.51569366455078,7.507997035980225,-24.78502655029297
1,967563,-38.6461067199707,-10.651411056518555,-15.419044494628906,6.252903461456299
1,967565,13.407088279724121,44.63703918457031,-25.424442291259766,49.1309814453125
1,967567,50.179622650146484,-38.58565902709961,19.445924758911133,-5.207418918609619
1,967570,-17.45949935913086,-33.24666213989258,22.26862335205078,-43.67157745361328
1,967571,-37.865325927734375,132.215576171875,-20.878307342529297,-9.6404390335083
1,967574,6.078197002410889,-117.17473602294922,11.431089401245117,10.771512985229492
1,967575,28.91499137878418,-130.55979919433594,26.032114028930664,-18.835649490356445
1,967578,-2.1135857105255127,174.6121826171875,-31.5590763092041,30.19095802307129
1,967579,-10.47671890258789,58.379638671875,-28.374597549438477,28.289722442626953
1,967582,8.669530868530273,-47.27293395996094,42.00315856933594,-18.234119415283203
1,967583,-13.328679084777832,14.990994453430176,28.751285552978516,12.318243980407715
1,967584,-12.017677307128906,-101.12592315673828,-63.430240631103516,-5.335294246673584
1,967587,19.33882713317871,-87.49797058105469,-3.276014804840088,-26.2320613861084
1,967588,14.124837875366211,83.7240982055664,36.631038665771484,8.704765319824219
1,967591,-16.161624908447266,144.6805419921875,-1.680751085281372,11.349410057067871
1,967592,-14.326249122619629,70.55115509033203,-7.791904449462891,-4.093882083892822
1,967595,9.207910537719727,-186.52975463867188,-6.766415119171143,5.63760232925415
1,967596,27.288293838500977,-24.431882858276367,29.79399871826172,0.32463088631629944
1,967599,-12.320342063903809,153.19906616210938,-12.729256629943848,-3.4649126529693604
1,967600,-31.737159729003906,-189.38327026367188,-22.620567321777344,-13.0757417678833
1,967603,21.26325798034668,0.900327742099762,27.137880325317383,-4.78320837020874
1,967604,11.899042129516602,208.09364318847656,8.621526718139648,25.545392990112305
1,967607,3.3954904079437256,-131.54736328125,-1.6415321826934814,6.306259632110596
1,967608,-3.1422278881073,-83.96880340576172,4.38550329208374,-4.173876762390137
1,967611,-5.376565456390381,155.7655487060547,-18.0865421295166,-7.902316093444824
1,967614,13.863253593444824,-103.60904693603516,-22.61893653869629,-19.88357162475586
1,967615,-27.2381591796875,-138.4879913330078,-6.5564446449279785,-11.359844207763672
1,967617,-3.8819901943206787,294.99383544921875,21.918588638305664,30.79545021057129
1,967619,24.548568725585938,92.5396957397461,34.387229919433594,16.762435913085938
1,967621,-28.113683700561523,-211.71694946289062,-21.044357299804688,-57.731605529785156
1,967623,-17.603609085083008,-45.97597885131836,-50.29191207885742,10.155610084533691
1,967625,39.666038513183594,139.8517303466797,5.166133880615234,59.93606185913086
1,967627,18.250213623046875,-15.09223461151123,34.87200164794922,-2.6762607097625732
1,967629,-30.637338638305664,-82.31298828125,-1.8728445768356323,-30.840328216552734
1,967631,-16.56140899658203,145.939208984375,1.6625970602035522,-11.88540267944336
1,967633,6.640841484069824,-140.67051696777344,11.339998245239258,11.420180320739746
1,967635,12.33857536315918,-165.70233154296875,-12.096053123474121,4.330012321472168
1,967637,24.872356414794922,233.47531127929688,12.452357292175293,-25.95550537109375
1,967639,49.76798629760742,80.93274688720703,7.899625778198242,-24.02540397644043
1,967641,-46.95654296875,-162.6954803466797,-21.123117446899414,54.99495315551758
1,967643,-118.28459167480469,-80.95220947265625,-5.926235198974609,-6.022637844085693
1,967645,28.946434020996094,128.23477172851562,32.24038314819336,-46.93891525268555
1,967647,91.67436218261719,7.2944512367248535,20.150190353393555,51.0594482421875
1,967649,8.008955955505371,-96.22069549560547,-39.71013259887695,-0.12165690213441849
1,967651,-48.57123947143555,141.89349365234375,-12.79455852508545,-22.538326263427734
1,967653,6.187680721282959,-98.6114730834961,-15.798721313476562,78.38170623779297
1,967655,21.5413761138916,-155.13241577148438,-59.06797409057617,22.564266204833984
1,967657,-7.144775390625,227.3081817626953,-13.37397575378418,-74.606201171875
1,967659,34.678611755371094,60.52924346923828,28.57539176940918,-14.763992309570312
1,967661,-10.4752836227417,-150.14598083496094,85.14508056640625,18.35987091064453
1,967663,-32.497535705566406,13.886872291564941,66.25155639648438,-31.433759689331055
1,967665,10.54344367980957,98.7592544555664,-34.66460418701172,-42.88842010498047
1,967667,-12.124452590942383,-67.5060806274414,-33.03183364868164,0.17857560515403748
1,967669,-20.09954833984375,-68.6336669921875,-23.207883834838867,53.105003356933594
1,967671,8.864958763122559,158.17816162109375,21.168119430541992,9.755064010620117
1,967673,2.7374093532562256,-79.99561309814453,38.48428726196289,-46.41108322143555
1,967675,-0.7166067957878113,-171.60118103027344,-30.41451644897461,34.442752838134766
1,967677,3.549722194671631,171.57244873046875,-14.976410865783691,11.685094833374023
1,967679,35.29574966430664,58.36927032470703,-7.732781887054443,-56.768802642822266
1,967681,27.184551239013672,-112.17500305175781,27.66628074645996,25.1446590423584
1,967683,-83.54905700683594,17.704172134399414,88.76459503173828,46.42411422729492
1,967685,-79.73536682128906,84.81590270996094,-88.35406494140625,12.44563102722168
1,967687,28.385995864868164,-84.54283905029297,-152.0293731689453,38.516387939453125
1,967689,116.29067993164062,-32.85407638549805,2.6052660942077637,26.73120880126953
1,967691,80.4775619506836,218.7908477783203,44.509437561035156,-65.55350494384766
1,967693,-84.60718536376953,-144.92381286621094,10.197470664978027,-56.59730911254883
1,967695,-115.07930755615234,-238.8421173095703,-70.72801971435547,38.67866516113281
1,967697,26.259294509887695,195.92990112304688,39.65083694458008,29.491323471069336
1,967699,101.49951934814453,104.42488861083984,150.36883544921875,-24.809396743774414
1,967701,9.929854393005371,-74.95516967773438,74.59710693359375,-68.35256958007812
1,967703,26.359567642211914,3.462780714035034,39.21505355834961,-48.36737823486328
1,967705,9.65787410736084,66.11734771728516,-46.21187210083008,15.735220909118652
1,967707,-125.36741638183594,-82.15765380859375,1.6654274463653564,18.272207260131836
1,967709,98.75265502929688,-44.38530731201172,-29.32960319519043,29.231081008911133
1,967711,217.5900421142578,226.03720092773438,-166.18173217773438,65.26957702636719
1,967713,-380.7847900390625,-167.0209197998047,-65.15248107910156,32.10840606689453
1,967715,-474.64892578125,-266.8103332519531,-70.16413116455078,17.00590705871582
1,967717,362.455322265625,271.05303955078125,40.47652816772461,84.17404174804688
1,967719,441.4111328125,81.75096893310547,92.52900695800781,35.652278900146484
1,967721,-106.81621551513672,-161.58615112304688,43.31880187988281,-161.1025390625
1,967723,-131.37863159179688,36.410072326660156,130.9561004638672,-151.40721130371094
1,967725,26.387569427490234,55.45053482055664,-49.220157623291016,-3.095308303833008
1,967727,-2.9767653942108154,-91.07857513427734,-53.677581787109375,11.484703063964844
1,967729,6.760719299316406,21.582914352416992,91.77925109863281,50.46535110473633
1,967731,44.12057113647461,237.80804443359375,46.77646255493164,27.515260696411133
1,967733,1.9991400241851807,-148.315185546875,-9.296586990356445,-35.54286193847656
1,967735,-6.295815467834473,-209.86036682128906,-36.74477005004883,5.288136959075928
1,967737,-31.516813278198242,225.99559020996094,-7.321212291717529,11.734445571899414
1,967739,-35.92726516723633,62.440608978271484,-52.25196075439453,25.20081901550293
1,967741,-9.543965339660645,-185.97882080078125,-99.95133209228516,48.00727844238281
1,967743,-39.77055740356445,-33.177330017089844,-44.16023254394531,37.286190032958984
1,967745,-22.71390151977539,114.70462036132812,-41.68427658081055,49.03276443481445
1,967747,39.176021575927734,-14.718962669372559,40.24384307861328,-11.849100112915039
1,967749,29.71782875061035,-22.38405990600586,146.95347595214844,-84.35619354248047
1,967751,-17.184185028076172,130.5211639404297,21.297643661499023,-33.89786148071289
1,967753,37.34196853637695,-119.43360137939453,-81.67806243896484,13.57738208770752
1,967755,60.11764144897461,-153.86502075195312,1.1460014581680298,-8.200967788696289
1,967757,-40.10660934448242,207.2208251953125,82.78532409667969,-16.70792579650879
1,967759,-25.825305938720703,69.5526351928711,20.773881912231445,3.266134262084961
1,967761,28.501449584960938,-156.62437438964844,-84.44709014892578,12.693342208862305
1,967763,-14.683980941772461,16.436891555786133,-43.93330764770508,3.0459036827087402
1,967765,-70.43597412109375,102.31047821044922,15.084278106689453,16.871938705444336
1,967767,-58.74620819091797,-108.72748565673828,-8.564414024353027,46.57952880859375
1,967769,57.374507904052734,-77.61351776123047,95.66107940673828,-66.83454895019531
1,967771,86.28217315673828,225.83265686035156,149.22613525390625,-91.42475891113281
1,967773,-1.3628487586975098,-70.03475189208984,-96.26209259033203,67.9621353149414
1,967775,33.954769134521484,-196.5404510498047,-228.77920532226562,116.62907409667969
1,967777,34.36815643310547,208.11756896972656,-54.54505157470703,25.784772872924805
1,967779,-60.12376022338867,15.946385383605957,68.84130096435547,-83.59381103515625
1,967781,-16.279043197631836,-127.38273620605469,125.5894775390625,-69.32965850830078
1,967783,-22.909765243530273,65.96537017822266,37.98775100708008,33.9406852722168
1,967785,-92.49929809570312,15.069716453552246,-122.12389373779297,54.81525802612305
1,967787,-14.72104263305664,-100.40882873535156,7.465827465057373,-35.8050651550293
1,967789,124.80409240722656,12.341394424438477,81.81706237792969,6.5566229820251465
1,967791,54.98631286621094,179.6613006591797,36.69977569580078,37.241756439208984
1,967793,-71.22575378417969,-142.7085418701172,58.7447509765625,-67.83673858642578
1,967795,-29.5343017578125,-158.29226684570312,14.00125789642334,-103.90616607666016
1,967797,48.78474807739258,247.09710693359375,19.699176788330078,-48.586647033691406
1,967799,89.32801818847656,70.63797760009766,103.8100357055664,12.440786361694336
1,967801,-111.34929656982422,-161.73435974121094,-130.491455078125,4.921647071838379
1,967803,-206.7875518798828,-14.256132125854492,-323.33135986328125,147.6998748779297
