Aktueller Finger,timestamp_ms,sensor_0,sensor_1,sensor_2,sensor_3
0,1024450,-23.54692268371582,-91.83164978027344,-25.153942108154297,27.82088851928711
0,1024451,-6.814327239990234,4.078853607177734,10.414698600769043,153.50213623046875
0,1024452,-6.8828229904174805,66.15312957763672,7.484696388244629,-57.76532745361328
0,1024453,-22.9725284576416,12.52292251586914,-32.93022155761719,-59.44983673095703
0,1024456,8.927968978881836,-15.354378700256348,1.3984562158584595,41.60327911376953
0,1024457,33.15593338012695,-13.191934585571289,39.41632080078125,-26.583620071411133
0,1024460,-9.021065711975098,-31.431921005249023,-27.256013870239258,-65.05467987060547
0,1024461,-20.104032516479492,-28.30647087097168,-27.61674690246582,-15.95054817199707
0,1024464,29.11552619934082,74.76299285888672,56.0891227722168,108.12240600585938
0,1024465,-13.592933654785156,21.853836059570312,-30.612192153930664,-27.5606746673584
0,1024468,-7.744259357452393,-65.70848846435547,-43.58134460449219,-51.99374008178711
0,1024469,41.793914794921875,2.313668727874756,80.25719451904297,120.08833312988281
0,1024472,-14.339138984680176,41.235145568847656,10.748377799987793,-33.38306427001953
0,1024473,-20.16546630859375,-12.467085838317871,-54.3464469909668,-72.9281997680664
0,1024476,16.058610916137695,-15.004939079284668,-0.16296906769275665,0.1386416256427765
0,1024477,2.2111685276031494,5.183490753173828,3.2054529190063477,-0.5190057754516602
0,1024480,-0.6006246209144592,-33.5875358581543,-21.867168426513672,33.01259994506836
0,1024481,-5.888133525848389,11.743369102478027,3.3931188583374023,-34.90589904785156
0,1024484,-3.3915443420410156,81.49052429199219,48.47602844238281,1.6735886335372925
0,1024485,-1.890189528465271,11.94480037689209,0.025499004870653152,71.62936401367188
0,1024488,-18.629989624023438,-109.56513214111328,-45.675045013427734,-52.60917282104492
0,1024489,22.748348236083984,-14.664880752563477,27.16404151916504,-92.50032806396484
0,1024492,13.319070816040039,79.60580444335938,5.575721740722656,51.220726013183594
0,1024493,-40.75929641723633,-23.146379470825195,-51.46186447143555,64.85416412353516
0,1024496,-5.953822135925293,1.0838282108306885,45.09395980834961,4.225549697875977
0,1024497,30.753707885742188,21.626375198364258,40.83305740356445,4.142002105712891
0,1024500,29.53423500061035,-19.35908317565918,-48.726924896240234,45.513980865478516
0,1024501,-12.277803421020508,19.34358787536621,-25.482120513916016,22.673141479492188
0,1024504,-31.101621627807617,-13.480965614318848,27.844329833984375,-97.95411682128906
0,1024505,8.237748146057129,-25.18088722229004,24.588464736938477,-27.587602615356445
0,1024508,7.123874664306641,27.563243865966797,-25.949216842651367,122.26017761230469
0,1024509,11.313521385192871,-2.0792124271392822,-13.077794075012207,11.742591857910156
0,1024512,-15.094646453857422,-26.606603622436523,15.82754135131836,-238.8358612060547
0,1024513,-20.415924072265625,15.335480690002441,-3.486004114151001,-66.75586700439453
0,1024516,29.10586166381836,18.282672882080078,13.582174301147461,271.8316345214844
0,1024517,-4.366552829742432,-12.595013618469238,15.392928123474121,48.70726776123047
0,1024520,-2.5271568298339844,-22.543766021728516,-11.615291595458984,-136.18727111816406
0,1024521,34.88423538208008,-8.575559616088867,-23.227624893188477,32.579734802246094
0,1024524,-19.383211135864258,53.06219482421875,6.902494430541992,24.733118057250977
0,1024525,-35.423194885253906,24.653215408325195,22.102214813232422,-75.65409088134766
0,1024528,9.216378211975098,-72.27367401123047,-27.08127784729004,-19.9790096282959
0,1024529,10.514283180236816,-11.69593620300293,3.787280797958374,58.303558349609375
0,1024532,0.8696231842041016,37.444610595703125,8.169846534729004,50.324337005615234
0,1024533,-10.901046752929688,-12.987326622009277,-39.79142379760742,-0.07857624441385269
0,1024536,-21.23208236694336,-1.7338597774505615,27.242361068725586,-66.01433563232422
0,1024537,-1.6033679246902466,6.7523393630981445,21.95496368408203,-19.48610496520996
0,1024540,33.524871826171875,0.9053707122802734,-35.08440017700195,42.86063003540039
0,1024541,16.249425888061523,-17.910730361938477,18.205289840698242,-6.7317214012146
0,1024544,-17.8256778717041,19.457576751708984,13.454092025756836,-3.276571035385132
0,1024545,-1.085133671760559,60.558597564697266,-40.23280334472656,-7.4142231941223145
0,1024548,-14.8567533493042,-74.7123031616211,17.41033363342285,-58.932193756103516
0,1024549,-0.6991574764251709,-44.50971984863281,34.58381271362305,14.41588020324707
0,1024804,36.939937591552734,62.61286544799805,-31.183927536010742,90.0531234741211
0,1024806,-18.08637046813965,46.88071060180664,23.570274353027344,15.4420747756958
0,1024808,-47.675933837890625,28.714460372924805,36.89065933227539,-59.162540435791016
0,1024810,-3.944687843322754,-22.054973602294922,-21.546863555908203,-31.560794830322266
0,1024812,16.26085090637207,-5.4606709480285645,-12.304271697998047,53.72442626953125
0,1024813,48.872154235839844,-27.967735290527344,-47.865867614746094,37.0562629699707
0,1027345,54.56754684448242,-104.68849182128906,-27.807579040527344,-57.685272216796875
0,1027348,-28.94146156311035,-57.91548538208008,57.23612976074219,3.615252733230591
0,1027349,-26.518226623535156,60.260475158691406,30.35390281677246,71.30219268798828
0,1027352,23.001352310180664,75.99923706054688,-22.718416213989258,-19.671045303344727
0,1027353,-10.091543197631836,33.72235107421875,-4.733944892883301,-76.95171356201172
0,1027356,-39.077022552490234,-0.38085415959358215,-0.399917334318161,23.560932159423828
0,1027357,-7.281729698181152,-24.30872917175293,-97.31655883789062,60.71672821044922
0,1027360,24.392595291137695,48.99425506591797,37.777809143066406,-68.77146911621094
0,1027361,-14.261728286743164,59.529815673828125,178.71810913085938,-67.07257080078125
0,1027364,-6.9065423011779785,-93.35040283203125,-77.87494659423828,74.79293060302734
0,1027365,26.105188369750977,-114.13137817382812,-90.54764556884766,84.64307403564453
0,1027368,9.264893531799316,-11.918842315673828,47.51008605957031,-63.19482421875
0,1027369,-8.997798919677734,45.4793586730957,-0.22978661954402924,-90.56332397460938
0,1027372,-11.391969680786133,81.36347198486328,2.7126595973968506,61.04780578613281
0,1027373,-4.9841628074646,11.751042366027832,21.874250411987305,20.30187225341797
0,1027376,-8.444010734558105,5.749680995941162,0.9404206275939941,-21.028749465942383
0,1027377,-3.1385130882263184,-6.7294135093688965,-34.24072265625,43.46569061279297
0,1027380,-5.737209796905518,-47.54119873046875,-5.423371315002441,-27.957740783691406
0,1027381,-0.297934353351593,78.03307342529297,24.951616287231445,-3.039444923400879
0,1027384,24.120424270629883,-3.965968608856201,-9.970629692077637,16.427356719970703
0,1027385,5.783869743347168,-132.26022338867188,-14.744832038879395,-52.12132263183594
0,1027388,-11.527467727661133,6.769329071044922,-8.404109954833984,33.786067962646484
0,1027389,-1.4122123718261719,66.16710662841797,1.329208254814148,70.30853271484375
0,1027392,8.444804191589355,2.2799112796783447,24.65569496154785,-55.94148254394531
0,1027393,27.40013885498047,-3.583648920059204,9.254559516906738,-35.565242767333984
0,1027396,-13.864652633666992,30.65727996826172,-5.4886369705200195,-13.321916580200195
0,1027397,-29.095979690551758,-22.475664138793945,-4.5943684577941895,-24.417991638183594
0,1027400,13.429656982421875,-36.01738357543945,2.5603158473968506,79.16783905029297
0,1027401,5.086590766906738,40.942787170410156,-7.165735721588135,13.55099868774414
0,1027404,-5.802151679992676,19.073402404785156,-5.303321361541748,-34.037086486816406
0,1027405,11.768696784973145,-56.74277877807617,-1.9557770490646362,15.97192096710205
0,1027408,24.774873733520508,-27.981279373168945,-0.9552180767059326,-18.870641708374023
0,1027409,-27.301881790161133,57.13996124267578,18.134647369384766,-12.26911449432373
0,1027412,-44.64181900024414,15.937047958374023,8.452106475830078,25.51490592956543
0,1027413,31.44390869140625,-4.788381576538086,6.738336563110352,35.37147521972656
0,1027416,31.65576171875,28.935983657836914,-5.156518936157227,2.9448952674865723
0,1027417,-15.083163261413574,-40.449581146240234,-10.490002632141113,-16.354761123657227
0,1027420,-7.3218841552734375,-44.01565933227539,-11.62195873260498,-42.32851791381836
0,1027421,-17.8992977142334,65.466064453125,5.7432780265808105,-14.474509239196777
0,1027424,-2.2485809326171875,19.456748962402344,6.822127819061279,42.81418991088867
0,1027425,17.102373123168945,-60.30274963378906,-11.803849220275879,6.857729911804199
0,1027428,-16.57061004638672,-15.773863792419434,4.757896900177002,-20.41731834411621
0,1027429,13.760622024536133,11.478623390197754,-6.669707775115967,-26.646543502807617
0,1027432,-1.6519628763198853,28.067516326904297,2.3301427364349365,22.05512809753418
0,1027433,-9.306328773498535,15.280323028564453,-5.708198070526123,9.16634750366211
0,1027436,3.4404103755950928,-19.119184494018555,3.309481620788574,-33.94074630737305
0,1027437,-15.309955596923828,-47.40388488769531,15.703292846679688,52.13467025756836
0,1027440,19.205013275146484,27.8233585357666,-13.353703498840332,19.29026222229004
0,1027441,-9.304136276245117,85.4152603149414,12.889577865600586,-67.36041259765625
0,1027444,5.063998222351074,-46.65817642211914,0.8228973150253296,-23.047521591186523
0,1027445,31.178531646728516,-64.82270050048828,-24.514766693115234,40.125999450683594
0,1027448,-1.7856982946395874,11.763752937316895,9.604195594787598,37.792152404785156
0,1027449,14.715091705322266,46.58684539794922,14.142104148864746,-26.742490768432617
0,1027452,-17.91469955444336,34.26966094970703,-8.7427978515625,6.848471164703369
0,1027453,-24.975826263427734,-30.145355224609375,21.646507263183594,33.39704895019531
0,1027456,15.029587745666504,-0.2388526052236557,-8.595202445983887,-85.00972747802734
0,1027457,-2.0718398094177246,-39.647525787353516,-61.50159454345703,-30.57809829711914
0,1027460,12.558441162109375,-11.103018760681152,33.740142822265625,89.69496154785156
0,1027461,-15.417430877685547,93.0213851928711,46.13821029663086,5.6054816246032715
0,1027464,-20.050806045532227,-51.76535415649414,-46.93108367919922,-13.009286880493164
0,1027465,27.02054786682129,-77.74761962890625,-24.644046783447266,13.096144676208496
0,1027468,-4.648373603820801,29.701398849487305,23.09306526184082,-27.350299835205078
0,1027470,-18.940326690673828,32.647579193115234,23.825855255126953,8.65312671661377
0,1027472,-3.473724603652954,18.93313217163086,13.397701263427734,-2.3975155353546143
0,1027474,13.973093032836914,-0.7006585001945496,14.237196922302246,-29.270076751708984
0,1027477,7.821617603302002,-16.216873168945312,-20.191997528076172,13.930712699890137
0,1027478,-1.3297977447509766,-30.848230361938477,-37.9525146484375,0.20892922580242157
0,1027480,9.32726764678955,-10.375317573547363,17.426210403442383,19.824718475341797
0,1027482,-8.847161293029785,69.15865325927734,2.9892609119415283,10.503772735595703
0,1027484,-22.75352668762207,39.26961898803711,-9.998223304748535,-51.437129974365234
0,1027486,7.739109992980957,-102.80316925048828,8.168496131896973,13.94754409790039
0,1027488,29.209779739379883,3.5341269969940186,-7.6206231117248535,82.40088653564453
0,1027490,0.7616739273071289,91.83348083496094,16.525897979736328,13.734198570251465
0,1027492,-30.834117889404297,-32.105350494384766,10.1162748336792,-54.051143646240234
0,1027494,-9.55618953704834,-12.354262351989746,-10.240022659301758,-47.12398147583008
0,1027496,18.520185470581055,30.58910369873047,14.563743591308594,22.394428253173828
0,1027498,23.781763076782227,-66.81120300292969,-25.20237159729004,40.59449768066406
0,1027500,7.976630210876465,-39.39061737060547,-33.77750778198242,-26.781597137451172
0,1027502,-30.040002822875977,82.56999969482422,50.017154693603516,-30.67214584350586
0,1027504,-21.419981002807617,4.680822849273682,16.913204193115234,-8.260527610778809
0,1027506,-0.11968918889760971,-61.24908447265625,-66.72711944580078,-16.036901473999023
0,1027508,-8.15860366821289,11.0785551071167,24.251266479492188,-12.622426986694336
0,1027510,33.4041748046875,24.99842071533203,40.17853927612305,39.251285552978516
0,1027512,9.998289108276367,4.826045036315918,-31.562114715576172,11.122719764709473
0,1027514,-40.31082534790039,18.910511016845703,27.45447540283203,0.2352140247821808
0,1027516,49.614356994628906,19.039474487304688,-5.7600274085998535,58.36355972290039
0,1027518,22.2146053314209,-30.921445846557617,-30.081172943115234,5.6907124519348145
0,1027520,-31.742151260375977,-26.22296714782715,31.66059112548828,-63.24557113647461
0,1027522,-17.39646339416504,42.184669494628906,3.7101545333862305,-43.10026931762695
0,1027524,-28.319568634033203,-6.944305419921875,-7.764036178588867,75.4428939819336
0,1027526,48.2112922668457,-75.58367156982422,-11.171122550964355,-12.734586715698242
0,1027528,10.5681791305542,4.68613862991333,-11.715229988098145,-104.9764175415039
0,1027530,-28.403718948364258,61.85428237915039,-5.421464443206787,66.34325408935547
0,1027532,27.383541107177734,-8.625438690185547,-30.58344841003418,18.178674697875977
0,1027534,-35.495887756347656,-5.284360885620117,21.754867553710938,-8.169167518615723
0,1027536,-19.861953735351562,22.591135025024414,35.499473571777344,50.703773498535156
0,1027538,48.79732894897461,-35.13966751098633,0.22425571084022522,26.996980667114258
0,1027540,6.741927623748779,0.22596490383148193,22.048669815063477,34.596771240234375
0,1027542,-46.25647735595703,64.6409912109375,3.023468017578125,-100.90445709228516
0,1027544,-25.52434539794922,-19.000425338745117,-22.530000686645508,-85.89732360839844
0,1027546,46.47443389892578,-75.62393188476562,-46.525474548339844,106.1318359375
0,1027548,7.7540459632873535,27.91510009765625,-3.057908058166504,81.01013946533203
0,1027550,6.133741855621338,43.342529296875,59.38336944580078,-37.771209716796875
0,1027552,33.930667877197266,-31.727327346801758,-1.185739278793335,-64.02283477783203
0,1027554,-43.010581970214844,15.379935264587402,-26.59444808959961,-52.919708251953125
0,1027556,-22.81395721435547,27.63316535949707,-17.991283416748047,49.64760971069336
0,1027558,24.904157638549805,-53.94902420043945,-27.692556381225586,4.599360942840576
0,1027560,-0.35764700174331665,-10.773740768432617,37.94379425048828,-81.17813873291016
0,1027562,-32.49663543701172,38.10734939575195,55.35279846191406,51.951595306396484
0,1027564,0.0895063728094101,4.575694561004639,-29.170204162597656,44.71213912963867
0,1027566,52.753726959228516,-26.911449432373047,-1.3320415019989014,-9.629008293151855
0,1027568,11.829651832580566,-6.7857255935668945,29.704744338989258,0.8138668537139893
0,1027570,-33.39234161376953,47.48924255371094,-27.383975982666016,-33.98141860961914
0,1027572,-21.731348037719727,-5.699923515319824,-16.87373924255371,17.31760025024414
0,1027574,1.1685649156570435,-31.351028442382812,-1.5640738010406494,38.81867980957031
0,1027576,-0.9982038140296936,4.980352878570557,8.279000282287598,-26.863386154174805
0,1027578,3.063117504119873,-23.043867111206055,3.1255733966827393,-19.881214141845703
0,1027580,21.33952522277832,-21.528425216674805,-21.328533172607422,-2.9707746505737305
0,1027582,-13.294259071350098,66.67303466796875,3.668555974960327,-4.622465133666992
0,1027584,12.021183013916016,58.454689025878906,8.46351146697998,65.17747497558594
0,1027586,28.0294246673584,-93.0298843383789,-6.791474342346191,32.25737762451172
0,1027588,-25.84019660949707,-45.67951202392578,12.789917945861816,-38.392723083496094
0,1027590,-15.186543464660645,86.66632843017578,-5.850367069244385,9.693134307861328
0,1027592,3.48822021484375,-9.610061645507812,-53.38106155395508,13.962667465209961
0,1027594,-9.497462272644043,-8.494688987731934,33.15807342529297,-66.85082244873047
0,1027596,-20.210433959960938,17.991987228393555,84.39057159423828,-97.42684936523438
0,1027598,41.160343170166016,-42.350257873535156,-14.40014362335205,93.94352722167969
0,1027600,25.405029296875,16.57594871520996,-53.05009078979492,69.89552307128906
0,1027601,-39.787452697753906,70.59446716308594,-7.766017913818359,-82.4654541015625
0,1027604,-6.554409980773926,-33.13373565673828,15.29362678527832,29.801870346069336
0,1027605,4.837830543518066,-96.31250762939453,-8.700922012329102,19.763710021972656
0,1027608,44.47761154174805,51.28409194946289,37.897552490234375,-25.229557037353516
0,1027609,11.91472339630127,46.50638961791992,0.7153055667877197,0.02852531336247921
0,1027612,-58.52776336669922,-36.32717514038086,-66.15045928955078,-3.438091516494751
0,1027613,2.2388086318969727,-16.81688117980957,9.991667747497559,2.001333713531494
0,1027616,-1.2327302694320679,-5.480148792266846,24.439289093017578,-5.892753601074219
0,1027617,-5.602545261383057,-48.01320266723633,-16.672168731689453,-24.205093383789062
0,1027621,18.40068817138672,39.870975494384766,1.0990839004516602,11.357563972473145
0,1027622,-22.765974044799805,122.2083740234375,9.258166313171387,38.624122619628906
0,1027623,-2.2357277870178223,-69.42180633544922,7.359489440917969,-10.646434783935547
0,1027626,42.920448303222656,-64.55823516845703,17.351388931274414,41.58784484863281
0,1027627,5.3038811683654785,36.86094665527344,-15.052180290222168,5.527459144592285
0,1027630,-41.73884201049805,-4.912384510040283,-4.780710697174072,-64.8980484008789
0,1027631,0.9211811423301697,10.776201248168945,1.7333685159683228,24.687145233154297
0,1027634,35.53810119628906,30.763959884643555,10.391423225402832,-4.539388656616211
0,1027635,1.257480502128601,-20.175216674804688,3.3075649738311768,-24.947490692138672
0,1027638,-6.10263204574585,-42.24436569213867,-1.3534345626831055,52.750919342041016
0,1027639,8.397418975830078,-0.3450568616390228,12.212810516357422,-4.603527069091797
0,1027642,-57.41756820678711,32.249080657958984,-78.5896987915039,-78.94523620605469
0,1027643,-63.99407958984375,18.998401641845703,-35.68316650390625,-91.13009643554688
0,1027646,84.87776184082031,-39.51211929321289,113.56273651123047,65.08061218261719
0,1027647,93.32234954833984,8.07358169555664,72.64884185791016,175.48672485351562
0,1027650,-61.66493606567383,63.1756591796875,-90.74823760986328,-46.54203796386719
0,1027651,-46.47739791870117,-44.88565444946289,-90.72747039794922,-77.489501953125
0,1027654,15.92258071899414,-57.22227096557617,85.81785583496094,22.42341423034668
0,1027655,-34.53792190551758,33.3577880859375,73.9610824584961,-12.317048072814941
0,1027658,19.664216995239258,13.731791496276855,-61.325660705566406,10.453372955322266
0,1027659,72.7812728881836,-4.793591022491455,-27.81495475769043,45.025455474853516
0,1027662,-6.65543270111084,28.173147201538086,5.442215442657471,8.610392570495605
0,1027663,-38.60951614379883,20.851221084594727,-13.46633529663086,-37.582557678222656
0,1027666,12.31775951385498,-42.62958908081055,23.562973022460938,-2.4379405975341797
0,1027667,3.1281213760375977,-37.121883392333984,8.098535537719727,14.93289566040039
0,1027670,-27.143611907958984,29.638660430908203,-14.457502365112305,-101.44503784179688
0,1027671,-8.357638359069824,27.387266159057617,-2.9597268104553223,-18.074153900146484
0,1027674,28.74794578552246,-4.227189064025879,-8.19062328338623,186.891845703125
0,1027675,36.503761291503906,-7.222808837890625,30.02411460876465,-31.787614822387695
0,1027678,-56.4046745300293,-28.276199340820312,6.184209823608398,-109.96873474121094
0,1027679,-85.38239288330078,-36.5264778137207,-52.96432113647461,38.06792068481445
0,1027682,43.32489013671875,72.86683654785156,-34.98334503173828,-3.100374221801758
0,1027683,83.01502227783203,61.553131103515625,24.2944278717041,48.685001373291016
0,1027686,0.7384905815124512,-67.94213104248047,92.16213989257812,12.667844772338867
0,1027687,-36.96965789794922,-32.90962219238281,5.796026229858398,-117.52885437011719
0,1027690,-26.197099685668945,13.356551170349121,-75.24835205078125,48.590049743652344
0,1027691,20.49098777770996,-16.50420379638672,-0.9255585074424744,107.70648193359375
0,1027694,21.154312133789062,20.81834602355957,30.169282913208008,-87.90377807617188
0,1027695,-5.7535576820373535,32.46929168701172,12.446929931640625,10.941791534423828
0,1027698,33.65024185180664,-72.4307861328125,-2.3465826511383057,19.80115509033203
0,1027699,35.24235916137695,-27.258342742919922,13.313495635986328,-61.53863525390625
0,1027702,-70.5162124633789,105.52405548095703,-22.713619232177734,17.135961532592773
0,1027703,-78.54652404785156,47.51940155029297,-33.856163024902344,-24.412811279296875
0,1027706,71.09934997558594,-94.8577651977539,13.476852416992188,15.050895690917969
0,1027707,30.220260620117188,-27.976032257080078,-2.995511531829834,45.977500915527344
0,1027710,-67.2601089477539,74.01272583007812,23.843050003051758,-5.526067733764648
0,1027711,48.579105377197266,-5.755117893218994,9.493773460388184,9.791985511779785
0,1027714,40.66972351074219,19.034513473510742,-34.870330810546875,-38.35494613647461
0,1027715,-47.82362747192383,3.246161699295044,-18.662294387817383,-53.068016052246094
0,1027718,25.602855682373047,-74.56949615478516,22.131961822509766,109.1246109008789
0,1027719,25.29332733154297,-14.695108413696289,45.33015823364258,83.69268798828125
0,1027722,-65.63470458984375,63.58136749267578,13.517065048217773,-191.47152709960938
0,1027723,-41.35354232788086,43.12781524658203,-31.70537757873535,-126.85762786865234
0,1027726,21.65671157836914,-67.83000946044922,-63.30340576171875,189.6793670654297
0,1027727,16.690214157104492,-40.92158508300781,2.918593645095825,104.56854248046875
0,1027730,6.193251609802246,55.078433990478516,85.17617797851562,-55.27685546875
0,1027731,18.643962860107422,0.29600393772125244,12.69278335571289,-37.09785079956055
0,1027734,-17.804367065429688,-63.0678596496582,-83.16584777832031,-78.12332153320312
0,1027735,-17.534517288208008,22.350854873657227,1.4154046773910522,-1.3167078495025635
0,1027738,42.061649322509766,54.02809524536133,50.747066497802734,141.12193298339844
0,1027739,35.84194564819336,-35.31568145751953,-17.193092346191406,69.14950561523438
0,1027742,-36.296878814697266,13.298651695251465,-18.868165969848633,-143.09254455566406
0,1027743,-55.087890625,23.844396591186523,-20.100133895874023,-40.61882400512695
0,1027746,86.89089965820312,-60.389869689941406,43.2808723449707,134.3026580810547
0,1027747,48.761138916015625,7.304441928863525,86.86631774902344,-37.26139831542969
0,1027750,-125.29761505126953,37.02062225341797,-71.89862060546875,-203.43499755859375
0,1027751,-48.114322662353516,-2.9383389949798584,-87.93824768066406,9.443770408630371
0,1027754,68.07240295410156,17.75901985168457,35.33267593383789,166.08438110351562
0,1027755,32.543617248535156,12.773399353027344,40.17140579223633,-17.539003372192383
0,1027758,-41.131160736083984,-65.19986724853516,10.316866874694824,-10.477242469787598
0,1027759,19.253923416137695,-25.10688018798828,-22.59735107421875,77.7352523803711
0,1027762,34.62989044189453,72.2368392944336,-7.44712495803833,-30.664199829101562
0,1027763,-61.62820053100586,21.401159286499023,22.887353897094727,-41.99805450439453
0,1027766,21.582048416137695,-46.48170852661133,-4.176630973815918,-7.725273132324219
0,1027767,42.022003173828125,-26.22418212890625,-38.00729751586914,-37.20902633666992
0,1027770,-64.19857025146484,22.839651107788086,-2.990100383758545,39.40884017944336
0,1027771,-11.040584564208984,5.555003643035889,17.005125045776367,-11.579537391662598
0,1027774,21.237560272216797,21.6413516998291,-6.137660980224609,-34.87806701660156
0,1027775,-0.26491984724998474,3.20858097076416,25.20212173461914,98.06084442138672
0,1027780,10.64409351348877,-1.9586875438690186,14.830653190612793,-25.07192039489746
0,1027780,-0.45962274074554443,23.403125762939453,-17.0770320892334,-109.57984924316406
0,1027782,21.74677276611328,-36.225650787353516,19.899520874023438,28.638256072998047
0,1027784,26.162052154541016,-58.51557540893555,20.473506927490234,83.34423828125
0,1027786,-33.89250564575195,-7.356362342834473,-24.749069213867188,10.809762001037598
0,1027788,-27.107166290283203,56.91470718383789,-24.6152400970459,-49.69702911376953
0,1027790,53.19804382324219,25.944820404052734,-0.33450981974601746,-0.3968839943408966
0,1027792,10.241642951965332,5.616444110870361,6.638638496398926,56.326759338378906
0,1027794,-67.25823974609375,-14.385560035705566,1.6629761457443237,-5.782933712005615
0,1027796,-2.3358898162841797,-59.3788948059082,35.10793685913086,-12.708030700683594
0,1027798,57.847312927246094,-8.649374961853027,-1.0343904495239258,45.815120697021484
0,1027800,6.308590412139893,94.47913360595703,-64.08338928222656,-27.603200912475586
0,1027802,-21.889253616333008,73.42972564697266,10.13520336151123,-31.424100875854492
0,1027804,-27.017358779907227,-122.82804107666016,12.04408073425293,-20.671630859375
0,1027806,-39.93421173095703,-105.76873779296875,-0.6621225476264954,-17.738140106201172
0,1027808,44.62779998779297,60.36904525756836,9.578572273254395,-8.229867935180664
0,1027810,54.184120178222656,68.4394302368164,-17.64176368713379,-17.020174026489258
0,1027812,-28.072893142700195,39.19306182861328,14.678847312927246,85.9340591430664
0,1027814,0.07472475618124008,-29.959218978881836,17.071077346801758,34.604164123535156
0,1027816,-1.586902379989624,-33.5739860534668,13.753926277160645,-104.74481964111328
0,1027818,-78.98532104492188,-13.405435562133789,-88.86014556884766,-75.73953247070312
0,1027820,-11.879152297973633,16.123262405395508,-60.60507583618164,102.35675048828125
0,1027822,80.57637786865234,85.50000762939453,153.60313415527344,95.11612701416016
0,1027824,33.68387222290039,-89.49765014648438,95.53958129882812,-43.13528823852539
0,1027826,20.66045570373535,-87.65876770019531,-91.44075775146484,-1.4300726652145386
0,1027828,-39.724891662597656,121.79187774658203,-99.21732330322266,-121.00994873046875
0,1027830,-117.81022644042969,23.195899963378906,19.226287841796875,-92.79727935791016
0,1027832,58.15681838989258,-49.838714599609375,54.23204040527344,247.04063415527344
0,1027834,113.06854248046875,4.405848979949951,2.3908371925354004,87.56432342529297
0,1027836,-61.07379150390625,-35.01298141479492,-71.17691802978516,-153.27857971191406
0,1027838,-85.12530517578125,-62.335662841796875,-54.688880920410156,-169.13845825195312
0,1027840,-21.18224334716797,100.82342529296875,110.17172241210938,10.657160758972168
0,1027842,70.87762451171875,119.9666748046875,119.95481872558594,311.9468994140625
0,1027844,89.41039276123047,-132.11546325683594,-75.82107543945312,-4.352285385131836
0,1027846,-11.248641014099121,-83.40794372558594,-99.68257141113281,-204.86972045898438
0,1027848,-34.65215301513672,70.45085906982422,30.462377548217773,-34.84540939331055
0,1027850,-13.102527618408203,30.242435455322266,33.89620590209961,43.32622528076172
0,1027852,-10.171380043029785,16.680938720703125,9.846956253051758,98.88695526123047
0,1027854,8.411277770996094,21.987449645996094,47.527496337890625,-4.096473693847656
0,1027856,-6.183492183685303,-27.656051635742188,-15.227019309997559,-93.65985107421875
0,1027858,10.271964073181152,-68.81047821044922,-88.3857192993164,-20.504690170288086
0,1027860,16.246328353881836,63.134761810302734,30.880346298217773,63.99513244628906
0,1027862,-55.395835876464844,88.14781188964844,55.14596176147461,0.20655348896980286
0,1027864,9.112264633178711,-124.19242095947266,-71.06262969970703,-16.17949676513672
0,1027866,19.964374542236328,-69.07646179199219,-23.56544303894043,-0.9902448654174805
0,1027868,-34.56208801269531,92.96063995361328,43.115692138671875,21.153860092163086
0,1027870,23.878568649291992,41.76357650756836,-1.6163840293884277,72.3631591796875
0,1027872,2.5688300132751465,-1.3063825368881226,10.46497631072998,-79.23389434814453
0,1027874,-5.415832042694092,-30.83930206298828,18.679975509643555,-103.71612548828125
0,1027876,20.406808853149414,-56.3051872253418,-31.821325302124023,70.04145812988281
0,1027878,9.465350151062012,-26.253923416137695,-45.871097564697266,67.35479736328125
0,1027880,-13.049631118774414,47.91881561279297,53.87177658081055,-20.349227905273438
0,1027882,-8.421748161315918,87.9001693725586,95.03141784667969,-7.8144731521606445
0,1027884,45.896453857421875,-33.23994827270508,-88.29656219482422,105.43192291259766
0,1027886,-0.7065348029136658,-82.78304290771484,-99.06415557861328,-31.221437454223633
0,1027888,-112.83361053466797,-10.31849193572998,55.449283599853516,-317.7478942871094
0,1027890,-40.15071105957031,32.76688003540039,24.330242156982422,102.2030029296875
0,1027892,96.83959197998047,74.96598052978516,5.718474388122559,349.8623046875
0,1027894,67.7509765625,-0.2678987383842468,50.204593658447266,-146.55303955078125
0,1027896,29.74166488647461,-50.226470947265625,16.997655868530273,-86.55118560791016
0,1027898,-14.422562599182129,-10.97742748260498,-31.131532669067383,58.22822189331055
0,1027900,-84.11521911621094,-16.7198543548584,-30.935745239257812,-113.02684783935547
0,1027902,-26.246952056884766,41.64017105102539,-3.8686845302581787,-10.991604804992676
0,1027904,80.96712493896484,15.271795272827148,4.960501670837402,111.90939331054688
0,1027906,21.063915252685547,-35.366573333740234,18.288515090942383,-14.362780570983887
0,1027908,-141.66554260253906,34.171024322509766,4.251599311828613,-42.56044387817383
0,1027910,-37.99778747558594,-15.392248153686523,-79.2652359008789,123.5508041381836
0,1027911,132.82760620117188,-122.52100372314453,-46.17998123168945,7.208632946014404
0,1027914,37.94411849975586,43.63399124145508,92.63987731933594,-168.5725555419922
0,1027915,-41.557823181152344,141.4268035888672,67.07415771484375,-51.65547180175781
0,1027918,-14.584973335266113,-73.87586975097656,-24.428756713867188,105.22769165039062
0,1027919,12.237186431884766,-46.55470657348633,-12.844901084899902,45.644840240478516
0,1027922,7.946698188781738,114.48986053466797,-15.581778526306152,-20.571130752563477
0,1027923,-22.466777801513672,17.912654876708984,-17.631702423095703,-1.5188990831375122
0,1027926,11.449626922607422,-97.97522735595703,34.61589431762695,5.663903713226318
0,1027927,16.454561233520508,-8.535282135009766,37.9851188659668,-16.64223861694336
0,1027930,-35.44225311279297,45.93498611450195,-58.26710891723633,-146.79823303222656
0,1027931,0.047159623354673386,-7.066421985626221,-51.06574249267578,58.04167938232422
0,1027934,21.91079330444336,-2.0258617401123047,77.30341339111328,215.82211303710938
0,1027935,-25.347740173339844,-16.502456665039062,2.419461727142334,-136.93984985351562
0,1027938,-13.257344245910645,-67.43901824951172,-59.5966682434082,-73.8947525024414
0,1027939,22.13714027404785,-11.855443000793457,19.42295265197754,120.46936798095703
0,1027942,3.748518228530884,94.52118682861328,-15.088005065917969,13.253080368041992
0,1027943,-9.659619331359863,37.447486877441406,2.376905679702759,-33.97647476196289
0,1027946,26.665924072265625,-61.1244010925293,65.23271179199219,-22.97127342224121
0,1027947,31.717382431030273,-6.945114612579346,15.634486198425293,41.42351531982422
0,1027950,16.946138381958008,49.46905517578125,-40.05648422241211,15.142659187316895
0,1027953,-5.5985517501831055,18.546466827392578,-37.71490478515625,-5.648098945617676
0,1027954,-32.82527542114258,-9.924365997314453,5.033634662628174,40.230995178222656
0,1027955,-34.27460861206055,-28.103742599487305,9.192667007446289,-68.29521942138672
0,1027958,-45.44324493408203,-43.47931671142578,-20.49613380432129,-113.97700500488281
0,1027959,-11.830224990844727,-31.516510009765625,-6.479060649871826,33.18851089477539
0,1027962,37.93705368041992,64.22005462646484,12.574325561523438,86.42334747314453
0,1027963,42.75577163696289,60.61231994628906,1.7163591384887695,-59.1368293762207
0,1027966,21.61223030090332,-71.97956085205078,6.590059757232666,-53.47724533081055
0,1027967,-12.948930740356445,-40.31825256347656,32.345462799072266,134.39393615722656
0,1027970,-12.93513011932373,53.81425857543945,23.6021671295166,13.93299674987793
0,1027971,-18.82073402404785,10.895708084106445,-23.650415420532227,-119.8114013671875
0,1027974,6.587524890899658,-13.145283699035645,-3.1565325260162354,51.70772933959961
0,1027975,58.020816802978516,14.291295051574707,29.226818084716797,66.832763671875
0,1027978,-57.11145782470703,-51.91314697265625,-56.86257553100586,-101.53074645996094
0,1027979,-48.875057220458984,-15.122793197631836,-38.04510498046875,27.07117462158203
0,1027982,59.99027633666992,88.68803405761719,31.020050048828125,77.76750183105469
0,1027983,19.332965850830078,-0.6507397890090942,4.016017913818359,-2.937492609024048
0,1027986,-12.501982688903809,-79.59940338134766,11.227370262145996,-76.66414642333984
0,1027987,-37.15829086303711,8.111924171447754,23.356170654296875,-101.9523696899414
0,1027990,19.223230361938477,67.28733825683594,28.594696044921875,158.2589874267578
0,1027991,12.856514930725098,-20.171329498291016,-32.55000686645508,44.567405700683594
0,1027994,-42.08270263671875,-5.518794536590576,-33.15998840332031,-102.46870422363281
0,1027995,10.982551574707031,19.628740310668945,52.380401611328125,50.79856872558594
0,1027998,40.55198669433594,-67.9863510131836,-43.161407470703125,-5.653221607208252
0,1027999,6.776800155639648,-0.09940484911203384,-51.43402862548828,-47.899391174316406
0,1028002,-64.2861099243164,77.3372573852539,60.12416076660156,-53.59256362915039
0,1028003,10.234058380126953,5.995630741119385,41.87193298339844,-4.3547892570495605
0,1028006,97.61520385742188,-78.63179779052734,-26.498788833618164,137.39752197265625
0,1028007,-2.8845107555389404,13.010589599609375,-60.09130096435547,42.01156234741211
0,1028010,-104.43830108642578,78.5087890625,26.515762329101562,-120.32825469970703
0,1028011,-80.07487487792969,-33.06062316894531,20.53809928894043,-39.740447998046875
0,1028014,98.07756805419922,-6.900634288787842,-30.26576805114746,110.01782989501953
0,1028015,112.74779510498047,22.064517974853516,31.622838973999023,1.7424474954605103
0,1028018,-84.56315612792969,-78.34610748291016,11.318744659423828,-117.15296173095703
0,1028019,-36.86807632446289,-23.187894821166992,-6.1276021003723145,73.8512191772461
0,1028022,57.259010314941406,97.91709899902344,3.971245527267456,74.63829803466797
0,1028023,-7.377285003662109,11.717217445373535,-8.648764610290527,-156.86749267578125
0,1028026,-30.113826751708984,-78.52350616455078,-4.42249870300293,14.753084182739258
0,1028027,-17.725017547607422,20.705957412719727,1.1468082666397095,108.35350799560547
0,1028030,30.011539459228516,52.071014404296875,4.310920238494873,-23.451541900634766
0,1028031,39.75250244140625,-41.107643127441406,-24.01773452758789,-17.944337844848633
0,1028034,-36.18642044067383,-23.71574592590332,-0.899459183216095,-71.28095245361328
0,1028035,-12.450526237487793,26.537235260009766,20.959667205810547,34.411861419677734
0,1028038,79.61360931396484,-10.897229194641113,39.341552734375,142.4102325439453
0,1028039,-30.59409523010254,-14.85698413848877,25.46664047241211,-86.84819030761719
0,1028042,-165.16636657714844,13.614689826965332,-81.9765625,-156.2431640625
0,1028043,-0.05027573183178902,24.29619598388672,-22.330934524536133,102.26712036132812
0,1028046,186.4310302734375,-33.52207565307617,66.95848846435547,81.13212585449219
0,1028047,50.052589416503906,-12.072010040283203,-13.327399253845215,-38.08340072631836
0,1028050,-118.8541488647461,34.62239074707031,-52.581390380859375,-10.82204818725586
0,1028051,-39.99463653564453,-18.557355880737305,-7.263397216796875,4.456242561340332
0,1028054,42.68457794189453,34.801979064941406,45.412681579589844,-7.329143047332764
0,1028055,-6.843019485473633,8.336275100708008,13.38595199584961,30.950593948364258
0,1028058,13.210954666137695,-51.99741744995117,-16.588655471801758,41.54174041748047
0,1028059,29.82448387145996,29.48748207092285,5.1313676834106445,-80.79393005371094
0,1028062,-35.77987289428711,62.742637634277344,-9.310208320617676,-64.05874633789062
0,1028063,-5.398456573486328,-12.358301162719727,3.4652750492095947,74.94439697265625
0,1028066,34.466670989990234,-70.50959777832031,20.073007583618164,63.96770477294922
0,1028067,-4.755961894989014,-20.437545776367188,-2.477370500564575,-63.45286178588867
0,1028070,-78.22257232666016,17.991872787475586,-20.2291316986084,-79.76544952392578
0,1028071,-25.5025691986084,-0.28086885809898376,-32.88466262817383,-27.837200164794922
0,1028074,103.05541229248047,26.92578125,23.05136489868164,141.01629638671875
0,1028075,52.166297912597656,22.84665298461914,81.4004135131836,111.6380844116211
0,1028078,-86.3666763305664,-50.100746154785156,-30.08826446533203,-233.11619567871094
0,1028079,-62.00018310546875,9.121542930603027,-95.81991577148438,-70.64842224121094
0,1028082,47.02326965332031,47.907283782958984,4.129729747772217,204.0574951171875
0,1028083,69.04884338378906,-26.596660614013672,72.53620147705078,35.474151611328125
0,1028086,21.877164840698242,-48.196407318115234,31.555776596069336,-39.515716552734375
0,1028087,-81.33243560791016,-27.25959014892578,-36.4868049621582,-99.6563491821289
0,1028090,-45.97677993774414,69.07689666748047,-32.923240661621094,38.14139175415039
0,1028091,55.483943939208984,37.04460906982422,3.052107810974121,215.3582305908203
0,1028094,27.723148345947266,-22.286226272583008,29.87650489807129,-194.2539825439453
0,1028095,-9.253461837768555,0.1275789737701416,12.56387710571289,-235.91995239257812
0,1028098,4.045083045959473,-69.14190673828125,-63.63323974609375,229.09451293945312
0,1028099,-18.453857421875,10.779918670654297,-9.689388275146484,115.88788604736328
0,1028102,-15.867365837097168,94.56624603271484,58.08934783935547,-44.246883392333984
0,1028103,45.780311584472656,-41.19496536254883,-2.699644088745117,41.74559783935547
0,1028106,-1.0335370302200317,-92.19357299804688,-3.458904504776001,-165.73397827148438
0,1028108,-40.21591567993164,48.25540542602539,9.503209114074707,-84.39453125
0,1028110,-9.711523056030273,66.763671875,-27.35887336730957,154.66236877441406
0,1028112,26.954526901245117,-19.2342586517334,19.601547241210938,17.75518226623535
0,1028114,27.53506851196289,35.2806282043457,78.8701400756836,-11.792984008789062
0,1028116,-26.596099853515625,-9.914405822753906,-39.852867126464844,26.08524513244629
0,1028118,15.346354484558105,-96.18279266357422,-101.11050415039062,-132.3740997314453
0,1028120,3.0457770824432373,28.4698543548584,28.124204635620117,-46.81928253173828
0,1028121,-59.40692138671875,79.14836883544922,63.211524963378906,156.00511169433594
0,1028124,10.519976615905762,-48.41611862182617,-24.363550186157227,27.978046417236328
0,1028125,38.74696731567383,-38.7154541015625,-39.95680236816406,-16.67485809326172
0,1028128,-1.2104718685150146,32.030208587646484,41.06098556518555,-11.421122550964355
0,1028129,-17.731332778930664,1.2185144424438477,33.76335906982422,-120.05476379394531
0,1028132,3.5542185306549072,-3.617845058441162,-64.3098373413086,29.454683303833008
0,1028133,10.23770523071289,-1.8453744649887085,-30.599313735961914,117.251220703125
0,1028136,11.369810104370117,12.074711799621582,54.01742935180664,1.8406059741973877
0,1028137,8.148584365844727,-7.173179626464844,10.880406379699707,0.3547073006629944
0,1028141,-56.168601989746094,-17.863168716430664,-7.174734115600586,-27.34834098815918
0,1028142,-10.063207626342773,27.594900131225586,-0.7351537346839905,14.170083999633789
0,1028143,72.66348266601562,6.765717029571533,-20.019630432128906,34.29200744628906
0,1028146,4.741549491882324,-52.35613250732422,-3.41536283493042,-125.04998779296875
0,1028147,-50.51649475097656,-22.60395622253418,3.419581651687622,-57.1076545715332
0,1028150,12.820701599121094,79.34281158447266,31.080259323120117,118.70314025878906
0,1028151,35.53883743286133,15.056010246276855,-5.79970645904541,39.945098876953125
0,1028154,-33.885032653808594,-49.028072357177734,-33.847312927246094,-97.6951675415039
0,1028155,-26.219615936279297,7.044948101043701,11.778484344482422,63.78212356567383
0,1028158,15.668184280395508,-36.245887756347656,6.924304962158203,25.244285583496094
0,1028159,-11.888972282409668,17.328798294067383,7.273962020874023,-223.22970581054688
0,1028162,-11.853312492370605,95.82746124267578,27.050405502319336,126.51518249511719
0,1028163,28.467239379882812,-33.03407287597656,-25.325035095214844,228.41119384765625
0,1028166,38.682552337646484,-80.36576843261719,-41.39146041870117,-119.05841827392578
0,1028167,-12.180571556091309,9.662827491760254,21.21523094177246,-92.01262664794922
0,1028170,-51.18016815185547,34.82230758666992,26.855031967163086,17.999053955078125
0,1028171,3.720188617706299,18.592809677124023,12.821372032165527,45.54607009887695
0,1028174,25.61553192138672,21.213031768798828,5.35349702835083,21.332931518554688
0,1028175,15.186806678771973,-14.987872123718262,1.9380701780319214,-59.46841812133789
0,1028178,25.633121490478516,-79.30784606933594,-35.577823638916016,27.906301498413086
0,1028179,-14.591151237487793,36.26777648925781,-20.255281448364258,15.405014991760254
0,1028182,-27.646032333374023,78.77690887451172,12.158590316772461,-109.39340209960938
0,1028183,-22.730419158935547,-75.38378143310547,-17.572919845581055,34.38578796386719
0,1028186,15.749123573303223,-51.64835739135742,13.023675918579102,84.22319030761719
0,1028187,34.054786682128906,34.50796127319336,4.124655723571777,-27.78274917602539
0,1028190,-26.054515838623047,33.98672103881836,18.576841354370117,-46.5111198425293
0,1028191,-14.99152660369873,4.311995029449463,28.882661819458008,46.27302169799805
0,1028194,0.39401775598526,14.384103775024414,-26.97080421447754,3.2034952640533447
0,1028195,6.721562385559082,22.144716262817383,-11.814301490783691,-161.48855590820312
0,1028198,13.025503158569336,-63.87907028198242,-15.480854988098145,59.80986785888672
0,1028199,5.332359790802002,-29.12874412536621,36.3849983215332,170.0051727294922
0,1028202,-8.016032218933105,69.70980072021484,21.484865188598633,-53.46840286254883
0,1028203,-11.230059623718262,8.4496431350708,-55.37870788574219,3.9704501628875732
0,1028206,24.714025497436523,-59.45094680786133,0.4603123962879181,50.21036148071289
0,1028207,-17.882640838623047,-16.61185646057129,6.612931251525879,-132.1392822265625
0,1028210,-34.01668930053711,42.652099609375,-0.450033575296402,-31.83951759338379
0,1028211,31.869714736938477,25.468412399291992,16.338497161865234,128.69850158691406
0,1028214,25.361373901367188,20.520097732543945,11.05155086517334,-5.824891567230225
0,1028215,-22.348438262939453,-20.380191802978516,-9.906380653381348,-21.31264305114746
0,1028218,-0.5653775930404663,-88.40023040771484,-17.852216720581055,32.21065139770508
0,1028219,17.780057907104492,40.459041595458984,-10.098859786987305,-24.68732261657715
0,1028222,-10.015218734741211,101.17054748535156,16.521724700927734,-85.2906265258789
0,1028223,19.788724899291992,-28.56123924255371,51.19334030151367,-64.33934020996094
0,1028226,0.4833276569843292,-71.3683853149414,3.798961639404297,140.5880126953125
0,1028227,-39.36598587036133,-26.303571701049805,-43.2386360168457,78.49034118652344
0,1028230,14.313251495361328,18.657550811767578,-25.917875289916992,-132.7525634765625
0,1028231,28.649517059326172,59.111637115478516,-1.7915509939193726,-0.5739511847496033
0,1028234,-29.574474334716797,0.17929397523403168,3.976897954940796,47.56964874267578
0,1028235,-34.064720153808594,-70.19833374023438,11.044046401977539,5.600794315338135
0,1028238,32.56767272949219,5.535026550292969,8.352683067321777,-6.971404552459717
0,1028239,17.341384887695312,57.49775314331055,-0.05058176442980766,-32.502296447753906
0,1028242,-37.627498626708984,33.3045539855957,-19.528766632080078,27.06515121459961
0,1028243,6.622938632965088,-53.332244873046875,-21.458072662353516,11.463057518005371
0,1028246,22.317195892333984,-46.41749954223633,25.33542251586914,-4.55013370513916
0,1028247,0.6379523277282715,71.1778335571289,23.348560333251953,-4.501504421234131
0,1028250,17.119197845458984,-12.454583168029785,4.062902450561523,-8.802299499511719
0,1028251,-34.17955017089844,-49.460411071777344,-5.302631378173828,-6.014796257019043
0,1028254,-35.49272537231445,42.51335525512695,-7.138693809509277,-8.668119430541992
0,1028255,42.53998947143555,-19.602304458618164,-5.2009663581848145,7.61909294128418
0,1028258,28.976160049438477,-35.094383239746094,-26.44562530517578,-20.500879287719727
0,1028259,-21.45954704284668,49.221492767333984,12.674287796020508,-10.277008056640625
0,1028262,-1.575406551361084,55.18754577636719,51.455108642578125,83.50223541259766
0,1028263,8.632596015930176,-23.65535545349121,-9.194706916809082,22.389188766479492
0,1028266,-24.745088577270508,-85.99896240234375,-37.839271545410156,-101.39289093017578
0,1028267,-10.491791725158691,26.266799926757812,-5.372415542602539,18.34357261657715
0,1028270,24.21429443359375,90.60018920898438,7.177709102630615,34.654541015625
0,1028271,16.393043518066406,-30.2050838470459,15.189949989318848,-46.48466873168945
0,1028274,-11.141011238098145,-26.692529678344727,8.07200813293457,22.520648956298828
0,1028275,-7.387417793273926,13.118185043334961,5.394127368927002,40.90516662597656
0,1028278,7.131483554840088,-62.728816986083984,-23.866291046142578,-33.18597412109375
0,1028279,-4.798369884490967,0.6197577714920044,-2.194275379180908,-30.769006729125977
0,1028282,-10.643218040466309,69.48033905029297,19.278188705444336,48.52628707885742
0,1028283,-0.011762036010622978,-7.826226234436035,-40.53562927246094,7.601902008056641
0,1028286,19.753780364990234,-42.51465606689453,-1.9126399755477905,-30.193984985351562
0,1028287,16.559978485107422,16.22083282470703,43.665924072265625,32.1991081237793
0,1028290,-39.10726547241211,23.681032180786133,16.851734161376953,-49.683807373046875
0,1028291,-15.163686752319336,-12.621560096740723,-27.708072662353516,-92.54408264160156
0,1028294,16.046966552734375,10.011664390563965,-28.59638786315918,109.92886352539062
0,1028295,2.253852605819702,-32.59973907470703,35.14057540893555,97.35648345947266
0,1028298,32.25838088989258,-20.88452911376953,28.58378791809082,-46.88191604614258
0,1028299,-1.4946770668029785,47.467681884765625,-16.485490798950195,-20.972610473632812
0,1028302,-39.39422607421875,36.439125061035156,-18.17716407775879,-99.4004135131836
0,1028303,-0.4896245002746582,-18.128128051757812,1.710260033607483,-55.213130950927734
0,1028306,23.76702880859375,-52.23731231689453,2.668032169342041,134.02508544921875
0,1028307,11.907238006591797,26.010881423950195,-5.275717258453369,40.97023391723633
0,1028310,-9.043023109436035,4.858170032501221,2.0825350284576416,-2.07854962348938
0,1028311,-15.306066513061523,-36.47406005859375,6.059095859527588,17.516481399536133
0,1028314,-7.607015609741211,51.26520538330078,-13.889259338378906,-69.02252960205078
0,1028315,-1.809673547744751,-5.069321155548096,-21.840015411376953,-35.10431671142578
0,1028318,30.255535125732422,-60.48991775512695,-1.8412631750106812,8.100475311279297
0,1028319,7.20844841003418,31.605571746826172,19.723888397216797,34.707515716552734
0,1028322,-42.18018341064453,41.44124221801758,10.643180847167969,8.247479438781738
0,1028323,-1.1568083763122559,-10.167143821716309,-33.439964294433594,-0.7572401762008667
0,1028326,41.8602180480957,-44.05440139770508,6.083337306976318,17.7048282623291
0,1028327,-3.5945799350738525,10.428609848022461,58.87083435058594,-58.834571838378906
0,1028330,-10.701827049255371,61.907875061035156,7.417444705963135,9.368608474731445
0,1028332,35.59810256958008,-10.419292449951172,-51.63095474243164,30.788158416748047
0,1028334,-60.602256774902344,-17.239713668823242,-16.430681228637695,-55.752750396728516
0,1028336,-58.83887481689453,-41.15813064575195,27.444618225097656,35.79832077026367
0,1028338,73.66256713867188,-37.72639465332031,5.771984100341797,70.04692077636719
0,1028340,29.033222198486328,62.1973876953125,3.5270025730133057,-41.263954162597656
0,1028343,-29.07893943786621,46.581939697265625,10.766119956970215,-55.6673698425293
0,1028344,20.637958526611328,-42.71002197265625,-14.082612037658691,3.1969845294952393
0,1028345,10.691953659057617,-30.047767639160156,-13.095017433166504,20.661422729492188
0,1028348,-15.52380084991455,23.02663230895996,-2.0437183380126953,37.48072814941406
0,1028349,-2.0708250999450684,6.941734790802002,5.03715705871582,3.073662042617798
0,1028352,-7.441427707672119,3.980623245239258,8.204987525939941,-60.34640884399414
0,1028353,7.247673988342285,22.735153198242188,-8.932026863098145,62.0587043762207
0,1028356,-7.242690563201904,-47.846092224121094,0.040263909846544266,4.028860569000244
0,1028357,3.4886996746063232,-60.47136688232422,-9.456550598144531,-150.97158813476562
0,1028360,5.186378479003906,116.34626770019531,10.013405799865723,83.2080307006836
0,1028361,-20.878549575805664,74.23179626464844,20.241230010986328,99.52422332763672
0,1028364,-11.281294822692871,-132.7227783203125,-7.568613529205322,-45.85810089111328
0,1028365,-6.109844207763672,-60.36659240722656,6.355980396270752,39.230342864990234
0,1028368,12.977004051208496,54.90277862548828,-43.47715759277344,-8.034870147705078
0,1028369,-12.019448280334473,25.028120040893555,-32.52197265625,-64.41051483154297
0,1028372,1.6788984537124634,33.66010284423828,89.29027557373047,19.26426124572754
0,1028373,33.65618133544922,-14.269298553466797,12.504316329956055,10.484646797180176
0,1028376,16.66153907775879,-54.126670837402344,-54.947776794433594,-16.95845603942871
0,1028377,12.632641792297363,1.1893744468688965,13.950793266296387,-2.88970947265625
0,1028380,-25.571760177612305,47.578914642333984,2.89275860786438,16.708345413208008
0,1028381,-28.816307067871094,67.28825378417969,25.87451171875,27.479583740234375
0,1028384,10.439327239990234,-80.36172485351562,-17.19017219543457,-38.72201919555664
0,1028385,14.086145401000977,-96.67020416259766,-40.903602600097656,-27.674001693725586
0,1028388,0.7459315061569214,73.32328033447266,32.09724044799805,-8.794215202331543
0,1028389,-2.6651625633239746,66.92491149902344,28.1887264251709,6.149187088012695
0,1028392,2.627633571624756,-9.142401695251465,-27.97579574584961,18.93239974975586
0,1028393,-17.814529418945312,-16.089561462402344,-27.881027221679688,4.83197546005249
0,1028396,-14.897523880004883,-18.154850006103516,30.29224967956543,37.948238372802734
0,1028397,24.401575088500977,-37.99810791015625,-11.934223175048828,-28.24531364440918
0,1028400,-2.899714469909668,34.6744270324707,-9.621110916137695,-10.41379451751709
0,1028401,-19.069379806518555,50.11868667602539,37.037513732910156,46.257415771484375
0,1028404,23.42532730102539,-57.77713394165039,-23.66799545288086,-57.901771545410156
0,1028405,8.132257461547852,-29.12419891357422,-9.917335510253906,-35.139286041259766
0,1028408,-6.678110599517822,40.11738204956055,31.76633071899414,89.98798370361328
0,1028409,-8.126350402832031,7.808962821960449,-27.01784324645996,9.279053688049316
0,1028412,6.2135725021362305,14.4390287399292,-15.397233009338379,-112.49566650390625
0,1028413,32.59034729003906,0.3369712233543396,33.0697021484375,-10.084444046020508
0,1028416,-14.510273933410645,-45.99178695678711,-15.154757499694824,114.6867904663086
0,1028417,-2.9819746017456055,-23.53045654296875,-14.874176025390625,34.8416633605957
0,1028420,8.301852226257324,54.72310256958008,41.154090881347656,-58.8336067199707
0,1028421,-63.11962127685547,61.207359313964844,7.506185054779053,-18.016172409057617
0,1028424,-0.017723171040415764,-72.32646942138672,-34.88676071166992,33.441139221191406
0,1028425,46.151737213134766,-48.64983367919922,7.038536071777344,9.423494338989258
0,1028428,-16.521484375,46.864593505859375,14.36996078491211,-56.03874206542969
0,1028429,5.265089511871338,21.479280471801758,-9.859103202819824,-165.0502166748047
0,1028432,15.454391479492188,12.992012977600098,16.30767059326172,78.11354064941406
0,1028433,-13.251546859741211,-28.534034729003906,-11.779107093811035,284.3438720703125
0,1028436,-2.5952911376953125,-45.68782043457031,-55.180240631103516,-94.17720031738281
0,1028437,29.266319274902344,-4.065875053405762,10.140325546264648,-120.48326873779297
0,1028440,-14.990828514099121,36.964900970458984,37.41762924194336,16.992937088012695
0,1028441,-36.53928756713867,51.640464782714844,10.751914024353027,-39.77271270751953
0,1028444,46.009521484375,-20.842844009399414,23.504528045654297,48.826175689697266
0,1028445,-3.900177478790283,-46.50004196166992,-27.549015045166016,30.3647403717041
0,1028448,-41.27063751220703,31.448993682861328,-23.921964645385742,38.753692626953125
0,1028449,4.984427452087402,41.519676208496094,17.894887924194336,40.30155944824219
0,1028452,-6.374258041381836,-53.29222106933594,-27.63617515563965,-51.251102447509766
0,1028453,16.837512969970703,-47.005680084228516,3.0349831581115723,-61.8353271484375
0,1028456,23.70502471923828,37.7142333984375,30.86495590209961,-110.75320434570312
0,1028457,9.63724422454834,-7.7366790771484375,-5.697387218475342,40.479862213134766
0,1028460,-10.327434539794922,23.70980453491211,11.01778793334961,179.01210021972656
0,1028461,-29.070510864257812,91.72872924804688,4.330659866333008,-46.19297790527344
0,1028464,17.843894958496094,-72.44725799560547,-27.10022735595703,-101.0938491821289
0,1028465,31.238182067871094,-96.76812744140625,-0.741165041923523,24.740108489990234
0,1028468,-21.739046096801758,58.28390121459961,17.74005699157715,47.071800231933594
0,1028469,-21.170753479003906,55.646915435791016,7.953091144561768,-24.533533096313477
0,1028472,23.309171676635742,-20.863069534301758,6.590479373931885,-11.433256149291992
0,1028473,-11.80077838897705,-47.11094665527344,-12.51519775390625,38.049129486083984
0,1028476,-26.979496002197266,16.76392364501953,-6.497187614440918,-22.944416046142578
0,1028477,28.240198135375977,28.03829574584961,-0.37504953145980835,1.6759374141693115
0,1028480,-12.547239303588867,5.159907817840576,-24.984983444213867,-29.686676025390625
0,1028481,-28.57412338256836,33.77876663208008,13.049186706542969,-59.81715774536133
0,1028484,48.022884368896484,-58.95481491088867,12.68752384185791,98.97037506103516
0,1028485,41.19136428833008,-67.3015365600586,-11.73525333404541,94.21040344238281
0,1028488,-18.322002410888672,68.98667907714844,11.121678352355957,-63.93675231933594
0,1028489,-43.44150924682617,36.80668258666992,-6.87160062789917,-51.55730438232422
0,1028492,-8.486388206481934,-22.12620735168457,-7.590758323669434,11.319271087646484
0,1028493,39.544925689697266,17.81679916381836,9.333605766296387,16.546031951904297
0,1028496,-11.493515014648438,-23.309162139892578,3.792778730392456,-24.790864944458008
0,1028497,-35.735992431640625,-55.14320755004883,-2.733595609664917,-19.980077743530273
0,1028500,2.655203104019165,49.88318634033203,12.990784645080566,33.3654670715332
0,1028501,-3.1601221561431885,65.57926177978516,8.897482872009277,-46.93375015258789
0,1028504,28.256399154663086,-70.2297134399414,-45.97903823852539,24.638023376464844
0,1028505,2.8825830668210983e-05,-38.30398941040039,-11.20716667175293,93.81809997558594
0,1028508,-17.093538284301758,42.57883071899414,51.83417510986328,-98.7051010131836
0,1028509,26.742103576660156,4.082906723022461,-9.261215209960938,-49.848976135253906
0,1028512,-9.65507984161377,23.248779296875,-6.605671405792236,91.9139175415039
0,1028513,-0.16694526374340057,4.867585182189941,9.990422248840332,6.708995342254639
0,1028516,-0.6628347039222717,-28.65086555480957,-14.326387405395508,-22.039875030517578
0,1028517,16.92207908630371,-28.901485443115234,8.566595077514648,-7.10084867477417
0,1028520,19.45291519165039,26.518444061279297,-3.7370870113372803,-15.552999496459961
0,1028521,-58.00519561767578,38.89701843261719,9.287123680114746,40.96516036987305
0,1028524,17.902725219726562,-83.8054428100586,-15.983189582824707,21.666587829589844
0,1028525,19.802093505859375,-34.62015914916992,-27.31201171875,-72.91869354248047
0,1028528,-26.878612518310547,99.08011627197266,43.57886505126953,-26.189701080322266
0,1028530,41.641448974609375,37.14883804321289,40.2276725769043,68.23477172851562
0,1028532,-18.7091007232666,-67.09735107421875,-41.06126022338867,-0.6627177596092224
0,1028534,-28.606143951416016,-6.834267616271973,-24.440378189086914,-3.2386927604675293
0,1028536,6.8042378425598145,20.011659622192383,25.96575164794922,3.4915826320648193
0,1028538,12.868629455566406,-43.08935546875,-24.351900100708008,-77.57315826416016
0,1028540,6.8816237449646,38.53866958618164,0.7481858134269714,50.97984313964844
0,1028542,-39.599544525146484,63.793434143066406,31.158252716064453,84.16019439697266
0,1028543,11.272856712341309,-44.28213882446289,4.408723831176758,-55.14981460571289
0,1028546,32.40361022949219,-59.85191345214844,-32.560508728027344,-8.782302856445312
0,1028547,-14.006381034851074,1.6988729238510132,-76.16521453857422,-38.4554443359375
0,1028550,-2.8488330841064453,50.29169464111328,63.59719467163086,-38.725730895996094
0,1028551,17.544530868530273,6.821845054626465,104.518310546875,100.09639739990234
0,1028554,-21.62064552307129,-18.647464752197266,-55.336456298828125,14.712998390197754
0,1028555,1.8774502277374268,20.30518913269043,-32.34026336669922,-45.83246994018555
0,1028558,24.750118255615234,-7.307355880737305,3.298327684402466,27.462512969970703
0,1028560,-21.769468307495117,-1.688403844833374,-6.100738048553467,10.437800407409668
0,1028561,-2.449648380279541,40.45723342895508,17.887235641479492,-73.7852783203125
0,1028564,29.596939086914062,-30.551706314086914,6.924698352813721,3.447277307510376
0,1028565,-27.09111785888672,-59.53029251098633,-15.488801002502441,34.38085174560547
0,1028568,-26.31281280517578,18.726032257080078,-13.94719409942627,-37.26300811767578
0,1028569,25.80698585510254,48.50566482543945,33.12493896484375,32.99879837036133
0,1028572,-3.4023780822753906,20.187578201293945,0.5799112915992737,-19.65545082092285
0,1028573,5.560056209564209,-49.054988861083984,-28.023944854736328,-31.293228149414062
0,1028576,5.122270584106445,-54.14373779296875,-6.4488019943237305,116.29678344726562
0,1028577,-5.311971664428711,8.616759300231934,-17.99849510192871,56.075721740722656
0,1028580,-5.53971529006958,36.92951965332031,7.256567478179932,-94.2431411743164
0,1028581,-15.921722412109375,48.37446594238281,54.25986862182617,-58.167118072509766
0,1028584,14.336393356323242,-28.31308937072754,8.925995826721191,-9.530959129333496
0,1028585,24.508560180664062,-47.95501708984375,-44.7864875793457,-16.391408920288086
0,1028588,-1.3929344415664673,52.04762649536133,-1.3268489837646484,76.35417175292969
0,1028589,-27.672901153564453,-5.307774066925049,-10.029878616333008,49.05755615234375
0,1028592,9.527532577514648,-44.609649658203125,-11.889801025390625,-78.68585968017578
0,1028593,16.501245498657227,29.860971450805664,31.262239456176758,-0.025117607787251472
0,1028596,-9.197818756103516,13.906569480895996,-5.833601474761963,27.750957489013672
0,1028597,2.1861727237701416,-40.404518127441406,-10.61872673034668,-8.378535270690918
0,1028600,-15.562516212463379,16.20942497253418,24.386587142944336,-5.988959312438965
0,1028601,1.4278132915496826,66.18534088134766,6.969730377197266,-57.53195571899414
0,1028604,21.566226959228516,-50.395050048828125,-16.31220245361328,27.928857803344727
0,1028605,7.834449291229248,-26.725969314575195,-6.484853267669678,71.07105255126953
0,1028608,-5.201311111450195,65.66637420654297,17.32439422607422,-10.168421745300293
0,1028609,-19.50551414489746,-9.10142707824707,-0.40144258737564087,-9.612847328186035
0,1028612,-20.359477996826172,-14.864604949951172,-29.120975494384766,-15.992196083068848
0,1028613,-16.486583709716797,1.5714893341064453,-9.650299072265625,-34.77467727661133
0,1028616,36.68257522583008,-25.51666259765625,36.38054656982422,20.83864402770996
0,1028617,48.55067443847656,-15.168880462646484,22.534433364868164,50.17095947265625
0,1028620,-22.80808448791504,29.298782348632812,-17.955965042114258,-40.18828201293945
0,1028621,-35.740516662597656,59.659278869628906,6.992395877838135,-70.79686737060547
0,1028624,1.6964426040649414,-63.36222839355469,-7.663841724395752,19.578889846801758
0,1028625,8.388771057128906,-71.75704956054688,-45.060794830322266,86.64633178710938
0,1028628,-5.921505928039551,73.69256591796875,2.7910983562469482,-8.214912414550781
0,1028629,-3.2767105102539062,22.027128219604492,68.41448211669922,-72.85099792480469
0,1028632,0.9933122992515564,-23.05769157409668,1.3275517225265503,65.03486633300781
0,1028633,0.646552324295044,15.899625778198242,-57.51830291748047,49.953575134277344
0,1028636,14.061925888061523,-22.348215103149414,3.5501441955566406,-61.576942443847656
0,1028637,17.308019638061523,-23.196718215942383,11.228547096252441,-36.57817077636719
0,1028640,-23.4786319732666,31.8597469329834,5.161167144775391,32.576942443847656
0,1028641,-17.518768310546875,24.936338424682617,12.327378273010254,-17.102306365966797
0,1028644,24.142263412475586,-54.92493438720703,-13.938632011413574,-51.61186981201172
0,1028645,8.159053802490234,-22.98016357421875,-4.360797882080078,84.69532775878906
0,1028648,-1.2190918922424316,70.90805053710938,10.270319938659668,40.43074035644531
0,1028649,7.311399459838867,35.89467239379883,6.1451263427734375,-88.1579818725586
0,1028652,-3.4196019172668457,-32.733726501464844,17.295757293701172,4.218894004821777
0,1028653,-25.613948822021484,-41.40260314941406,-35.22343063354492,29.07001495361328
0,1028656,-0.18434816598892212,-13.837759017944336,-41.161251068115234,-43.7451171875
0,1028657,21.572065353393555,-14.212959289550781,47.91231918334961,12.56663990020752
0,1028660,-24.13441276550293,38.492794036865234,23.109880447387695,33.131900787353516
0,1028661,-1.6857061386108398,82.78107452392578,-23.989055633544922,-57.4627685546875
0,1028664,22.787065505981445,-68.33509063720703,-20.47118377685547,32.153648376464844
0,1028665,-3.849134922027588,-80.01219940185547,-2.3895881175994873,123.4019546508789
0,1028668,2.9145777225494385,63.304298400878906,37.577720642089844,-56.63264846801758
0,1028669,-3.05385684967041,24.99416160583496,-5.576931476593018,-91.98763275146484
0,1028672,-32.46895980834961,-36.979217529296875,-30.58060073852539,1.1375641822814941
0,1028673,-3.4173245429992676,19.007034301757812,15.84859848022461,1.8252344131469727
0,1028676,50.74604034423828,35.84299850463867,8.602557182312012,33.15358352661133
0,1028677,27.385414123535156,-56.31657028198242,12.494688034057617,52.24143981933594
0,1028680,-40.41075134277344,28.87833023071289,-4.688612461090088,-26.829959869384766
0,1028681,-44.26402282714844,83.23876953125,-43.34079360961914,-26.337848663330078
0,1028684,39.9901123046875,-76.12470245361328,30.030485153198242,74.2119140625
0,1028685,20.294919967651367,-57.01142120361328,25.16275978088379,-27.415945053100586
0,1028688,-44.92604064941406,2.4871866703033447,-35.36822509765625,-102.53588104248047
0,1028689,1.3522075414657593,24.272056579589844,13.986929893493652,17.21185302734375
0,1028692,19.65569305419922,50.443275451660156,23.79015350341797,68.59243774414062
0,1028693,-0.47563567757606506,-16.849700927734375,0.6642480492591858,19.81753921508789
0,1028696,19.46391487121582,-26.390153884887695,-12.020174980163574,-42.20747756958008
0,1028697,11.504364013671875,-21.69621467590332,-22.908193588256836,-2.3765645027160645
0,1028700,-30.398998260498047,8.497629165649414,16.542564392089844,-2.4400112628936768
0,1028701,-26.486913681030273,62.43042755126953,9.753969192504883,-56.197757720947266
0,1028704,18.928369522094727,-30.204017639160156,-31.049909591674805,59.09503173828125
0,1028705,20.705280303955078,-44.46184539794922,-13.533411026000977,51.45215606689453
0,1028708,5.78840446472168,51.62699890136719,27.21263885498047,-91.00343322753906
0,1028709,-3.2782950401306152,16.677881240844727,32.33411407470703,20.487817764282227
0,1028712,-22.69165802001953,-9.159537315368652,-22.527790069580078,91.04336547851562
0,1028713,-14.808558464050293,-3.5850024223327637,-33.92019271850586,-78.51838684082031
0,1028716,21.24571990966797,-51.38665771484375,0.48117974400520325,-26.97369956970215
0,1028717,15.135235786437988,-23.944679260253906,-8.483817100524902,92.8688735961914
0,1028720,-22.36530876159668,95.52876281738281,26.411544799804688,-103.82009887695312
0,1028721,-13.929898262023926,37.209068298339844,59.91566467285156,-72.20985412597656
0,1028724,31.573997497558594,-128.0403289794922,-36.14859390258789,182.1998291015625
0,1028725,10.454029083251953,-1.3779747486114502,-44.70093536376953,15.576074600219727
0,1028728,-42.42993927001953,78.57654571533203,43.493858337402344,-113.05596160888672
0,1028729,43.36791229248047,-14.176158905029297,-1.4708696603775024,88.57737731933594
0,1028732,12.851646423339844,-9.224384307861328,-32.65089416503906,37.34945297241211
0,1028733,-50.18267822265625,-21.415178298950195,-2.339696168899536,-143.127685546875
0,1028736,16.422054290771484,-5.696313858032227,11.31542682647705,-35.61289978027344
0,1028737,16.53308868408203,-4.8632121086120605,16.24188804626465,59.34183883666992
0,1028740,1.9654260873794556,67.91838073730469,15.791484832763672,29.87118148803711
0,1028741,-34.20507049560547,41.90431213378906,3.9489526748657227,31.884166717529297
0,1028744,19.95522689819336,-138.59385681152344,-46.44853591918945,10.813128471374512
0,1028745,39.6112060546875,-6.7150068283081055,-1.7032973766326904,-39.47480392456055
0,1028748,-56.43614196777344,72.83676147460938,36.0179557800293,-43.329322814941406
0,1028749,-12.000883102416992,-17.400007247924805,1.0285426378250122,-17.684072494506836
0,1028752,32.104766845703125,20.703989028930664,-14.78077507019043,6.243244647979736
0,1028753,-13.034661293029785,24.70038414001465,-4.264870643615723,63.84163284301758
0,1028756,-19.36863899230957,-44.278263092041016,4.897540092468262,43.50879669189453
0,1028757,42.332176208496094,-39.51767349243164,-26.155241012573242,-45.445316314697266
0,1028760,0.25671660900115967,67.06011199951172,30.251638412475586,15.872668266296387
0,1028761,-75.86180877685547,37.99732971191406,37.2434196472168,-1.9603002071380615
0,1028764,41.95427322387695,-104.96763610839844,-43.30628967285156,-69.21062469482422
0,1028765,47.387020111083984,-39.03376770019531,-40.06361770629883,12.871191024780273
0,1028768,-22.615467071533203,93.3699951171875,30.27516746520996,5.481261253356934
0,1028769,17.573965072631836,45.2413330078125,39.2850341796875,54.23175048828125
0,1028772,-30.938772201538086,-32.52774429321289,-38.5687370300293,24.412010192871094
0,1028773,-9.050804138183594,-33.26350021362305,-19.371110916137695,-64.8102035522461
0,1028776,27.5262508392334,-2.4905152320861816,34.8796501159668,-72.35975646972656
0,1028777,-8.822497367858887,8.138806343078613,11.618410110473633,16.09494972229004
0,1028780,3.517406463623047,41.59383010864258,0.885819673538208,95.59123992919922
0,1028782,-25.252685546875,6.1292548179626465,-1.3365222215652466,40.25075912475586
0,1028784,29.601787567138672,-94.16265106201172,-50.494049072265625,-20.64039421081543
0,1028788,48.2879524230957,-13.218326568603516,-3.514725685119629,-92.85711669921875
0,1028788,-46.65910339355469,93.70854187011719,83.90760040283203,21.689237594604492
0,1028789,-33.220252990722656,20.94815444946289,-25.195209503173828,38.59329605102539
0,1028792,-5.434697151184082,-48.140254974365234,-46.1755485534668,-54.94948959350586
0,1028793,-5.4449262619018555,9.845409393310547,26.329011917114258,-19.301860809326172
0,1028796,8.320853233337402,-17.365859985351562,-32.81858444213867,52.676292419433594
0,1028797,16.838842391967773,-38.483028411865234,12.138264656066895,77.2205810546875
0,1028800,24.705808639526367,95.44551849365234,33.397586822509766,-56.59659194946289
0,1028801,-17.958538055419922,34.068084716796875,-13.065690994262695,-113.26486206054688
0,1028804,-19.41973876953125,-92.91698455810547,-1.4630391597747803,74.30192565917969
0,1028805,38.93263626098633,-31.21101188659668,-0.6296659708023071,107.09992980957031
0,1028808,-10.074173927307129,12.388544082641602,4.169901371002197,-76.11067199707031
0,1028809,-46.818870544433594,24.920564651489258,3.6659774780273438,-33.136085510253906
0,1028812,37.44987487792969,44.31463623046875,15.119904518127441,6.1765217781066895
0,1028813,19.60138511657715,10.911989212036133,-17.937705993652344,14.234868049621582
0,1028816,-28.339155197143555,-72.08162689208984,-25.365793228149414,60.08190155029297
0,1028817,32.30852127075195,-66.62332153320312,15.414422988891602,-70.25946044921875
0,1028820,3.778073787689209,82.59494018554688,7.385635852813721,-3.985765218734741
0,1028821,-56.14083480834961,67.97662353515625,7.662499904632568,113.0059585571289
0,1028824,19.210203170776367,-82.23797607421875,-12.38470458984375,-59.99781036376953
0,1028825,36.623416900634766,-6.601465702056885,-11.479011535644531,-87.60652923583984
0,1028828,-43.203094482421875,45.0328369140625,27.698877334594727,60.2764778137207
0,1028829,-16.169811248779297,-32.928653717041016,-8.19902229309082,44.904273986816406
0,1028832,36.02325439453125,13.271309852600098,-20.55370330810547,-57.441184997558594
0,1028833,9.378920555114746,18.53093910217285,16.604812622070312,-126.29618072509766
0,1028836,7.677948474884033,-27.700828552246094,37.06663131713867,28.938486099243164
0,1028837,7.620100498199463,-40.315853118896484,-6.6053643226623535,171.15350341796875
0,1028840,-37.31236267089844,53.0538444519043,-47.231056213378906,-6.044724464416504
0,1028841,-30.513427734375,78.70372009277344,9.647183418273926,-105.12728118896484
0,1028844,26.2852725982666,-95.20960235595703,0.43443208932876587,-1.5114706754684448
0,1028845,16.90420150756836,-53.84187698364258,-25.993898391723633,36.84971237182617
0,1028848,-12.559425354003906,68.64300537109375,40.56633377075195,43.6821174621582
0,1028849,19.997360229492188,23.916362762451172,19.48450469970703,29.137033462524414
0,1028852,2.9919466972351074,-13.133732795715332,-40.393184661865234,-43.863365173339844
0,1028853,-19.807912826538086,-9.033245086669922,4.194199085235596,15.642498970031738
0,1028856,0.285915732383728,-36.826663970947266,10.749202728271484,-63.06806945800781
0,1028857,17.01003074645996,-27.454681396484375,-30.898963928222656,-86.37996673583984
0,1028860,-6.412829875946045,93.8829345703125,29.793670654296875,144.442138671875
0,1028861,-30.679550170898438,72.07015228271484,36.909080505371094,45.332244873046875
0,1028864,21.70831871032715,-124.33223724365234,-53.721858978271484,-90.43661499023438
0,1028865,25.007463455200195,-51.93394470214844,-9.5689115524292,-1.1633050441741943
0,1028868,-11.686027526855469,92.14219665527344,16.507949829101562,-4.03945255279541
0,1028869,-13.18233871459961,9.587662696838379,0.08728586137294769,-6.449491024017334
0,1028872,6.000223636627197,-12.034196853637695,29.373022079467773,41.184940338134766
0,1028873,9.697859764099121,-12.028286933898926,-6.551826477050781,34.901023864746094
0,1028876,-14.120458602905273,-15.6409912109375,-0.4195747375488281,19.8930721282959
0,1028877,1.6048792600631714,-19.61870002746582,3.095914363861084,-27.819177627563477
0,1028880,-1.5062624216079712,9.523797988891602,-31.41558837890625,-78.0840072631836
0,1028881,-8.9392671585083,69.30278778076172,5.874557018280029,-2.5936689376831055
0,1028884,28.59801483154297,-42.33583450317383,15.810407638549805,12.97792911529541
0,1028885,-12.382453918457031,-59.02996063232422,-9.994924545288086,0.40145164728164673
0,1028888,-30.126808166503906,54.03413772583008,8.026215553283691,25.972558975219727
0,1028889,11.17469310760498,17.23919105529785,-10.757911682128906,-19.0738468170166
0,1028892,7.683094024658203,-8.973762512207031,-4.1902055740356445,8.2916898727417
0,1028893,10.328706741333008,28.41900062561035,28.86827850341797,5.666441440582275
0,1028896,-15.782270431518555,-51.03948974609375,-24.69744110107422,-11.7105712890625
0,1028897,-1.5991977453231812,-71.14224243164062,-31.702632904052734,47.87751770019531
0,1028900,13.355965614318848,79.34662628173828,32.6919059753418,26.997867584228516
0,1028901,-26.585533142089844,76.80914306640625,31.085840225219727,-60.08189392089844
0,1028904,24.792354583740234,-78.84477233886719,-36.17443084716797,-73.00892639160156
0,1028905,30.577804565429688,-57.522552490234375,-15.618922233581543,28.76144790649414
0,1028908,-37.00889205932617,35.049537658691406,33.528656005859375,54.12956237792969
0,1028909,-12.729310035705566,30.4155216217041,-7.781459331512451,5.106250762939453
0,1028912,10.66386604309082,6.873293876647949,-7.33250617980957,5.392574787139893
0,1028913,-4.925510883331299,1.9456216096878052,10.514334678649902,-12.616826057434082
0,1028916,8.939682006835938,-35.85835647583008,-11.20116138458252,-4.480876445770264
0,1028917,16.755054473876953,-35.16188430786133,16.01261329650879,44.79539108276367
0,1028920,21.051908493041992,80.65432739257812,23.5952205657959,3.9030494689941406
0,1028921,-0.5958520174026489,99.0645751953125,-22.56136131286621,-109.3202896118164
0,1028924,-26.76671028137207,-80.4684066772461,-12.618484497070312,-73.56416320800781
0,1028925,-17.692352294921875,-118.94512176513672,-4.149405002593994,78.47396087646484
0,1028928,0.3423045575618744,58.4445915222168,-4.25537109375,130.3164825439453
0,1028929,13.006677627563477,61.2566032409668,7.942053318023682,21.08941078186035
0,1028932,-1.900147557258606,-7.186150550842285,10.876635551452637,-96.86101531982422
0,1028933,4.874287128448486,-15.877363204956055,1.5733089447021484,-30.759855270385742
0,1028936,-1.9086477756500244,-71.02425384521484,-19.895793914794922,8.311210632324219
0,1028937,-14.477739334106445,-13.844002723693848,3.9442193508148193,5.628458499908447
0,1028940,-4.671126842498779,79.3444595336914,12.083342552185059,39.61199951171875
0,1028941,2.378948450088501,41.923580169677734,-2.5402660369873047,-22.5422306060791
0,1028944,29.338518142700195,-62.37188720703125,-11.823246002197266,12.383625030517578
0,1028945,4.440968036651611,-32.0814208984375,6.700339317321777,32.09231185913086
0,1028948,-13.978195190429688,73.80989837646484,23.732532501220703,-57.72760009765625
0,1028949,-3.3264222145080566,-12.563267707824707,-27.6281795501709,12.553587913513184
0,1028952,-9.453189849853516,-34.15021514892578,-2.7677228450775146,-10.698431015014648
0,1028953,12.352845191955566,35.72241973876953,49.55968475341797,-89.72681427001953
0,1028956,1.4491982460021973,-28.29218101501465,-25.222890853881836,68.66311645507812
0,1028957,-2.900806188583374,-54.07052993774414,-29.102325439453125,93.84752655029297
0,1028960,-0.14775711297988892,47.36429977416992,21.499752044677734,-43.9611930847168
0,1028961,-25.919788360595703,86.94434356689453,-13.738142013549805,1.8673690557479858
0,1028964,4.061923503875732,-59.04962158203125,-21.25677490234375,22.90256690979004
0,1028965,43.56666564941406,-70.8309097290039,29.46904945373535,-63.741668701171875
0,1028968,-11.552560806274414,52.50115966796875,27.044172286987305,-0.8227322101593018
0,1028969,-16.79490852355957,35.45103073120117,-37.74635696411133,36.37382507324219
0,1028972,23.33525276184082,3.268643856048584,-2.3675410747528076,-45.067771911621094
0,1028973,-22.251096725463867,-7.985187530517578,1.0725035667419434,2.3951797485351562
0,1028976,-13.520681381225586,-45.65709686279297,-26.893163681030273,41.2830924987793
0,1028977,14.254972457885742,-52.183135986328125,48.806270599365234,-11.152865409851074
0,1028980,3.801830291748047,67.14282989501953,29.173715591430664,0.10359898209571838
0,1028981,-4.149493217468262,100.47926330566406,-37.158050537109375,-13.051295280456543
0,1028984,8.337525367736816,-98.17955780029297,-20.312843322753906,-11.34017276763916
0,1028985,11.26406192779541,-87.20396423339844,26.689990997314453,21.815628051757812
0,1028988,-27.73102569580078,68.6314468383789,-2.781109094619751,-5.118343830108643
0,1028989,-7.79292106628418,28.90973663330078,-36.01757049560547,-20.540264129638672
0,1028992,14.133857727050781,13.491801261901855,51.705909729003906,25.74247169494629
0,1028993,-13.565890312194824,38.47965621948242,17.85403823852539,19.47297477722168
0,1028996,23.195112228393555,-48.06406784057617,-64.68009185791016,-7.271358489990234
0,1028997,21.984115600585938,-69.45515441894531,3.8659090995788574,-3.0685367584228516
0,1029000,-48.27939224243164,42.4098014831543,14.977109909057617,-64.12696075439453
0,1029001,-17.163372039794922,56.9911994934082,11.263703346252441,1.6390063762664795
0,1029004,51.03278732299805,-81.07349395751953,-11.948432922363281,113.84932708740234
0,1029005,10.160028457641602,-45.033939361572266,-12.328508377075195,-39.67778778076172
0,1029008,-34.33480453491211,68.2270736694336,26.18487548828125,-55.10652160644531
0,1029009,0.38421833515167236,28.870227813720703,-17.077634811401367,70.3752212524414
0,1029012,4.051628112792969,22.482656478881836,12.341598510742188,2.829042911529541
0,1029013,-1.7382031679153442,9.366753578186035,28.217641830444336,-21.971118927001953
0,1029016,3.7141690254211426,-63.539920806884766,-28.997791290283203,-42.067481994628906
0,1029018,22.095251083374023,-54.89810562133789,-28.124542236328125,-33.59849548339844
0,1029020,13.511618614196777,96.19673156738281,12.125994682312012,34.572792053222656
0,1029022,-48.668216705322266,58.668392181396484,10.973408699035645,51.5005989074707
0,1029024,-4.006318092346191,-134.48390197753906,-7.018854141235352,26.394350051879883
1,1029028,49.470462799072266,-15.922009468078613,17.77926254272461,-48.36038589477539
1,1029028,-14.928034782409668,105.93399047851562,10.06008243560791,-53.893341064453125
1,1029029,-29.628976821899414,-3.380953311920166,-27.271358489990234,18.931283950805664
1,1029032,17.384010314941406,-14.934237480163574,11.62081241607666,56.217655181884766
1,1029033,10.562681198120117,12.723334312438965,21.04566192626953,6.909515380859375
1,1029036,-17.767980575561523,-60.43125534057617,-44.79233932495117,-98.68880462646484
1,1029037,4.241546630859375,-50.69527053833008,-28.9398136138916,-5.094101428985596
1,1029040,21.94847869873047,99.08894348144531,59.190765380859375,135.8387451171875
1,1029041,-22.31589126586914,72.9964370727539,25.85726547241211,-6.051953315734863
1,1029044,-13.066934585571289,-105.4791488647461,-41.355445861816406,-55.61463928222656
1,1029045,33.308189392089844,-28.124486923217773,18.538394927978516,-15.915180206298828
1,1029048,-4.649562358856201,47.64242935180664,13.957367897033691,-18.396480560302734
1,1029049,-45.13173294067383,-16.058685302734375,-33.19620895385742,39.89970397949219
1,1029052,3.2533621788024902,15.712543487548828,3.4797439575195312,-5.192554473876953
1,1029053,28.55128288269043,10.18624496459961,16.823503494262695,10.242201805114746
1,1029056,-6.478097438812256,-52.03905487060547,-27.532453536987305,37.21249771118164
1,1029057,30.890207290649414,-23.984315872192383,-1.538659691810608,-52.54912567138672
1,1029060,7.543832302093506,92.83609771728516,36.19171905517578,1.141518235206604
1,1029061,-72.73432922363281,45.042720794677734,-6.72288703918457,32.571598052978516
1,1029064,23.83346939086914,-87.154052734375,-15.262765884399414,-78.6858901977539
1,1029065,59.03217697143555,-37.74483871459961,-22.73690414428711,-9.075325965881348
1,1029068,-48.86969757080078,35.11693572998047,-1.6609487533569336,79.80519104003906
1,1029069,-13.043866157531738,22.400493621826172,45.833492279052734,-18.468740463256836
1,1029072,38.87344741821289,25.899192810058594,8.135359764099121,-21.67835235595703
1,1029073,-9.154647827148438,14.724593162536621,-14.401988983154297,19.85786247253418
1,1029076,-4.222811698913574,-56.908512115478516,-12.387800216674805,-5.028510093688965
1,1029077,-0.3596634566783905,-74.03656005859375,-30.493141174316406,-14.348003387451172
1,1029080,-47.17549133300781,54.3446044921875,15.533561706542969,-12.221549034118652
1,1029081,-6.611255645751953,101.63562774658203,41.744136810302734,32.402347564697266
1,1029084,64.7119140625,-91.01567840576172,-17.520509719848633,-7.722768783569336
1,1029085,10.90312385559082,-73.4301986694336,-20.596385955810547,-11.146925926208496
1,1029088,-37.24238967895508,99.12691497802734,0.3094039857387543,37.21446990966797
1,1029089,13.599153518676758,18.052165985107422,1.7189973592758179,-36.624534606933594
1,1029092,12.450057029724121,-19.6903133392334,29.952045440673828,2.977668285369873
1,1029093,-17.825496673583984,29.527990341186523,-8.355717658996582,43.09507369995117
1,1029096,15.413969993591309,-57.79364776611328,-59.70631408691406,-32.2591552734375
1,1029097,-5.358725547790527,-62.49886703491211,6.5579633712768555,-38.06173324584961
1,1029100,-45.51842498779297,79.6774673461914,69.20262908935547,17.167766571044922
1,1029101,2.1717941761016846,83.58573913574219,-2.469923496246338,38.08584976196289
1,1029104,58.541648864746094,-81.47770690917969,-42.3039436340332,24.3756046295166
1,1029105,27.00283432006836,-74.14649200439453,-6.615743637084961,-23.835477828979492
1,1029108,-40.507896423339844,96.46066284179688,37.127986907958984,-49.14408874511719
1,1029109,-34.608863830566406,40.59175491333008,4.694122314453125,-5.6996026039123535
1,1029112,-1.9723275899887085,-72.46990203857422,-56.139122009277344,-0.22528983652591705
1,1029113,15.238471984863281,17.34020233154297,35.57996368408203,16.83518409729004
1,1029116,17.754533767700195,-3.8571016788482666,36.943050384521484,44.80413818359375
1,1029117,15.919746398925781,-51.01740264892578,-35.84142303466797,-24.0816650390625
1,1029120,-15.896986961364746,67.51929473876953,3.927014112472534,-26.426193237304688
1,1029121,-18.25388526916504,30.031328201293945,10.671990394592285,32.359352111816406
1,1029124,18.052560806274414,-97.0938949584961,-21.60820770263672,26.90243911743164
1,1029125,-5.2008161544799805,-7.900737762451172,-8.531832695007324,5.086238861083984
1,1029128,5.024509429931641,61.71652603149414,12.43978500366211,-51.041046142578125
1,1029129,-0.4514535069465637,-2.2748467922210693,6.782474994659424,3.3112523555755615
1,1029132,-14.998543739318848,-5.949785232543945,12.529406547546387,-5.371145248413086
1,1029133,25.145057678222656,28.478315353393555,-3.3552918434143066,-43.35832214355469
1,1029136,-0.09896250814199448,-22.074954986572266,-42.649147033691406,77.51248931884766
1,1029137,-23.73389434814453,-54.590904235839844,1.7137333154678345,47.834022521972656
1,1029140,4.456270217895508,64.19322204589844,38.715721130371094,-46.16608428955078
1,1029141,-13.478580474853516,58.14217758178711,-11.580933570861816,-95.65180969238281
1,1029396,26.93264389038086,-128.375244140625,-11.257617950439453,6.239508628845215
1,1029397,49.118682861328125,-50.61687088012695,34.30244827270508,118.1502914428711
1,1029400,-74.09930419921875,173.67630004882812,34.89010238647461,-10.629128456115723
1,1029401,-75.97483825683594,53.00343322753906,-36.86061096191406,-51.59046173095703
1,1029404,44.90963363647461,-69.47633361816406,-48.995059967041016,4.739722728729248
1,1029405,38.87788391113281,14.693366050720215,26.652673721313477,-0.13425014913082123
1,1029408,3.2936646938323975,-36.096866607666016,22.078922271728516,28.807201385498047
1,1029409,15.834595680236816,-134.2528076171875,-61.31553268432617,27.81623649597168
1,1030743,6.446839809417725,-53.6282844543457,-11.11620807647705,-45.11201858520508
1,1030746,29.674293518066406,60.89179992675781,75.91622924804688,-7.404045581817627
1,1030748,3.898386240005493,62.28661346435547,-11.306317329406738,18.399431228637695
1,1030750,-42.34994125366211,58.31755828857422,-10.812137603759766,-48.64569091796875
1,1030752,-25.601707458496094,36.828311920166016,6.136984825134277,-9.628214836120605
1,1030754,-9.941969871520996,-13.423429489135742,-11.687030792236328,47.68239974975586
1,1030756,15.543171882629395,-16.275409698486328,27.509525299072266,-7.7215423583984375
1,1030758,7.476263523101807,33.92955017089844,7.999485969543457,-16.464651107788086
1,1030760,-23.47934913635254,-8.316987991333008,-19.140390396118164,2.091144323348999
1,1030762,12.359599113464355,-126.95707702636719,-31.21306610107422,23.110118865966797
1,1030764,53.8375358581543,-43.58757781982422,13.061688423156738,25.564434051513672
1,1030766,12.100103378295898,79.73019409179688,25.606599807739258,-87.01985168457031
1,1030768,-48.168495178222656,43.9836540222168,-7.574100017547607,10.990859031677246
1,1030770,-26.35008430480957,14.125167846679688,-19.35527229309082,74.50062561035156
1,1030772,3.0090911388397217,36.29450607299805,-9.44205379486084,-23.157289505004883
1,1030774,-11.436979293823242,-18.85199546813965,9.779540061950684,13.342926025390625
1,1030776,34.90557861328125,-65.52691650390625,10.37934398651123,-19.36100196838379
1,1030778,21.54758644104004,31.671159744262695,11.350259780883789,-14.749038696289062
1,1030780,-43.92496871948242,45.80062484741211,-23.73876953125,43.14102554321289
1,1030782,16.818912506103516,-74.95442199707031,-3.3609182834625244,-45.6383171081543
1,1030784,28.527759552001953,-67.24395751953125,3.381589412689209,-24.839916229248047
1,1030786,-15.763225555419922,19.71305274963379,-13.75059986114502,74.0493392944336
1,1030788,5.8515167236328125,64.53138732910156,22.77252197265625,-35.027854919433594
1,1030790,-2.35742449760437,56.959896087646484,13.034675598144531,-10.317266464233398
1,1030792,-36.57078552246094,-36.842872619628906,-5.658198833465576,87.19843292236328
1,1030794,-4.436501979827881,-12.716984748840332,-9.892722129821777,-50.29243850708008
1,1030796,27.654817581176758,8.591582298278809,-6.688551902770996,-89.44985961914062
1,1030798,-12.544482231140137,-2.4039900302886963,14.38968563079834,34.5208854675293
1,1030800,-5.970887660980225,48.497161865234375,16.504680633544922,52.10313034057617
1,1030802,23.827362060546875,-71.96682739257812,-20.884950637817383,1.670285940170288
1,1030804,9.417929649353027,-77.83663177490234,-18.12450408935547,-5.515749931335449
1,1030806,0.7793011665344238,62.29751968383789,10.93547534942627,-22.37787437438965
1,1030808,-1.3478620052337646,48.34184646606445,-1.4974300861358643,-19.390647888183594
1,1030810,-14.638009071350098,5.048326015472412,-0.2761935889720917,13.287863731384277
1,1030812,-20.996543884277344,-4.910004138946533,21.664989471435547,7.988485336303711
1,1030814,11.904915809631348,-16.811603546142578,4.469148635864258,-31.695281982421875
1,1030816,12.626954078674316,-19.887163162231445,-29.84718132019043,9.286764144897461
1,1030818,-8.959407806396484,23.856969833374023,4.34955358505249,44.22334671020508
1,1030820,-6.564291954040527,50.02316665649414,45.24788284301758,-11.80105972290039
1,1030822,11.212555885314941,-64.24577331542969,-15.719178199768066,-32.517765045166016
1,1030824,34.442955017089844,-61.889732360839844,-57.32155227661133,31.265644073486328
1,1030826,-21.20358657836914,53.75615310668945,-3.2481112480163574,25.04171371459961
1,1030828,-35.403133392333984,26.72918128967285,68.85186767578125,-24.129270553588867
1,1030830,11.721348762512207,15.85196590423584,32.948089599609375,10.00967788696289
1,1030832,-17.223445892333984,3.2909820079803467,-76.40925598144531,-30.428707122802734
1,1030834,11.175204277038574,-33.78982925415039,-26.128803253173828,-3.9394166469573975
1,1030836,28.951444625854492,-35.322471618652344,42.55778884887695,50.93979263305664
1,1030838,-19.336116790771484,38.810543060302734,4.491848468780518,-67.5087890625
1,1030840,-2.55996036529541,87.44574737548828,4.500497341156006,-14.887189865112305
1,1030842,36.914852142333984,-61.005496978759766,-3.285951614379883,113.75875854492188
1,1030844,15.47711181640625,-79.34353637695312,-23.653427124023438,-5.05699348449707
1,1030846,-47.124420166015625,34.80253601074219,11.889725685119629,-82.29869842529297
1,1030848,-33.121299743652344,-25.10682487487793,19.65762710571289,1.890275478363037
1,1030850,32.5106086730957,19.37071418762207,-1.1442240476608276,31.76605224609375
1,1030852,29.48666000366211,95.28328704833984,-0.015704350546002388,-49.09870147705078
1,1030853,-23.29398536682129,-48.90366744995117,-15.86600399017334,-4.590710163116455
1,1030856,5.363405227661133,-81.0406265258789,-15.560164451599121,60.10307693481445
1,1030857,25.66175651550293,32.579566955566406,11.680750846862793,-46.64030456542969
1,1030860,-39.79422378540039,64.50469970703125,11.189664840698242,6.022168159484863
1,1030861,-27.214313507080078,-6.8658061027526855,-12.397013664245605,37.78872299194336
1,1030864,43.85289764404297,-41.765235900878906,-2.055781364440918,-42.48420333862305
1,1030865,15.899221420288086,9.351308822631836,3.2356529235839844,23.564266204833984
1,1030868,-30.513689041137695,6.971807479858398,-15.10622787475586,62.82015609741211
1,1030869,-0.7136040925979614,-22.14524269104004,5.284346103668213,-5.441628456115723
1,1030872,7.566049575805664,10.059926986694336,23.20228385925293,-64.14454650878906
1,1030873,-7.446878433227539,-13.314862251281738,-8.57039737701416,-1.8171241283416748
1,1030876,-4.340790271759033,-22.783716201782227,-8.075303077697754,24.804832458496094
1,1030877,-0.25192201137542725,41.36020278930664,31.18001937866211,-17.665544509887695
1,1030880,-11.085407257080078,51.37961959838867,-8.932904243469238,23.78264808654785
1,1030881,-15.56014347076416,-35.34568786621094,-35.11830139160156,9.69528865814209
1,1030884,29.5789852142334,-55.8609733581543,26.521303176879883,-55.82722473144531
1,1030885,14.472007751464844,51.161468505859375,12.192789077758789,0.19387418031692505
1,1030888,-3.228425979614258,10.659111022949219,-23.694324493408203,35.78650665283203
1,1030889,20.089235305786133,-30.762624740600586,-3.768805742263794,-23.1512451171875
1,1030893,-25.4388370513916,63.63215255737305,15.378512382507324,3.6348447799682617
1,1030893,-12.135777473449707,-11.285321235656738,-11.0103759765625,28.067081451416016
1,1030896,31.58684730529785,-108.68389129638672,-36.209503173828125,16.34329605102539
1,1030897,4.274081707000732,37.334678649902344,37.69185256958008,-3.309706449508667
1,1030900,-22.30425453186035,77.31602478027344,22.689348220825195,-45.78794860839844
1,1030901,5.0495829582214355,-59.18438720703125,-31.9725341796875,-63.30241394042969
1,1030904,15.261731147766113,-47.87384796142578,23.778026580810547,22.440624237060547
1,1030905,-24.47620391845703,43.4854736328125,21.677156448364258,125.67843627929688
1,1030908,2.933647632598877,51.759910583496094,-23.05015754699707,-5.393601894378662
1,1030909,23.506484985351562,-11.665165901184082,-9.226364135742188,-86.71604919433594
1,1030912,-44.99518585205078,-12.261970520019531,5.398292064666748,-20.0440673828125
1,1030913,-11.81490421295166,-17.47702980041504,-7.449433326721191,30.130449295043945
1,1030916,46.26530838012695,-52.244014739990234,-4.232863903045654,49.84284973144531
1,1030917,-6.853954792022705,44.89017105102539,15.825953483581543,-14.399667739868164
1,1030920,-29.13237190246582,38.61039352416992,-4.78209924697876,-52.21316909790039
1,1030921,22.327592849731445,-51.3677864074707,-9.509244918823242,-6.979824066162109
1,1030924,43.88174819946289,10.100712776184082,19.30731773376465,43.54460525512695
1,1030925,-28.045324325561523,27.753921508789062,-3.985525131225586,20.81350326538086
1,1030928,-43.932472229003906,-21.252344131469727,-41.01542282104492,-19.560710906982422
1,1030929,24.574047088623047,27.688371658325195,10.670434951782227,-22.24053382873535
1,1030932,15.859626770019531,45.345298767089844,59.511695861816406,1.889564871788025
1,1030933,-20.234115600585938,-56.17967224121094,-34.8467903137207,19.713520050048828
1,1030936,-13.86683177947998,-29.609495162963867,-33.471221923828125,-28.305273056030273
1,1030937,8.37018871307373,81.91328430175781,51.08686065673828,-56.554386138916016
1,1030940,38.309967041015625,-23.844642639160156,-20.84180450439453,72.23726654052734
1,1030941,8.627257347106934,-81.66188049316406,-46.969024658203125,107.47738647460938
1,1030944,-24.036376953125,11.509933471679688,24.991416931152344,-72.94573974609375
1,1030945,-6.535848617553711,-0.5652679800987244,23.91316032409668,-62.81283950805664
1,1030948,-24.07120132446289,13.6315336227417,-4.400826930999756,63.097938537597656
1,1030949,10.169713020324707,21.716081619262695,4.00065803527832,-10.216800689697266
1,1030952,19.697675704956055,8.03188705444336,0.3162132501602173,-36.15258026123047
1,1030953,-23.77823257446289,-11.64948844909668,-13.787766456604004,51.44622039794922
1,1030956,22.302766799926758,-57.839656829833984,9.537856101989746,-57.874176025390625
1,1030957,10.079843521118164,54.49018096923828,34.15752029418945,-90.31676483154297
1,1030960,-27.03750228881836,84.62486267089844,18.961015701293945,170.45269775390625
1,1030961,2.6719374656677246,-47.90056228637695,-21.66402816772461,79.35596466064453
1,1030964,11.348432540893555,-65.06554412841797,-34.289730072021484,-211.18392944335938
1,1030965,2.4925343990325928,2.1118624210357666,-24.20468521118164,-17.33500862121582
1,1030968,-19.49213981628418,37.3000373840332,6.197540760040283,112.31803131103516
1,1030969,-5.501394271850586,-8.466483116149902,25.009042739868164,-44.91180419921875
1,1030972,20.1969051361084,-10.814680099487305,-13.112222671508789,-43.973976135253906
1,1030973,18.278507232666016,12.515326499938965,-11.760643005371094,52.61722183227539
1,1030976,46.836578369140625,-12.175670623779297,21.513504028320312,93.58085632324219
1,1030977,28.189477920532227,41.94110870361328,8.104318618774414,8.910295486450195
1,1030980,215.8649444580078,31.238122940063477,-15.097256660461426,-73.82534790039062
1,1030981,-10.336607933044434,-69.4153060913086,-15.054726600646973,-61.528724670410156
1,1030984,-715.0948486328125,-42.50761795043945,8.92259693145752,54.9775276184082
1,1030985,-193.44561767578125,44.35090255737305,40.7256965637207,47.818233489990234
1,1030988,590.260009765625,32.412353515625,33.269752502441406,-95.76165771484375
1,1030989,201.2348175048828,-20.60593032836914,-35.43982696533203,-6.422130584716797
1,1030992,-156.885498046875,12.434873580932617,-53.9909553527832,98.36767578125
1,1030993,-47.59345245361328,-23.482934951782227,-13.80576229095459,4.819810390472412
1,1030996,14.813131332397461,-45.328033447265625,30.219783782958984,-56.22733688354492
1,1030997,-11.908974647521973,80.60580444335938,47.61431884765625,-32.84296798706055
1,1031000,25.8685302734375,18.215221405029297,-38.514713287353516,0.18307437002658844
1,1031001,106.50408172607422,-74.09829711914062,-43.81706237792969,42.49052047729492
1,1031004,64.85614013671875,-7.421179294586182,33.98474884033203,-13.987351417541504
1,1031005,30.97992515563965,23.50292205810547,34.15885543823242,-42.730262756347656
1,1031008,-159.5150909423828,9.907780647277832,36.73713684082031,49.53224182128906
1,1031009,-250.65371704101562,13.399346351623535,17.996761322021484,30.392011642456055
1,1031012,-17.994476318359375,27.335384368896484,-69.62897491455078,-35.505985260009766
1,1031013,77.31735229492188,-45.88752746582031,-82.23577880859375,18.884456634521484
1,1031016,127.3333740234375,-62.02455139160156,0.3741728961467743,48.655643463134766
1,1031017,52.95822525024414,66.9424819946289,67.87674713134766,-57.78866195678711
1,1031020,-6.560754299163818,58.903526306152344,45.91156005859375,-26.651081085205078
1,1031021,411.9928894042969,-62.79807662963867,-34.51354217529297,79.9963150024414
1,1031024,-271.41754150390625,-24.33099365234375,-24.03156852722168,-90.64907836914062
1,1031025,-857.8728637695312,32.16242980957031,35.81703186035156,-79.75890350341797
1,1031028,526.666015625,12.151674270629883,21.58333396911621,124.85911560058594
1,1031030,661.9317626953125,24.81883430480957,-1.2260570526123047,27.94602394104004
1,1031032,-336.7668762207031,-10.243672370910645,-83.25624084472656,-51.318824768066406
1,1031034,48.675716400146484,-58.34457778930664,-80.15331268310547,-32.21477508544922
1,1031036,-123.08467864990234,-22.534873962402344,139.311279296875,41.326480865478516
1,1031038,-825.8402099609375,69.28720092773438,82.56375885009766,70.22505187988281
1,1031040,177.0922393798828,15.774948120117188,25.132835388183594,-73.23942565917969
1,1031042,685.9232788085938,-80.73200988769531,-11.867206573486328,-63.02138900756836
1,1031043,106.80902862548828,29.540990829467773,-210.6373291015625,85.17601013183594
1,1031046,-113.0613784790039,57.023956298828125,-25.087526321411133,60.386688232421875
1,1031047,-98.77880859375,-37.52959442138672,98.25890350341797,-108.80436706542969
1,1031050,-30.900466918945312,-35.35943603515625,22.7899227142334,-32.308841705322266
1,1031051,-3.5904457569122314,32.43187713623047,27.984561920166016,117.28937530517578
1,1031056,121.3163833618164,16.221467971801758,-28.920928955078125,-14.04344367980957
1,1031056,125.8070068359375,-39.218666076660156,-22.489274978637695,-60.94844055175781
1,1031057,31.09433364868164,63.894493103027344,52.88755798339844,-0.992160975933075
1,1031060,-170.86782836914062,36.38520812988281,16.221595764160156,4.242424011230469
1,1031061,-216.77386474609375,-115.6671371459961,-61.82849884033203,41.41654586791992
1,1031064,-25.39943504333496,-20.734167098999023,-14.91729736328125,-45.23546600341797
1,1031065,-42.96915817260742,62.41873550415039,52.80012512207031,-21.949501037597656
1,1031068,82.32894134521484,13.858866691589355,36.24253463745117,126.67993927001953
1,1031069,193.51263427734375,5.0373735427856445,-11.632193565368652,-42.962894439697266
1,1031072,14.774171829223633,10.159748077392578,-5.979791164398193,-137.981689453125
1,1031073,48.60194396972656,-45.12946319580078,-3.9885003566741943,51.083370208740234
1,1031076,-201.94766235351562,-41.48054885864258,-43.54873275756836,82.74726867675781
1,1031077,-419.5125732421875,84.99784088134766,17.3877010345459,-9.186458587646484
1,1031080,603.57958984375,39.54380416870117,-15.662552833557129,-41.613094329833984
1,1031081,462.15399169921875,-76.0803451538086,-108.11019134521484,4.382145881652832
1,1031084,-1060.66064453125,-34.618045806884766,27.56028175354004,22.183778762817383
1,1031085,-290.34002685546875,42.47196578979492,189.8555908203125,1.111566185951233
1,1031088,876.0489501953125,40.81636047363281,64.18388366699219,9.495123863220215
1,1031089,178.6124267578125,-60.83238983154297,-178.98953247070312,-6.723752021789551
1,1031092,-331.2229309082031,-37.74882507324219,-79.74151611328125,-35.519222259521484
1,1031093,-29.321807861328125,50.85462951660156,95.08891296386719,-13.57802963256836
1,1031096,109.66071319580078,-24.312036514282227,24.01100730895996,0.9298904538154602
1,1031097,229.93154907226562,10.501258850097656,-16.993234634399414,3.1791133880615234
1,1031100,-40.96836471557617,69.07820129394531,6.898939609527588,56.17355728149414
1,1031101,-493.9327697753906,-8.219327926635742,0.13892397284507751,6.4531331062316895
1,1031104,141.07846069335938,-45.09795379638672,23.107501983642578,-12.750711441040039
1,1031105,386.0476989746094,-29.696027755737305,20.410160064697266,18.029386520385742
1,1031108,-116.99720001220703,26.444047927856445,-88.7089614868164,-63.943214416503906
1,1031109,-179.6599578857422,17.742319107055664,-69.86957550048828,-14.49631118774414
1,1031112,-40.1971321105957,28.671133041381836,79.6495361328125,60.20907211303711
1,1031113,146.8814239501953,-23.366281509399414,29.8245906829834,2.1156604290008545
1,1031116,42.34230041503906,-56.380165100097656,-3.228907346725464,-52.32093811035156
1,1031117,-48.59709930419922,98.79296875,-20.598114013671875,-43.54473876953125
1,1031120,-133.99391174316406,2.97329044342041,71.0623779296875,53.65959930419922
1,1031121,-366.3324890136719,-140.1943359375,224.85003662109375,103.1575698852539
1,1031124,72.51958465576172,-18.36583709716797,-182.03689575195312,-59.025543212890625
1,1031125,357.2386169433594,84.09435272216797,-312.4358825683594,-100.6497573852539
1,1031128,130.80479431152344,60.8289909362793,-45.61054611206055,140.89547729492188
1,1031129,32.57432556152344,-11.46081256866455,47.03999328613281,63.27197265625
1,1031132,257.5498046875,-1.0761913061141968,316.779052734375,-209.32887268066406
1,1031133,-13.984230995178223,-34.97736358642578,151.59121704101562,-48.1865348815918
1,1031136,-1026.1058349609375,-67.35066223144531,-172.04283142089844,188.4087371826172
1,1031137,-369.6814880371094,45.93650436401367,-48.8867301940918,1.7858649492263794
1,1031140,1107.0936279296875,58.914588928222656,-94.712158203125,-118.37301635742188
1,1031141,575.2763061523438,-12.588298797607422,-76.7608642578125,8.458207130432129
1,1031144,-409.7373962402344,-18.77922248840332,180.95416259765625,26.26460075378418
1,1031145,-209.07872009277344,-7.440203666687012,60.64079666137695,27.384592056274414
1,1031148,-68.15416717529297,-5.441711902618408,-95.08183288574219,24.315948486328125
1,1031149,-149.0901641845703,3.8701372146606445,20.159276962280273,-21.6154842376709
1,1031152,13.779001235961914,27.716081619262695,-8.5833158493042,-5.489272117614746
1,1031153,32.232852935791016,-26.280752182006836,-43.28700256347656,0.9651165008544922
1,1031156,51.230167388916016,-54.46879577636719,-10.799043655395508,-13.051003456115723
1,1031157,84.74330139160156,66.94706726074219,9.798785209655762,20.034700393676758
1,1031160,152.00828552246094,51.4970588684082,-19.53629493713379,21.508281707763672
1,1031161,123.17789459228516,-80.2890853881836,-44.86540985107422,-36.50921630859375
1,1031164,-336.24566650390625,-24.10686683654785,97.28849792480469,-60.92848205566406
1,1031165,-367.68902587890625,43.27022171020508,131.214111328125,20.499521255493164
1,1031168,315.9179382324219,8.377044677734375,-61.500831604003906,55.100128173828125
1,1031169,362.4566650390625,-3.0585741996765137,-118.00413513183594,-17.735187530517578
1,1031172,-132.4499053955078,22.667186737060547,-18.81025505065918,19.838226318359375
1,1031173,-190.2015838623047,-35.08598709106445,53.376365661621094,-2.4032020568847656
1,1031176,-592.9661865234375,-64.22724151611328,158.8912353515625,-23.740264892578125
1,1031177,-345.7066345214844,67.37547302246094,45.41933822631836,99.4427719116211
1,1031180,955.3248901367188,42.64604187011719,-273.072509765625,-59.091712951660156
1,1031181,570.9769287109375,-53.04877853393555,-195.15426635742188,-82.72837829589844
1,1031184,-366.0895690917969,5.689013957977295,171.29039001464844,125.96166229248047
1,1031185,-62.4484977722168,38.810977935791016,179.00205993652344,9.769829750061035
1,1031188,73.39881896972656,9.938518524169922,-5.948841094970703,-143.80198669433594
1,1031189,-86.30585479736328,-7.958200931549072,-59.775638580322266,-38.711055755615234
1,1031192,-39.29856491088867,-29.484851837158203,6.314611434936523,117.4611587524414
1,1031193,54.88532638549805,-30.291622161865234,-6.744199275970459,-27.069473266601562
1,1031196,-30.90512466430664,2.1719236373901367,-94.17762756347656,-61.68893051147461
1,1031198,-133.85630798339844,40.59486389160156,53.9238166809082,154.83966064453125
1,1031200,26.13776397705078,-7.062920570373535,56.62929153442383,11.912592887878418
1,1031202,113.02156829833984,-39.0850830078125,-45.609161376953125,-112.5130615234375
1,1031204,-36.682579040527344,1.9579689502716064,31.084245681762695,-8.448771476745605
1,1031206,363.4478759765625,17.49213409423828,-17.827518463134766,-34.02992630004883
1,1031208,-342.13946533203125,42.928001403808594,-30.727712631225586,71.45148468017578
1,1031210,-1277.360595703125,-22.67070770263672,94.25896453857422,99.84453582763672
1,1031211,448.2646789550781,-60.11223220825195,154.21328735351562,-165.5110626220703
1,1031214,961.4231567382812,28.20962905883789,-127.85409545898438,-1.4580984115600586
1,1031215,-135.16598510742188,-3.2399816513061523,-320.6258850097656,196.70932006835938
1,1031218,226.27317810058594,5.237956523895264,124.00697326660156,-154.62820434570312
1,1031219,149.78953552246094,90.19837951660156,317.7815246582031,-109.52706909179688
1,1031222,-646.5069580078125,-32.19133758544922,-149.3092803955078,185.7882843017578
1,1031223,-24.787195205688477,-69.5436782836914,-373.95263671875,-39.125064849853516
1,1031226,381.625244140625,34.47507095336914,144.94189453125,-67.15702056884766
1,1031227,-168.8041534423828,30.10650634765625,380.266845703125,102.08336639404297
1,1031230,39.27762222290039,1.6619513034820557,-73.29576873779297,-18.862878799438477
1,1031233,91.95530700683594,-36.442718505859375,-171.8429718017578,-116.6438980102539
1,1031234,-194.8937225341797,-43.8431396484375,44.09653854370117,-38.37765121459961
1,1031235,2.5984528064727783,-7.137851238250732,33.797767639160156,112.4044189453125
1,1031238,84.39629364013672,64.38870239257812,16.066850662231445,82.74686431884766
1,1031239,-167.39620971679688,65.72866821289062,-73.48631286621094,-32.613094329833984
1,1031242,-22.630231857299805,-83.1829833984375,-106.9446029663086,-74.85755157470703
1,1031243,184.56204223632812,-84.38319396972656,69.62382507324219,-5.628983974456787
1,1031246,-65.85626220703125,70.01055145263672,56.66542434692383,53.887245178222656
1,1031247,24.605873107910156,47.0424919128418,13.845625877380371,12.47497844696045
1,1031250,152.7796630859375,-2.5454418659210205,19.242521286010742,-38.95458984375
1,1031251,-66.9748764038086,32.76319122314453,-61.15965270996094,-14.080801010131836
1,1031254,414.6268310546875,-62.01450729370117,-124.69810485839844,42.487159729003906
1,1031255,78.93907928466797,-48.1931266784668,22.627853393554688,-36.9991340637207
1,1031258,-1061.9818115234375,84.206298828125,236.66024780273438,24.939464569091797
1,1031259,-99.60077667236328,33.16588592529297,55.14255905151367,59.4742546081543
1,1031262,688.4933471679688,-85.5468978881836,-188.0653076171875,-109.83869934082031
1,1031263,-55.644901275634766,-33.07856369018555,22.93535614013672,-51.38520050048828
1,1031266,-114.97384643554688,70.87739562988281,124.80181884765625,100.22266387939453
1,1031267,90.9352798461914,6.4514241218566895,-101.67109680175781,75.85123443603516
1,1031270,168.5262908935547,-17.824731826782227,-101.16630554199219,-67.30327606201172
1,1031271,178.4167938232422,36.138099670410156,11.717384338378906,-64.33524322509766
1,1031274,-443.2073059082031,-46.03462219238281,78.1464614868164,70.0869369506836
1,1031275,-320.863525390625,-85.07354736328125,140.27845764160156,48.923057556152344
1,1031278,341.88519287109375,76.61967468261719,-129.4191131591797,-20.51025390625
1,1031279,131.57327270507812,78.4144515991211,-250.2874298095703,-59.0025749206543
1,1031282,46.13521957397461,-79.10014343261719,172.35154724121094,-117.78445434570312
1,1031283,-3.3862435817718506,-39.393585205078125,177.46974182128906,0.880879819393158
1,1031286,-202.12962341308594,56.09311294555664,-118.65806579589844,178.00677490234375
1,1031287,-47.08353042602539,15.627967834472656,-54.18218231201172,22.709856033325195
1,1031290,78.44367218017578,-16.268375396728516,35.658992767333984,-74.8126220703125
1,1031291,27.567461013793945,11.085288047790527,49.96059036254883,55.4532585144043
1,1031294,17.956829071044922,-34.08250045776367,6.666578769683838,10.6491060256958
1,1031295,106.00720977783203,-14.827043533325195,-62.14274215698242,-92.25334930419922
1,1031298,72.43185424804688,80.83543395996094,-1.4411455392837524,2.8142924308776855
1,1031299,-270.6022033691406,26.36884880065918,50.16584396362305,-9.183575630187988
1,1031302,-94.39804077148438,-74.78299713134766,71.37715148925781,6.841787338256836
1,1031303,339.6993408203125,-46.8228759765625,7.176455020904541,145.14222717285156
1,1031306,-37.93939971923828,19.372846603393555,-167.18194580078125,-76.29154968261719
1,1031307,-92.05836486816406,22.3985595703125,7.158725738525391,-130.5261688232422
1,1031310,90.44639587402344,12.50020980834961,55.87762451171875,78.03424835205078
1,1031311,-94.29590606689453,14.831222534179688,-248.73410034179688,26.473966598510742
1,1031314,148.75387573242188,-3.796497106552124,21.862268447875977,-16.787927627563477
1,1031315,-157.6476593017578,-31.111881256103516,275.16864013671875,7.216594219207764
1,1031318,-617.070556640625,20.683900833129883,216.07611083984375,-61.7047004699707
1,1031319,431.0328369140625,30.486492156982422,17.352399826049805,14.186905860900879
1,1031322,638.8358764648438,-69.13135528564453,-420.3585510253906,90.79955291748047
1,1031323,-314.96649169921875,-12.500053405761719,-110.8986587524414,-26.051166534423828
1,1031326,-243.34286499023438,80.15204620361328,294.23187255859375,-21.809242248535156
1,1031327,81.66465759277344,9.833653450012207,61.93739700317383,0.9225472211837769
1,1031330,75.10130310058594,-45.23231887817383,-1.9978333711624146,-32.99264144897461
1,1031331,27.729320526123047,-5.746066570281982,4.542043685913086,-4.670934677124023
1,1031334,-54.90447998046875,-16.590961456298828,-184.52378845214844,5.32667875289917
1,1031335,-1.8324460983276367,-38.068328857421875,-114.14246368408203,43.365596771240234
1,1031338,266.43121337890625,80.45679473876953,127.16454315185547,-12.62669849395752
1,1031339,235.39834594726562,53.302467346191406,51.16411209106445,-59.72074508666992
1,1031342,-582.152587890625,-71.14803314208984,9.203293800354004,77.04634857177734
1,1031343,-627.6651000976562,-20.004207611083984,82.80323028564453,30.610294342041016
1,1031346,575.4849243164062,-1.8826823234558105,57.93818283081055,-38.06925964355469
1,1031347,292.5730895996094,-7.046813011169434,-52.68013000488281,46.873783111572266
1,1031350,-485.01068115234375,35.76983642578125,-315.9931945800781,-18.23925018310547
1,1031351,70.67243957519531,29.770593643188477,-133.87925720214844,-23.397079467773438
1,1031354,290.9842224121094,-24.634593963623047,384.71234130859375,6.803440093994141
1,1031355,86.02088928222656,-44.066471099853516,212.4368133544922,-15.035250663757324
1,1031358,23.124897003173828,64.49528503417969,-125.82804107666016,-37.95304489135742
1,1031359,-8.57476806640625,55.31806182861328,-46.22150802612305,-47.57749557495117
1,1031362,-65.10248565673828,-114.77289581298828,-173.9707489013672,38.63442611694336
1,1031363,-96.13785552978516,-42.53373718261719,-64.58100128173828,53.87297439575195
1,1031366,265.865234375,96.52687072753906,241.1779022216797,24.460155487060547
1,1031367,-27.192354202270508,-9.08243465423584,64.60955047607422,-25.77194595336914
1,1031370,-607.1782836914062,-38.20320510864258,-48.628662109375,-63.416786193847656
1,1031371,269.8083190917969,27.98003387451172,-61.820980072021484,5.344542026519775
1,1031374,401.14959716796875,-34.35515213012695,-66.76519012451172,24.11346435546875
1,1031375,-584.7088012695312,-29.245431900024414,56.981937408447266,4.063330173492432
1,1031378,-198.1072235107422,64.8021469116211,82.2645492553711,63.80169677734375
1,1031379,465.7120361328125,68.82048797607422,-52.8631591796875,9.798736572265625
1,1031382,330.47906494140625,-68.34580993652344,-194.2957000732422,-54.73665237426758
1,1031383,-224.48696899414062,-68.9062271118164,-12.909019470214844,12.180082321166992
1,1031386,-382.2608337402344,52.976619720458984,219.7483673095703,10.846601486206055
1,1031387,339.5015869140625,13.338146209716797,89.20977020263672,-17.714962005615234
1,1031390,233.37400817871094,2.471576452255249,-167.82769775390625,-29.5067081451416
1,1031391,-267.1796569824219,-5.005722522735596,-260.0819396972656,-29.669187545776367
1,1031394,14.275298118591309,-35.210838317871094,219.0942840576172,5.500718593597412
1,1031395,96.10958862304688,-17.505212783813477,318.3257751464844,107.53076171875
1,1031398,1.4368282556533813,82.26283264160156,-272.5630187988281,51.72714614868164
1,1031399,-139.11904907226562,60.975704193115234,-120.96074676513672,-144.09913635253906
1,1031402,-140.05369567871094,-140.43589782714844,201.62841796875,-18.384723663330078
1,1031403,109.30445861816406,-28.22482681274414,55.11872100830078,60.13878631591797
1,1031406,65.47903442382812,102.13280487060547,-103.3066635131836,-117.1504135131836
1,1031407,-42.39033508300781,1.7960312366485596,-7.5327324867248535,-12.101969718933105
1,1031410,51.50352478027344,-25.8424072265625,76.18841552734375,187.36073303222656
1,1031411,-86.95088958740234,5.807506084442139,49.21791458129883,59.924072265625
1,1031414,-206.44097900390625,-18.36867332458496,-187.38375854492188,-97.00203704833984
1,1031415,170.05433654785156,-56.74805450439453,-275.6591796875,-60.33285140991211
1,1031418,209.37091064453125,66.42223358154297,264.6422424316406,-33.70463943481445
1,1031419,-94.98382568359375,92.40062713623047,209.16226196289062,-10.869402885437012
1,1031422,37.333045959472656,-88.65689086914062,-133.07521057128906,135.2264404296875
1,1031425,93.78861236572266,-81.9513168334961,1.5190731287002563,45.63728332519531
1,1031425,-123.04013061523438,75.7885971069336,60.047882080078125,-124.85040283203125
1,1031428,-43.11594772338867,74.29580688476562,15.741690635681152,-41.814388275146484
1,1031429,48.92713165283203,-41.02702713012695,-17.63956069946289,16.602867126464844
1,1031432,-26.351720809936523,-35.27825164794922,-38.75437927246094,50.65471267700195
1,1031433,24.494060516357422,-3.5679283142089844,-24.06157112121582,-12.240717887878418
1,1031436,176.4722442626953,-26.27628517150879,-18.455453872680664,-32.25865173339844
1,1031437,-81.62925720214844,31.82303237915039,22.999053955078125,58.2200813293457
1,1031440,-327.45391845703125,24.89069366455078,41.53779602050781,48.925071716308594
1,1031441,117.19865417480469,-55.13868713378906,-55.868839263916016,-51.62099838256836
1,1031444,190.9845733642578,-28.156827926635742,-82.63141632080078,-90.2081527709961
1,1031445,-113.15019989013672,40.69101333618164,-2.275963068008423,40.41184997558594
1,1031448,211.70704650878906,41.19535446166992,121.13309478759766,62.37788391113281
1,1031449,-31.245275497436523,-11.084824562072754,26.47896385192871,78.3865966796875
1,1031452,-348.6953125,-15.126581192016602,-118.50172424316406,-117.2603988647461
1,1031453,201.6707305908203,-35.57059860229492,24.88408851623535,-250.91697692871094
1,1031456,-278.5128173828125,1.7809211015701294,79.54019165039062,198.53306579589844
1,1031457,-85.7430419921875,122.59395599365234,-25.321178436279297,189.0426788330078
1,1031460,569.3567504882812,6.805785179138184,-44.62611389160156,-57.587589263916016
1,1031461,-229.01950073242188,-118.702392578125,20.24713706970215,10.867801666259766
1,1031464,-215.7030792236328,-4.1400909423828125,-12.862685203552246,-123.57705688476562
1,1031465,288.01708984375,50.723209381103516,-38.69003677368164,-82.89327239990234
1,1031468,23.32183837890625,-5.730628490447998,30.790250778198242,176.14085388183594
1,1031469,-164.31585693359375,-30.754087448120117,-15.624300956726074,70.82199096679688
1,1031472,136.3657684326172,31.845909118652344,20.539276123046875,-153.70803833007812
1,1031473,208.69932556152344,14.120343208312988,99.2715072631836,-49.113094329833984
1,1031476,112.99170684814453,-70.51222229003906,205.48886108398438,81.29524993896484
1,1031477,-337.2916259765625,19.260046005249023,105.76483154296875,12.278974533081055
1,1031480,-561.5489501953125,29.55600929260254,-549.2014770507812,5.798578262329102
1,1031481,401.3233642578125,-16.515954971313477,-276.7030334472656,-1.736768126487732
1,1031484,228.53326416015625,-29.20151710510254,417.44140625,-23.076763153076172
1,1031485,-338.31488037109375,-54.73126220703125,17.985774993896484,18.473365783691406
1,1031488,181.94943237304688,88.91000366210938,-17.143634796142578,-17.36893081665039
1,1031489,121.75558471679688,88.45635223388672,175.3623809814453,-32.54705810546875
1,1031492,-100.1716079711914,-33.1515998840332,-100.03009033203125,5.73359489440918
1,1031493,4.028329372406006,-37.05391311645508,-135.8296356201172,56.2339973449707
1,1031496,51.86282730102539,-24.167585372924805,-6.6312575340271,7.536068439483643
1,1031497,111.27992248535156,24.08976936340332,62.07177734375,-31.778303146362305
1,1031500,-58.601341247558594,-15.822504043579102,63.15312957763672,-60.879905700683594
1,1031501,-154.17816162109375,-60.36174011230469,1.8659629821777344,-88.79476165771484
1,1031504,121.36107635498047,43.93911361694336,-10.151558876037598,117.50910949707031
1,1031505,368.2220458984375,76.61956024169922,1.3296782970428467,116.19824981689453
1,1031508,-428.9845275878906,-8.621435165405273,-10.095484733581543,-2.1872265338897705
1,1031509,-886.9659423828125,-65.60230255126953,42.99082946777344,29.620073318481445
1,1031512,568.692626953125,-15.385807991027832,-135.95042419433594,-145.2390594482422
1,1031513,903.1058959960938,33.34440994262695,-231.03533935546875,-110.34724426269531
1,1031516,-469.18035888671875,-15.2639799118042,295.8050842285156,157.34561157226562
1,1031517,-674.4090576171875,-12.338386535644531,282.1537170410156,75.55756378173828
1,1031520,467.1731262207031,20.279582977294922,-401.0439453125,-46.17354202270508
1,1031521,359.4775085449219,14.729560852050781,-156.14227294921875,-52.8285026550293
1,1031524,-347.1874084472656,-12.520715713500977,313.8924255371094,-13.040523529052734
1,1031525,138.120361328125,23.895212173461914,113.87767028808594,37.86715316772461
1,1031528,221.0753936767578,23.64737319946289,-45.21120834350586,-45.95833969116211
1,1031529,-46.54662322998047,-43.49409484863281,-32.57725143432617,-1.875985860824585
1,1031532,-291.0683898925781,-1.3367793560028076,9.526405334472656,39.66621780395508
1,1031533,-124.51705169677734,-19.624526977539062,-50.411582946777344,-6.398820400238037
1,1031536,315.11407470703125,-35.507328033447266,-73.52874755859375,46.0627555847168
1,1031537,-147.51657104492188,113.77091979980469,176.53134155273438,2.5551035404205322
1,1031540,-38.036415100097656,34.006072998046875,121.98285675048828,-114.17871856689453
1,1031541,370.4974365234375,-153.16024780273438,-456.4793395996094,-36.447288513183594
1,1031544,-273.6854248046875,-11.418353080749512,-228.8993682861328,142.94354248046875
1,1031545,-363.396484375,89.79012298583984,455.3824157714844,80.75353240966797
1,1031548,189.2664337158203,0.5360802412033081,180.07623291015625,-138.595703125
1,1031549,218.07269287109375,-31.803037643432617,-152.6338653564453,-116.64424133300781
1,1031552,10.58298110961914,13.59853458404541,-94.56790161132812,130.57923889160156
1,1031553,13.197593688964844,10.900445938110352,22.556011199951172,57.94239807128906
1,1031556,-56.80520248413086,-30.19478988647461,80.5289306640625,-106.50890350341797
1,1031557,-358.01568603515625,30.838117599487305,26.45714569091797,80.16216278076172
1,1031560,46.41455078125,33.111454010009766,-93.99092864990234,3.9961962699890137
1,1031561,423.27276611328125,-55.98149490356445,-113.64144897460938,-141.06492614746094
1,1031564,-0.9691124558448792,-16.298675537109375,113.5218734741211,83.8369140625
1,1031565,-122.43428802490234,26.607501983642578,78.1386489868164,107.05401611328125
1,1031568,-127.73567962646484,-7.882744312286377,-35.15665054321289,-109.156494140625
1,1031569,-135.02157592773438,-13.787120819091797,-54.0719108581543,-48.77642822265625
1,1031572,201.07481384277344,41.8439826965332,-1.3949161767959595,135.07958984375
1,1031573,104.82276916503906,0.7862557172775269,73.30646514892578,19.00906753540039
1,1031576,-9.290759086608887,-65.77654266357422,-188.7045135498047,-53.6912727355957
1,1031577,-33.61375427246094,52.799102783203125,-56.3541145324707,69.02774047851562
1,1031580,-191.3336944580078,31.628252029418945,124.75911712646484,-17.659893035888672
1,1031581,166.47547912597656,-59.35222625732422,12.364169120788574,-109.8189926147461
1,1031584,250.7754364013672,31.603395462036133,216.8264617919922,-19.6602725982666
1,1031585,324.3456726074219,49.25971603393555,-12.201390266418457,-53.316680908203125
1,1031588,-428.37786865234375,-40.67403030395508,-10.201380729675293,31.812297821044922
