Aktueller Finger,timestamp_ms,sensor_0,sensor_1,sensor_2,sensor_3
0,121321,-24.728778839111328,-27.802711486816406,-154.91220092773438,6.7829508781433105
0,121322,5.026514053344727,-4.925062656402588,22.407257080078125,58.118560791015625
0,121324,1.1786805391311646,10.611988067626953,134.9601593017578,-39.6663818359375
0,121579,-0.12863478064537048,26.518482208251953,-29.226640701293945,-31.044979095458984
0,121580,17.769065856933594,5.316803455352783,-114.0394058227539,11.717568397521973
0,121583,21.356779098510742,-9.81275463104248,80.0106201171875,30.37506866455078
0,121584,-20.766401290893555,-15.656827926635742,37.22196578979492,3.2162904739379883
0,121587,-12.016619682312012,0.5592677593231201,-53.349910736083984,-8.298514366149902
0,121588,5.858304977416992,0.10530553758144379,36.732669830322266,28.819780349731445
0,163009,10.358845710754395,42.14409255981445,183.65476989746094,31.384265899658203
0,163010,-4.240716457366943,49.955169677734375,78.79373168945312,-19.460010528564453
0,163011,-34.798545837402344,-20.409517288208008,-150.72415161132812,-29.6489315032959
0,163014,-2.7745437622070312,-70.6900405883789,-142.72703552246094,-19.483224868774414
0,163015,0.7575907707214355,-53.2995491027832,-88.2468490600586,-65.08963012695312
0,163018,18.04254150390625,47.12279510498047,68.62201690673828,35.581993103027344
0,163019,9.694669723510742,34.97083282470703,75.88790130615234,81.26001739501953
0,163022,-68.09708404541016,-46.42839813232422,-89.62322998046875,-25.64031410217285
0,163023,34.78517150878906,-6.281274318695068,-20.859792709350586,-39.027408599853516
0,163026,99.77816009521484,29.315948486328125,58.76597213745117,50.84672546386719
0,163027,-29.474660873413086,13.250633239746094,118.54640197753906,56.196590423583984
0,163030,-39.16767883300781,13.275240898132324,78.72665405273438,-69.17416381835938
0,163031,5.64453649520874,11.962340354919434,-89.33653259277344,-54.86856460571289
0,163034,-14.925375938415527,-28.646625518798828,-145.8872833251953,14.497319221496582
0,163035,2.39437198638916,-37.32073974609375,-70.53975677490234,16.441316604614258
0,163038,31.58055305480957,32.27973175048828,128.3847198486328,35.743980407714844
0,163039,7.515467643737793,26.96422004699707,85.93626403808594,4.58950662612915
0,163042,-15.972456932067871,-17.719715118408203,-81.7502670288086,-24.640804290771484
0,163044,-25.145797729492188,-17.359956741333008,-38.05207443237305,-59.122623443603516
0,163046,3.4227936267852783,-8.890643119812012,3.211367607116699,-26.803237915039062
0,163048,24.482563018798828,20.74013900756836,95.97136688232422,111.848876953125
0,163050,-15.06351375579834,24.898948669433594,89.12342071533203,55.82160949707031
0,163052,-22.152099609375,-2.111284017562866,-97.50347900390625,-70.2828140258789
0,163054,1.5195016860961914,-13.043984413146973,-96.13724517822266,-41.36214828491211
0,163056,-7.174691677093506,-46.47999572753906,-12.299924850463867,-6.018182277679443
0,163058,1.2317075729370117,-10.509214401245117,55.5265007019043,20.444488525390625
0,163060,44.296905517578125,73.1734848022461,67.08304595947266,34.47005844116211
0,163062,-8.863143920898438,-21.50115966796875,-62.842987060546875,-14.36146354675293
0,163064,-40.0958366394043,-56.32668685913086,-67.1188735961914,-0.1995275318622589
0,163066,20.761472702026367,52.73915100097656,26.09980010986328,22.451475143432617
0,163068,39.42436599731445,21.97016143798828,107.16764068603516,-7.3037238121032715
0,163070,-4.443181991577148,-17.333171844482422,78.83452606201172,-5.3526177406311035
0,163071,-21.451684951782227,16.7354679107666,-76.84971618652344,-7.684237957000732
0,163074,7.081018924713135,-19.721153259277344,-90.96749114990234,-9.056083679199219
0,163075,-17.944067001342773,-50.028411865234375,-61.1638298034668,-30.354135513305664
0,163078,7.122445106506348,16.957101821899414,42.095726013183594,-1.3485678434371948
0,163079,34.38572692871094,48.12163543701172,111.0463638305664,53.182334899902344
0,163082,-32.147071838378906,-11.866369247436523,-59.73514938354492,0.21788835525512695
0,163083,-54.32461929321289,-37.755027770996094,-99.23509979248047,-41.63667678833008
0,163086,19.890295028686523,4.07554817199707,16.040420532226562,-12.238496780395508
0,163087,62.677818298339844,30.919340133666992,100.98625183105469,35.594215393066406
0,163090,-20.61556053161621,2.9505772590637207,80.8628158569336,27.929935455322266
0,163091,-33.775020599365234,9.354663848876953,-32.898193359375,-19.711580276489258
0,163094,27.044862747192383,7.874075412750244,-109.41889190673828,-27.419832229614258
0,163095,-6.870079040527344,-39.69641876220703,-49.804595947265625,-28.822275161743164
0,163097,-24.691802978515625,-10.894893646240234,104.00955200195312,22.57423973083496
0,163100,34.27066421508789,38.8168830871582,83.66859436035156,75.37358856201172
0,163101,18.423625946044922,29.95570182800293,-58.98447036743164,-3.618093729019165
0,163104,-38.09928512573242,-25.263038635253906,-95.076171875,-75.3163833618164
0,163105,4.280696868896484,-56.20684814453125,-19.637075424194336,-20.10437774658203
0,163108,25.219226837158203,18.820301055908203,109.52409362792969,61.55157470703125
0,163109,5.179135799407959,58.78236389160156,86.7219009399414,29.512542724609375
0,163112,-19.0969181060791,-21.40819549560547,-102.01912689208984,-55.82181167602539
0,163113,-42.08583450317383,-37.188255310058594,-88.92658996582031,-34.101200103759766
0,163116,18.168588638305664,7.013156414031982,16.454116821289062,13.839070320129395
0,163117,29.779863357543945,-8.72327995300293,41.36809158325195,26.10601234436035
0,163120,-8.67473316192627,11.831929206848145,90.8598403930664,30.452613830566406
0,163121,0.7401930093765259,14.132554054260254,-18.58858299255371,-0.930030107498169
0,163124,-10.601037979125977,-29.483633041381836,-119.67082977294922,-32.59135437011719
0,163125,-1.5717490911483765,2.8294997215270996,-43.82761001586914,7.166929244995117
0,163128,31.14160919189453,40.93590545654297,119.6725845336914,43.449275970458984
0,163129,-2.5474438667297363,18.36786651611328,148.86911010742188,-18.00568962097168
0,163132,-28.16000747680664,-15.715191841125488,-114.0218734741211,-112.27998352050781
0,163133,5.3948445320129395,-29.54665184020996,-135.74671936035156,-32.92617416381836
0,163136,18.86498260498047,-17.487886428833008,27.75686264038086,156.46908569335938
0,163137,-2.8191537857055664,12.590428352355957,47.185264587402344,62.85516357421875
0,163140,-10.90602970123291,5.8792829513549805,75.25271606445312,-93.81611633300781
0,163141,-1.8996291160583496,10.59018611907959,-25.1662540435791,-20.406253814697266
0,163144,-8.901774406433105,-8.25595474243164,-102.61087799072266,11.04465103149414
0,163145,-2.313668966293335,-28.56241798400879,-15.695454597473145,11.760643005371094
0,163148,22.785160064697266,29.831438064575195,93.6768569946289,21.190698623657227
0,163150,-3.9825336933135986,16.08065414428711,116.7973861694336,-8.314148902893066
0,163152,-18.470293045043945,-17.311447143554688,-93.75238800048828,3.8339438438415527
0,163154,14.461366653442383,4.338047981262207,-140.4296112060547,-15.45562744140625
0,163156,10.422871589660645,-11.149436950683594,37.81471252441406,-27.624784469604492
0,163158,0.1802493780851364,9.230744361877441,87.71538543701172,20.193450927734375
0,163160,0.04214443266391754,49.59232711791992,67.5685806274414,16.317367553710938
0,163162,-9.43303394317627,-14.128735542297363,-44.69689178466797,-32.71087646484375
0,163164,-14.495587348937988,-57.80015182495117,-117.25502014160156,-16.5560245513916
0,163166,8.570476531982422,0.06576947867870331,-19.270950317382812,10.664987564086914
0,163168,17.29706573486328,25.524471282958984,108.11859130859375,21.535600662231445
0,163170,-22.040803909301758,11.253649711608887,87.86151123046875,13.378974914550781
0,163171,-11.927464485168457,8.247096061706543,-45.4074592590332,1.2201082706451416
0,163174,17.557891845703125,-19.786293029785156,-126.55029296875,-16.9892635345459
0,163175,-11.181803703308105,-42.150245666503906,-58.59830856323242,-31.60593032836914
0,163178,5.966424942016602,18.634071350097656,149.8843231201172,68.96475219726562
0,163179,26.738821029663086,50.263553619384766,107.45742797851562,34.12937545776367
0,163182,-18.00734519958496,-14.655113220214844,-93.6138916015625,-108.7551040649414
0,163183,-25.55571746826172,-21.615678787231445,-100.96977233886719,-21.462745666503906
0,163186,12.956809997558594,-2.695244073867798,-34.75715637207031,55.186893463134766
0,163187,22.65154457092285,-0.7812532782554626,93.69642639160156,27.22641944885254
0,163190,6.541464805603027,26.377933502197266,110.12918853759766,22.569581985473633
0,163191,-8.011931419372559,-0.5129448175430298,-36.06138610839844,-34.71151351928711
0,163194,-30.259201049804688,-36.96286392211914,-141.44815063476562,-66.58460998535156
0,163195,-17.138874053955078,2.1588022708892822,-49.80792236328125,14.308119773864746
0,163198,42.474365234375,24.419649124145508,152.7570343017578,60.22884750366211
0,163199,26.89850616455078,18.127548217773438,78.40595245361328,1.8049066066741943
0,163202,-28.155010223388672,6.141783714294434,-77.11748504638672,-9.140202522277832
0,163203,-18.3747615814209,-30.941936492919922,-68.09654998779297,-2.791736125946045
0,163206,7.598139762878418,-28.738258361816406,-54.16759490966797,-27.947481155395508
0,163207,25.898679733276367,3.2573401927948,63.72560501098633,14.06224536895752
0,163210,6.617855072021484,36.287532806396484,120.90158081054688,40.69814682006836
0,163211,-24.44601058959961,37.84605026245117,-43.493778228759766,-27.993165969848633
0,163214,-23.131948471069336,-50.980167388916016,-111.40617370605469,-35.6852912902832
0,163215,2.237154245376587,-56.85565185546875,-33.147098541259766,32.6767692565918
0,163218,41.9183464050293,64.87898254394531,123.63800811767578,36.08884048461914
0,163219,6.793855667114258,37.63285446166992,100.55390167236328,-19.387231826782227
0,163222,-57.237884521484375,-37.07085037231445,-107.97828674316406,-40.377052307128906
0,163223,-13.400345802307129,-26.27058982849121,-103.18611907958984,3.761359691619873
0,163226,30.530553817749023,-9.46151351928711,3.1847848892211914,19.90604591369629
0,163227,17.693967819213867,25.319355010986328,107.03862762451172,9.703536033630371
0,163230,12.730440139770508,29.72269058227539,93.40727996826172,3.713456630706787
0,163231,-3.1039929389953613,-2.0696182250976562,-75.17929077148438,-18.631427764892578
0,163234,-30.731239318847656,-46.87841033935547,-106.84850311279297,0.7143607139587402
0,163235,-8.353243827819824,-6.947652816772461,-22.33550262451172,-1.1625497341156006
0,163238,44.10734176635742,58.13479995727539,97.18383026123047,2.0280117988586426
0,163239,13.150618553161621,8.103470802307129,83.50239562988281,20.833438873291016
0,163242,-38.55863952636719,-34.84058380126953,-66.51422119140625,-28.746732711791992
0,163243,-33.11595153808594,-30.685678482055664,-99.31478881835938,-39.44819641113281
0,163246,17.766523361206055,5.907345771789551,-21.048280715942383,24.516862869262695
0,163247,51.328758239746094,59.237457275390625,114.53303527832031,60.030948638916016
0,163250,-14.692468643188477,14.34382152557373,67.17376708984375,-4.572536468505859
0,163251,-41.81069564819336,-38.85764694213867,-83.65567016601562,-51.718421936035156
0,163255,4.938071250915527,-49.84564208984375,-104.94245147705078,-8.523096084594727
0,163256,30.637699127197266,-18.192893981933594,-20.570358276367188,9.504587173461914
0,163257,23.92205238342285,54.99890899658203,139.06488037109375,7.156658172607422
0,163260,-9.327116966247559,45.8052978515625,87.18726348876953,20.982816696166992
0,163261,-21.152721405029297,-17.15384864807129,-77.8251724243164,5.459475517272949
0,163264,-11.717068672180176,-39.999176025390625,-84.791015625,4.746669292449951
0,163265,-0.32223808765411377,-17.79831886291504,-35.5001220703125,-8.021355628967285
0,163268,2.4793505668640137,18.544660568237305,92.96733093261719,-10.418927192687988
0,163269,5.3182268142700195,51.195899963378906,140.8292236328125,23.549238204956055
0,163272,2.576951265335083,-9.879960060119629,-103.20844268798828,-21.47237777709961
0,163273,-28.309663772583008,-38.44306182861328,-137.8391571044922,-20.5062198638916
0,163276,-11.527782440185547,9.06298542022705,42.01931381225586,24.84294319152832
0,163277,40.40568542480469,-2.8930177688598633,64.76828002929688,4.34394645690918
0,163280,23.54233169555664,12.318717956542969,74.68646240234375,-19.563474655151367
0,163281,-35.42045593261719,14.16489315032959,-30.52906608581543,-20.355180740356445
0,163284,-33.24882888793945,-33.376373291015625,-137.6705780029297,10.86059284210205
0,163285,32.25105285644531,-22.82085418701172,-31.765901565551758,30.597217559814453
0,163288,37.6740837097168,55.80712890625,123.81568145751953,16.801788330078125
0,163289,-8.896923065185547,36.38077163696289,99.36092376708984,6.904754161834717
0,163292,-20.587467193603516,-58.5325927734375,-93.75823211669922,-125.0897216796875
0,163293,-0.646332323551178,-28.769062042236328,-91.14725494384766,-67.52239227294922
0,163296,9.373230934143066,21.961227416992188,24.78693389892578,192.94134521484375
0,163297,5.944090843200684,0.06450404971837997,55.53900146484375,85.51579284667969
0,163300,0.14013554155826569,3.3697879314422607,73.09693145751953,-74.05854034423828
0,163301,-15.918319702148438,20.83910369873047,-23.62991714477539,-41.230201721191406
0,163304,-4.789295196533203,-11.883291244506836,-104.86901092529297,-37.78086853027344
0,163305,5.126010894775391,-30.616241455078125,-38.54810333251953,-59.26969528198242
0,163308,9.771888732910156,13.060063362121582,119.90345764160156,48.12890625
0,163309,6.695553302764893,29.99492835998535,114.77610778808594,114.87309265136719
0,163312,-32.49549865722656,-5.638065814971924,-125.06400299072266,-41.53451156616211
0,163313,-9.044276237487793,-26.808452606201172,-129.4283447265625,-34.87657928466797
0,163316,20.465805053710938,-17.190244674682617,40.2582893371582,110.07815551757812
0,163317,4.7799153327941895,7.869508743286133,91.08372497558594,-69.87814331054688
0,163320,30.364179611206055,41.45135498046875,70.61536407470703,-152.31814575195312
0,163321,-11.539327621459961,27.289962768554688,-57.62220001220703,79.7779769897461
0,163324,-36.743377685546875,-34.5805778503418,-111.0697021484375,53.038787841796875
0,163325,12.136064529418945,-35.329952239990234,-9.652139663696289,-28.078754425048828
0,163328,-7.6361517906188965,8.538830757141113,99.06770324707031,47.350765228271484
0,163329,33.35685348510742,52.14219665527344,108.99866485595703,17.086366653442383
0,163332,14.920647621154785,-1.4630857706069946,-97.19427490234375,-94.10514068603516
0,163333,-56.099674224853516,-50.01912307739258,-137.2618408203125,-56.88595962524414
0,163336,9.058629035949707,8.858192443847656,55.37516403198242,75.94799041748047
0,163337,16.845531463623047,4.872419834136963,94.56183624267578,57.138099670410156
0,163340,-6.905745506286621,18.330963134765625,49.85215759277344,0.28824281692504883
0,163341,14.182939529418945,4.121649742126465,-44.07526397705078,-27.166839599609375
0,163344,-3.0066800117492676,-39.23808288574219,-108.3429946899414,-42.58794021606445
0,163346,-18.508289337158203,3.4107954502105713,-21.755834579467773,48.1673583984375
0,163348,16.292001724243164,22.572246551513672,104.50818634033203,76.93802642822266
0,163350,16.707422256469727,7.117859363555908,88.66387939453125,-19.1175594329834
0,163352,-20.42656707763672,-19.560314178466797,-101.6393814086914,-48.63606643676758
0,163354,-24.918479919433594,-12.351970672607422,-140.21653747558594,-42.318092346191406
0,163358,23.745094299316406,29.40393829345703,126.4343032836914,-75.57918548583984
0,163358,32.408355712890625,12.756776809692383,173.6287078857422,-6.71349573135376
0,163360,-27.874591827392578,-14.121193885803223,-92.44557189941406,99.5116195678711
0,163362,-18.355945587158203,-8.381053924560547,-110.1406021118164,38.28251647949219
0,163364,9.540202140808105,-1.6538326740264893,-29.940900802612305,-48.48712921142578
0,163366,-5.243735313415527,-50.8531608581543,-17.354822158813477,-63.141014099121094
0,163368,14.308065414428711,1.4794542789459229,106.30338287353516,32.68497085571289
0,163370,10.785490989685059,105.87019348144531,49.3196907043457,138.2359161376953
0,163372,-37.75505447387695,-5.084624290466309,-80.40459442138672,-8.526363372802734
0,163374,-7.565266132354736,-87.14753723144531,-68.80133819580078,-62.38361740112305
0,163376,18.845430374145508,-11.173101425170898,-13.776204109191895,30.02591323852539
0,163378,13.281981468200684,47.7553825378418,133.62277221679688,-38.83357620239258
0,163380,12.220161437988281,40.8463249206543,71.25773620605469,-64.93331146240234
0,163382,-29.902009963989258,-11.276066780090332,-102.13233184814453,7.619985580444336
0,163384,-21.995071411132812,-38.59601593017578,-62.934364318847656,11.592663764953613
0,163386,49.50014114379883,-4.024478912353516,0.830714225769043,-19.50033187866211
0,163388,22.913969039916992,27.055843353271484,80.27483367919922,37.78059387207031
0,163390,-33.12036895751953,8.09901237487793,52.67613220214844,76.49327087402344
0,163392,-12.351078033447266,-41.39134979248047,-83.0413589477539,-52.40678787231445
0,163394,-4.293807029724121,-15.30441951751709,-86.06886291503906,-88.49686431884766
0,163396,11.752654075622559,26.65583038330078,-18.206214904785156,72.75225830078125
0,163398,22.811370849609375,19.857925415039062,151.18531799316406,32.84028625488281
0,163400,-7.114141464233398,23.063920974731445,97.60070037841797,-48.34917068481445
0,163402,-26.610830307006836,-21.74164390563965,-145.351318359375,12.856022834777832
0,163404,-4.100142955780029,-55.05801010131836,-94.08586883544922,12.177448272705078
0,163406,17.3311710357666,12.755821228027344,25.45001983642578,51.27252197265625
0,163408,13.939027786254883,62.18925857543945,110.31692504882812,-72.59766387939453
0,163410,11.699578285217285,2.129640579223633,69.11490631103516,-217.66505432128906
0,163412,-14.083593368530273,-32.073158264160156,-74.60521697998047,0.28477397561073303
0,163414,-34.82925033569336,-16.428646087646484,-101.39945220947266,334.53607177734375
0,163416,7.527081489562988,-2.063218355178833,-32.06163024902344,400.5993347167969
0,163418,44.64954376220703,22.111583709716797,151.61354064941406,-154.36402893066406
0,163420,-16.135360717773438,0.7386919260025024,81.57540893554688,-487.088623046875
0,163422,-25.56229019165039,0.5963113903999329,-132.361572265625,-86.7345962524414
0,163424,30.21991539001465,-0.9410149455070496,-72.94029235839844,137.88763427734375
0,163426,-12.542256355285645,-20.48396110534668,11.060522079467773,144.5048065185547
0,163428,-12.484040260314941,10.145614624023438,69.18574523925781,30.304759979248047
0,163430,9.517741203308105,12.145255088806152,59.62700653076172,-166.34097290039062
0,163432,-6.984889507293701,-1.8559974431991577,-58.34000015258789,-66.87509155273438
0,163434,0.6739605069160461,-25.223501205444336,-76.87188720703125,104.52635192871094
0,163436,-13.543502807617188,-27.2492618560791,-7.25028133392334,66.81582641601562
0,163438,14.883180618286133,40.02782440185547,127.34278869628906,-4.9305806159973145
0,163440,34.390689849853516,57.289390563964844,85.71068572998047,-0.9390258193016052
0,163442,-34.42512512207031,-24.803760528564453,-135.12185668945312,-88.11943054199219
0,163444,-31.64430046081543,-60.93030548095703,-108.437744140625,-105.94031524658203
0,163446,33.643089294433594,-13.496428489685059,48.06300735473633,263.5179138183594
0,163448,13.747559547424316,25.552122116088867,103.1646728515625,151.98194885253906
0,163450,-25.203777313232422,37.28001022338867,33.28776550292969,-225.65863037109375
0,163452,1.2299913167953491,9.435701370239258,-50.171485900878906,-16.701799392700195
0,163454,23.37294578552246,-14.994277000427246,-96.7962417602539,-151.63522338867188
0,163456,-14.591523170471191,-14.649210929870605,-58.43159103393555,-202.0984344482422
0,163458,11.839712142944336,16.996707916259766,173.73512268066406,317.6206359863281
0,163460,27.61544418334961,21.06938934326172,84.3454360961914,348.43890380859375
0,163462,-30.66703224182129,-41.928096771240234,-155.4718017578125,18.72081756591797
0,163464,-18.19943618774414,-23.13318634033203,-48.63187026977539,-88.40988159179688
0,163466,0.6041277050971985,21.72908592224121,34.22804260253906,-26.519344329833984
0,163468,1.7343310117721558,19.946414947509766,77.87480926513672,-317.6846923828125
0,163470,15.948304176330566,24.265424728393555,28.95601463317871,-379.5975036621094
0,163472,-3.50846266746521,-17.512012481689453,-70.68122863769531,321.2509460449219
0,163474,-16.814035415649414,-40.74894332885742,-57.3509521484375,341.93017578125
0,163476,2.093285083770752,2.2110440731048584,-34.487335205078125,-144.86386108398438
0,163477,31.434555053710938,29.916221618652344,99.11153411865234,-212.9268035888672
0,163480,15.137129783630371,10.325028419494629,94.8216552734375,-31.123220443725586
0,163481,-32.24345397949219,-14.05277156829834,-71.11016845703125,160.50575256347656
0,163484,-28.250425338745117,-11.611653327941895,-91.0132827758789,109.94046783447266
0,163485,13.03860092163086,-2.8130273818969727,-25.998586654663086,14.502163887023926
0,163488,47.97346115112305,20.568601608276367,131.48985290527344,88.7759780883789
0,163489,-10.907356262207031,23.50267219543457,113.82516479492188,92.82074737548828
0,163492,-53.091514587402344,-27.177406311035156,-149.01966857910156,-190.20980834960938
0,163493,21.733356475830078,-33.49636459350586,-108.62287139892578,-330.3940124511719
0,163496,-5.513352394104004,-16.59304428100586,21.507198333740234,17.32072639465332
0,163497,-27.166330337524414,17.759323120117188,73.16084289550781,191.1303253173828
0,163500,64.62950897216797,45.727294921875,107.21757507324219,69.979736328125
0,163501,-1.8837287425994873,-21.510786056518555,-73.1460189819336,134.87176513671875
0,163504,-64.56888580322266,-27.731422424316406,-124.09603118896484,108.05001831054688
0,163505,23.554874420166016,24.933242797851562,10.557754516601562,-108.28221893310547
0,163508,48.003326416015625,38.429832458496094,144.70310974121094,-349.32147216796875
0,163509,7.781896114349365,7.431846618652344,100.94964599609375,-282.5555419921875
0,163512,-30.679426193237305,-37.27098846435547,-128.18995666503906,444.58319091796875
0,163513,-5.107519149780273,-12.484651565551758,-86.84085083007812,596.7338256835938
0,163516,4.730635643005371,-4.273571968078613,23.9312686920166,-207.6439971923828
0,163517,-26.640708923339844,8.468570709228516,24.480100631713867,-552.2721557617188
0,163520,0.8048030734062195,25.524656295776367,63.798065185546875,-205.0665740966797
0,163521,2.8259217739105225,-14.667774200439453,-37.3073616027832,270.4200439453125
0,163524,0.45905840396881104,-28.86042594909668,-123.03034973144531,233.3684539794922
0,163525,14.845641136169434,-24.094335556030273,-31.007484436035156,-118.2636947631836
0,163528,30.75430679321289,39.155330657958984,146.86410522460938,-50.021236419677734
0,163529,17.92622947692871,72.88870239257812,135.63848876953125,116.42992401123047
0,163532,-44.42003631591797,-29.925207138061523,-110.26811218261719,35.552955627441406
0,163533,-24.647228240966797,-64.90202331542969,-128.9803924560547,-26.61980628967285
0,163536,17.189380645751953,-8.305164337158203,14.558188438415527,130.00393676757812
0,163537,-20.20096778869629,-1.7337414026260376,73.50728607177734,-2.4908246994018555
0,163540,15.818232536315918,43.65496826171875,88.98638916015625,-269.8055725097656
0,163541,41.1309700012207,37.57526779174805,-36.498680114746094,-47.50852966308594
0,163544,-24.518632888793945,-39.152076721191406,-136.01759338378906,8.754951477050781
0,163545,-15.410571098327637,-16.69927406311035,-26.013423919677734,-53.4286003112793
0,163548,20.60848617553711,23.923221588134766,147.3961181640625,5.293748378753662
0,163549,11.477800369262695,8.57978343963623,112.97959899902344,202.17605590820312
0,163552,-40.30412673950195,-34.100830078125,-98.94866180419922,291.8887939453125
0,163553,-32.41347122192383,1.6416049003601074,-85.97467041015625,-77.66471862792969
0,163556,59.34969711303711,37.395145416259766,-3.486950397491455,-318.9931945800781
0,163557,34.196678161621094,-21.119150161743164,20.960737228393555,-146.52928161621094
0,163560,-53.94253921508789,-22.18881607055664,76.6752700805664,201.67796325683594
0,163561,-11.098616600036621,12.684252738952637,-38.275325775146484,175.70176696777344
0,163564,23.043928146362305,-3.880735397338867,-92.2967758178711,-53.772579193115234
0,163565,-11.153669357299805,-5.938453674316406,-0.21296438574790955,113.73342895507812
0,163568,21.684877395629883,32.26289749145508,86.26982116699219,-166.50042724609375
0,163569,25.55803871154785,40.60923385620117,128.08578491210938,-480.2150573730469
0,163572,-33.21259689331055,-49.834632873535156,-83.57923126220703,170.98008728027344
0,163573,-35.07330322265625,-73.46117401123047,-184.05494689941406,301.950927734375
0,163576,-5.746213912963867,27.636449813842773,20.51267433166504,-61.21223831176758
0,163577,23.394569396972656,46.00508499145508,119.57972717285156,-55.557098388671875
0,163580,32.18365478515625,26.69403839111328,102.80384826660156,67.1305160522461
0,163581,-9.055773735046387,-4.389161109924316,-65.09314727783203,231.9029083251953
0,163584,-8.739742279052734,-31.789913177490234,-162.58712768554688,129.00860595703125
0,163585,3.9507458209991455,-7.99182653427124,21.47312355041504,-223.1946258544922
0,163588,-35.78887939453125,-2.521031141281128,115.5008316040039,-307.6718444824219
0,163589,9.212257385253906,14.429913520812988,64.01056671142578,54.34136199951172
0,163592,41.7354621887207,14.300178527832031,-79.31219482421875,157.24844360351562
0,163593,-28.7294979095459,-0.6765762567520142,-105.71967315673828,-80.07231903076172
0,163596,-6.504049777984619,-12.544391632080078,47.541019439697266,-8.50519847869873
0,163597,54.90397262573242,-1.3081486225128174,91.99054718017578,88.94866943359375
0,163600,-3.4516441822052,32.13987350463867,57.899253845214844,126.23565673828125
0,163601,-66.92919158935547,-32.536319732666016,-43.165164947509766,118.70264434814453
0,163604,-10.99973201751709,-38.33319091796875,-108.06948852539062,-454.0712890625
0,163605,26.67072105407715,11.566636085510254,-46.88485336303711,-489.729736328125
0,163610,-2.6197807788848877,3.9380130767822266,69.07683563232422,586.2222290039062
0,163610,10.136653900146484,20.703887939453125,83.87181854248047,520.73583984375
0,163612,8.766227722167969,-4.894350528717041,-41.75562286376953,-360.6739501953125
0,163613,-3.6324803829193115,10.600570678710938,-50.580875396728516,-242.48150634765625
0,163616,20.670860290527344,-2.60442852973938,-28.949819564819336,140.2646026611328
0,163617,8.00440502166748,-27.199392318725586,44.149906158447266,166.43504333496094
0,163620,-23.910343170166016,40.72419738769531,125.06564331054688,-130.46131896972656
0,163621,-11.020359992980957,7.144707202911377,-56.524566650390625,-300.09527587890625
0,163624,8.201006889343262,-18.34300994873047,-129.61712646484375,167.341552734375
0,163625,7.876527309417725,12.220141410827637,29.69382667541504,398.91534423828125
0,163628,-5.968825817108154,-16.596284866333008,144.31101989746094,-269.3067321777344
0,163629,-6.1818952560424805,-2.0162532329559326,53.4522590637207,-304.0709228515625
0,163632,-0.6299909949302673,29.77408790588379,-138.69398498535156,637.2744750976562
0,163633,3.9578990936279297,-20.30303955078125,-86.7169418334961,373.2738342285156
0,163636,-5.417496681213379,-51.463314056396484,22.937944412231445,-978.2286376953125
0,163637,-27.05144691467285,27.186586380004883,53.22555923461914,-547.0147705078125
0,163640,27.582544326782227,77.75172424316406,95.26481628417969,780.1673583984375
0,163641,24.34009552001953,-11.182706832885742,-69.28147888183594,359.78533935546875
0,163644,-30.556232452392578,-95.10907745361328,-156.11492919921875,-253.58343505859375
0,163645,2.054914712905884,-36.87287521362305,12.510027885437012,-196.75047302246094
0,163648,13.974374771118164,74.0561294555664,136.49322509765625,-234.2239532470703
0,163649,6.007573127746582,64.01631927490234,100.84810638427734,125.97404479980469
0,163652,11.38197135925293,-25.145828247070312,-88.05229949951172,623.1097412109375
0,163653,-9.199015617370605,-48.480533599853516,-96.71866607666016,119.42167663574219
0,163656,-34.997013092041016,-45.668941497802734,4.232094764709473,-109.1742172241211
0,163657,1.8327100276947021,28.84556007385254,67.03800201416016,-232.89016723632812
0,163660,38.50023651123047,91.04209899902344,121.16143798828125,-764.4229125976562
0,163661,-12.684172630310059,-3.713595151901245,-36.4445686340332,227.15408325195312
0,163664,-22.097196578979492,-51.647029876708984,-136.50897216796875,704.0447998046875
0,163665,-7.521397113800049,-25.30486297607422,-25.288345336914062,-282.9316711425781
0,163668,0.6716134548187256,8.045794486999512,78.16536712646484,-434.96612548828125
0,163669,39.639862060546875,35.855831146240234,60.02724075317383,381.0316162109375
0,163672,1.0699573755264282,-24.445552825927734,-110.78033447265625,348.9544677734375
0,163673,-2.978640079498291,-8.963851928710938,-80.31065368652344,-291.3592224121094
0,163676,9.095738410949707,59.142066955566406,129.54466247558594,-344.19354248046875
0,163677,-33.99660110473633,1.7102506160736084,60.487789154052734,-8.733484268188477
0,163680,5.79720401763916,-23.379924774169922,-22.666513442993164,279.1786193847656
0,163681,12.799367904663086,-14.217940330505371,15.694180488586426,140.5139617919922
0,163684,-17.451679229736328,-46.78566360473633,-83.96542358398438,-145.18373107910156
0,163685,-36.45046615600586,-48.78065490722656,-113.69017028808594,-5.712709903717041
0,163688,20.128467559814453,50.74283981323242,167.9644317626953,303.68133544921875
0,163689,79.88941192626953,86.17005157470703,188.07504272460938,3.601069450378418
0,163692,-33.39073181152344,-41.26457977294922,-189.39923095703125,-620.5206298828125
0,163693,-55.58842086791992,-61.92198944091797,-155.30831909179688,88.24787902832031
0,163696,15.769207954406738,8.578516006469727,71.59454345703125,589.9779663085938
0,163697,26.622148513793945,42.7287712097168,85.88597106933594,-510.5643310546875
0,163700,-15.30567455291748,34.593570709228516,26.067089080810547,-233.1165008544922
0,163701,-13.591238021850586,-7.634032726287842,-65.07612609863281,399.70306396484375
0,163704,50.759735107421875,-4.632730484008789,-37.33236312866211,227.79928588867188
0,163705,-13.773693084716797,-10.339120864868164,2.7251720428466797,65.57539367675781
0,163708,-32.974063873291016,6.618702411651611,46.43958282470703,-258.4556884765625
0,163709,8.497153282165527,14.210505485534668,71.55003356933594,-290.9496765136719
0,163712,16.18474578857422,-31.68499755859375,-66.13675689697266,136.6159210205078
0,163713,17.778091430664062,-2.734652519226074,-94.32679748535156,254.73709106445312
0,163716,-23.56810760498047,-3.4329020977020264,73.42546081542969,-115.69987487792969
0,163717,9.68164348602295,0.5074228048324585,94.32520294189453,16.12541389465332
0,163720,19.781240463256836,37.8344841003418,-13.083669662475586,165.5364990234375
0,163721,-21.405832290649414,-16.00185775756836,-54.91106414794922,-114.12181091308594
0,163724,-17.54507064819336,-57.77098846435547,-75.9926528930664,-237.8468017578125
0,163725,-13.669136047363281,-33.48288345336914,-33.56352615356445,-52.279666900634766
0,163728,-30.67960548400879,12.703474044799805,83.49906158447266,202.2193145751953
0,163729,31.650440216064453,84.75137329101562,122.57125854492188,109.68321228027344
0,163732,53.97200012207031,45.472808837890625,-61.187049865722656,-213.8783721923828
0,163733,-42.718318939208984,-48.85392761230469,-133.3643798828125,-27.750802993774414
0,163736,-25.217370986938477,-50.288551330566406,13.093422889709473,244.8004150390625
0,163737,25.634492874145508,-9.235963821411133,59.76118087768555,74.00228881835938
0,163740,37.00504684448242,85.62353515625,108.57312774658203,-47.31169128417969
0,163741,6.698470592498779,23.951086044311523,11.53531551361084,139.6971893310547
0,163744,-47.74009323120117,-82.81053161621094,-157.6117706298828,-264.8075866699219
0,163745,13.944424629211426,-18.782896041870117,-54.197227478027344,-768.279541015625
0,163748,25.516510009765625,17.246463775634766,121.6694107055664,287.7236022949219
0,163749,-34.66506576538086,18.99843406677246,106.16845703125,915.2744140625
0,163752,-6.78570032119751,14.544801712036133,-119.1248779296875,98.07154083251953
0,163753,-3.924292802810669,-36.830665588378906,-139.91297912597656,-448.82000732421875
0,163756,13.871752738952637,-11.089095115661621,95.25569152832031,-817.7619018554688
0,163759,25.996822357177734,61.96119689941406,162.0249481201172,312.05194091796875
0,163760,-40.743587493896484,5.341473579406738,-12.33172607421875,943.5113525390625
0,163762,5.3338303565979,-36.13681411743164,-106.82035064697266,-317.6877136230469
0,163764,30.324430465698242,11.818116188049316,-60.20839309692383,-26.769929885864258
0,163766,-14.542475700378418,-18.939851760864258,-34.333126068115234,100.82381439208984
0,163768,-1.290021300315857,-20.716577529907227,115.18006134033203,-377.9986572265625
0,163770,-11.365041732788086,32.007896423339844,121.66521453857422,-93.77129364013672
0,163772,-18.646221160888672,-21.999845504760742,-164.68096923828125,20.029582977294922
0,163774,-6.52264404296875,-27.633743286132812,-165.91184997558594,160.0336456298828
0,163776,32.202091217041016,48.559471130371094,110.77605438232422,204.7272491455078
0,163778,54.108253479003906,25.11646270751953,146.77926635742188,-169.53614807128906
0,163780,-4.8468708992004395,-1.1658251285552979,21.019847869873047,-411.593505859375
0,163782,-69.85002899169922,-10.072075843811035,-79.4897689819336,43.17996597290039
0,163784,-22.799636840820312,-38.9506950378418,-75.88983917236328,486.9640197753906
0,163786,57.28769302368164,1.224645733833313,67.28973388671875,198.135498046875
0,163788,44.94658660888672,43.354766845703125,110.83174896240234,-381.33807373046875
0,163790,4.271623611450195,26.42236328125,-17.63742446899414,-172.835693359375
0,163792,-71.072021484375,-33.37843704223633,-167.92283630371094,323.79144287109375
0,163794,-33.48155975341797,-42.295536041259766,-69.95024108886719,-45.05854797363281
0,163796,67.43573760986328,5.002730846405029,154.60984802246094,-292.372314453125
0,163798,-14.975339889526367,12.405604362487793,68.05845642089844,141.20924377441406
0,163800,-38.25469207763672,4.047945022583008,-56.11561584472656,310.9045715332031
0,163802,16.778295516967773,-28.786283493041992,-54.693580627441406,59.522056579589844
0,163804,-24.073415756225586,-22.78035545349121,-86.71920013427734,-310.0858459472656
0,163806,8.819640159606934,40.323421478271484,-13.911195755004883,-245.5784912109375
0,163808,75.28487396240234,52.07029342651367,125.82283020019531,359.43609619140625
0,163810,-4.599031448364258,7.556227684020996,120.4089584350586,158.73573303222656
0,163812,-33.32777404785156,-24.340885162353516,-56.975868225097656,-459.0650634765625
0,163814,27.25823974609375,-11.818903923034668,-91.86414337158203,-179.42947387695312
0,163816,-48.001346588134766,-14.704627990722656,54.142391204833984,308.51708984375
0,163818,-53.29778289794922,-8.03920841217041,86.4012451171875,229.8507080078125
0,163820,78.43898010253906,12.691720008850098,-31.73300552368164,227.9369659423828
0,163822,21.350149154663086,-12.06453800201416,-133.73011779785156,-139.10984802246094
0,163824,-90.42479705810547,-23.75457000732422,-72.85018157958984,-658.065673828125
0,163826,21.13738441467285,18.540008544921875,25.560317993164062,98.02611541748047
0,163828,77.04137420654297,61.773597717285156,157.29356384277344,539.6005859375
0,163830,-47.80097961425781,13.65034294128418,115.57848358154297,-33.35782241821289
0,163832,-40.72539138793945,-63.122032165527344,-185.8946533203125,-146.14459228515625
0,163834,31.208681106567383,-15.811501502990723,-127.93806457519531,-17.3322811126709
0,163836,43.004425048828125,28.746414184570312,108.53913879394531,-324.5830383300781
0,163838,40.78060531616211,2.7183659076690674,106.91475677490234,219.65147399902344
0,163840,-50.94973373413086,-19.54149627685547,13.203248977661133,396.9710388183594
0,163842,-36.82697677612305,10.355900764465332,-56.25375747680664,-700.4281005859375
0,163844,34.49165344238281,9.71142578125,-68.95524597167969,178.60610961914062
0,163846,-27.937288284301758,-40.696189880371094,-34.14863586425781,682.9115600585938
0,163848,0.3784920275211334,19.416460037231445,99.74710083007812,-478.56390380859375
0,163850,33.01078414916992,30.4703311920166,88.63743591308594,-195.53555297851562
0,163852,-22.595937728881836,-7.643144607543945,-125.16289520263672,267.1903076171875
0,163854,-37.405845642089844,-1.7396355867385864,-117.4107437133789,-25.955272674560547
0,163856,5.687132358551025,-15.561759948730469,86.58173370361328,-146.48779296875
0,163858,48.602195739746094,6.4800333976745605,132.8720703125,66.69003295898438
0,163860,17.5394287109375,32.88393783569336,-2.5559375286102295,224.37582397460938
0,163862,-16.614368438720703,6.132425308227539,-86.79850006103516,-231.25990295410156
0,163864,-18.331661224365234,-36.39250183105469,-63.6338005065918,-307.8785400390625
0,163866,-2.765150785446167,-26.103866577148438,11.252467155456543,401.63909912109375
0,163868,17.327600479125977,27.14748191833496,112.88298034667969,700.7763671875
0,163870,-9.895149230957031,1.3009012937545776,40.79897689819336,-253.65438842773438
0,163872,-3.1042184829711914,-46.01792526245117,-150.6607208251953,-1037.67431640625
0,163874,23.088645935058594,13.85627555847168,-61.34538650512695,121.24158477783203
0,163876,-51.22871398925781,-9.187525749206543,86.15154266357422,634.400146484375
0,163878,-20.69137191772461,-5.521515846252441,75.63186645507812,-161.91871643066406
0,163880,79.5335922241211,97.13652038574219,44.24999237060547,-261.3460388183594
0,163882,15.073013305664062,1.081882119178772,-78.70775604248047,211.3814697265625
0,163884,-82.83845520019531,-77.42156982421875,-92.91252899169922,67.75834655761719
0,163886,-24.899044036865234,-18.91478729248047,-13.540644645690918,-375.7660217285156
0,163887,74.74264526367188,9.63489818572998,92.65191650390625,102.89221954345703
0,163890,16.33708381652832,39.251163482666016,135.00082397460938,293.849853515625
0,163891,9.418559074401855,27.906553268432617,-24.19156837463379,-108.11842346191406
0,163894,-1.1801962852478027,-26.25883674621582,-184.7512664794922,-7.671205043792725
0,163895,-78.88338470458984,-14.069655418395996,-97.413330078125,92.01116180419922
0,163898,27.876392364501953,25.225494384765625,191.43150329589844,-85.69615936279297
0,163899,41.44967269897461,-20.920108795166016,100.46784973144531,23.761655807495117
0,163902,-25.06987190246582,-19.62993621826172,-147.7703094482422,160.9547576904297
0,163903,10.747652053833008,29.152202606201172,-73.69168853759766,-76.66759490966797
0,163906,-10.674421310424805,-1.268242359161377,29.86719512939453,-342.4014892578125
0,163907,-14.346307754516602,-6.014872074127197,109.39020538330078,75.58207702636719
0,163910,10.203470230102539,11.710820198059082,55.87979507446289,424.7041320800781
0,163911,9.667049407958984,3.9750425815582275,-81.96913146972656,-346.5723571777344
0,163914,-8.230192184448242,-66.8040771484375,-92.7855453491211,-40.75407028198242
0,163915,-29.78038215637207,-45.371612548828125,-43.82904052734375,638.6148681640625
0,163918,30.576730728149414,112.01122283935547,182.73794555664062,-434.60577392578125
0,163919,14.907752990722656,58.17964172363281,165.61973571777344,-556.7427978515625
0,163924,-27.750591278076172,-64.42982482910156,-213.30104064941406,363.6169128417969
0,163924,33.74848175048828,-38.39240264892578,-186.3026123046875,293.6108703613281
0,163926,-23.692094802856445,-20.259159088134766,95.57600402832031,-186.5630645751953
0,163927,-8.245290756225586,27.640949249267578,144.55056762695312,-20.000328063964844
0,163930,49.25831604003906,43.56073760986328,22.966569900512695,259.95355224609375
0,163931,-31.402132034301758,5.458089828491211,-65.42631530761719,2.520490884780884
0,163934,-20.75189781188965,5.647153377532959,-76.64816284179688,-383.76220703125
0,163935,-13.167764663696289,-54.428123474121094,-69.82197570800781,-188.1171417236328
0,163938,-4.624596118927002,-24.341753005981445,102.83475494384766,445.6292419433594
0,163939,53.48286056518555,69.75149536132812,134.06761169433594,258.2364807128906
0,163942,-1.711087703704834,18.204612731933594,-61.873722076416016,-361.0505065917969
0,163943,-36.10773849487305,-40.793052673339844,-87.34445190429688,-228.6936492919922
0,163946,3.7738819122314453,-19.52471923828125,11.717430114746094,191.01663208007812
0,163947,29.251331329345703,22.598796844482422,94.53178405761719,125.0316390991211
0,163950,12.086095809936523,14.15561580657959,3.2150909900665283,-69.74115753173828
0,163951,-37.238525390625,-23.22136116027832,-88.88361358642578,-23.005084991455078
0,163954,-22.88865089416504,-26.144832611083984,-62.82218933105469,20.916006088256836
0,163955,6.269093036651611,-10.635519981384277,-25.24178123474121,-30.399906158447266
0,163958,44.09191131591797,38.41581344604492,120.0772476196289,21.179048538208008
0,163959,34.00707244873047,32.290714263916016,77.48564910888672,49.8996696472168
0,163962,-65.17005920410156,-44.86497497558594,-90.16477966308594,-21.688413619995117
0,163963,-39.956199645996094,-16.65303611755371,-66.779052734375,-36.227115631103516
0,163966,60.3294792175293,38.399173736572266,8.826268196105957,-11.37792682647705
0,163967,19.31232452392578,14.729972839355469,118.77610778808594,-68.71602630615234
0,163970,-31.147071838378906,3.6928629875183105,46.788108825683594,-21.09867286682129
0,163971,0.816860020160675,-2.2633206844329834,-110.092529296875,111.37335205078125
0,163974,-18.619937896728516,-50.83553695678711,-85.52094268798828,-41.963619232177734
0,163975,-15.687498092651367,-38.602840423583984,-28.494239807128906,-48.50487518310547
0,163978,61.509796142578125,58.984283447265625,122.54639434814453,162.3945770263672
0,163979,23.324983596801758,28.133384704589844,96.2245864868164,56.39052200317383
0,163982,-60.00053405761719,-31.962678909301758,-114.07413482666016,-88.38348388671875
0,163983,-27.701234817504883,-3.5841712951660156,-105.28118896484375,-110.54489135742188
0,163986,21.407995223999023,-2.351109743118286,49.68577194213867,35.252105712890625
0,163987,41.02408981323242,15.27304458618164,148.86080932617188,217.33387756347656
0,163990,-1.7104262113571167,28.66608238220215,16.50937271118164,-127.1240005493164
0,163991,-29.024015426635742,7.8692193031311035,-95.59329986572266,-247.50973510742188
0,163994,3.075270891189575,-38.57632827758789,-73.78201293945312,39.53641128540039
0,163995,3.404478073120117,-25.03659439086914,-32.15576171875,109.32443237304688
0,163998,12.571582794189453,48.0411491394043,151.02748107910156,197.8114776611328
0,163999,1.065209984779358,17.487192153930664,84.67781066894531,41.92650604248047
0,164002,-18.19514274597168,-52.59343338012695,-143.884521484375,-233.1821746826172
0,164003,25.228504180908203,-14.542798042297363,-99.2263412475586,-85.18377685546875
0,164006,-10.642940521240234,17.488786697387695,25.6981258392334,-125.76605987548828
0,164007,-39.52049255371094,1.3532127141952515,111.50975036621094,-17.577856063842773
0,164010,28.062530517578125,17.321073532104492,73.86603546142578,473.18536376953125
0,164011,5.464962959289551,-1.3524353504180908,-71.93804168701172,90.08607482910156
0,164014,-1.9335745573043823,-23.717863082885742,-120.17049407958984,-323.8304748535156
0,164015,14.524028778076172,-0.06333226710557938,-1.0339604616165161,-35.174896240234375
0,164018,-7.831593036651611,43.41969299316406,161.25015258789062,80.29518127441406
0,164019,1.6463730335235596,20.217702865600586,73.35819244384766,0.6505764126777649
0,164022,-13.195245742797852,-45.46111297607422,-124.91252899169922,-24.028425216674805
0,164023,-4.018708229064941,-37.313602447509766,-110.20260620117188,-1.5272784233093262
0,164026,23.40916633605957,10.105423927307129,-16.746341705322266,39.46435546875
0,164027,-2.266653060913086,36.30039596557617,120.13623046875,17.16165542602539
0,164030,-13.126692771911621,12.118478775024414,89.61238098144531,-39.0020751953125
0,164031,-12.577165603637695,-21.781770706176758,-83.02471160888672,-43.826725006103516
0,164034,-8.149858474731445,-7.7676310539245605,-95.66337585449219,-51.861080169677734
0,164035,20.417308807373047,9.471576690673828,-45.58644485473633,-10.290263175964355
0,164038,-8.337998390197754,-6.826447486877441,145.34469604492188,88.24980163574219
0,164039,-1.9796229600906372,-4.488261699676514,125.10256958007812,48.21620559692383
0,164042,21.125411987304688,14.968456268310547,-139.22088623046875,-59.641845703125
0,164043,-26.912734985351562,9.981151580810547,-105.07633972167969,-23.236249923706055
0,164046,32.56589126586914,-9.018712043762207,45.78712844848633,90.40859985351562
0,164047,40.658607482910156,-4.260772228240967,131.4818115234375,136.3098602294922
0,164050,-80.24927520751953,2.49044132232666,3.4446792602539062,-149.304931640625
0,164051,-23.217845916748047,-3.4926860332489014,-127.1762924194336,-182.71119689941406
0,164054,65.02197265625,-2.4094369411468506,-36.03031921386719,1.2342947721481323
0,164055,-6.8685479164123535,-29.920026779174805,0.9349918365478516,-34.76836013793945
0,164058,-12.036479949951172,19.021595001220703,119.0765380859375,271.6363830566406
0,164059,22.0423526763916,55.7877311706543,78.88357543945312,178.22836303710938
0,164062,-20.845245361328125,-40.67726516723633,-129.2117462158203,-306.2539367675781
0,164063,-42.62194061279297,-41.18486404418945,-84.9091567993164,-197.3384246826172
0,164066,23.843183517456055,32.31201171875,50.35415267944336,211.0369110107422
0,164067,63.05842208862305,31.59507942199707,113.97026062011719,201.1220703125
0,164070,-27.958080291748047,1.690040946006775,-8.08095645904541,-112.6211929321289
0,164071,-55.86092758178711,-26.25609588623047,-100.52804565429688,-95.13754272460938
0,164074,14.739171981811523,-30.039026260375977,-57.515254974365234,-22.118370056152344
0,164075,37.48326110839844,1.2758804559707642,1.0044853687286377,-41.17818832397461
0,164078,17.678434371948242,28.662817001342773,178.0881805419922,90.94937896728516
0,164079,-7.209681987762451,25.140134811401367,84.68318939208984,107.09329223632812
0,164082,-30.21404457092285,-5.2032856941223145,-169.2796630859375,-80.07948303222656
0,164083,-5.789915561676025,-11.579580307006836,-99.98030853271484,-126.18902587890625
0,164086,6.187554836273193,-24.3233585357666,50.1824951171875,31.656341552734375
0,164087,7.031718730926514,-1.6565152406692505,124.81663513183594,102.6599349975586
0,164090,19.547609329223633,31.878419876098633,-0.8502916693687439,-1.5075218677520752
0,164091,-21.07640838623047,-15.882667541503906,-122.01094055175781,-43.21388626098633
0,164094,-21.82373046875,-34.8051643371582,-51.61894226074219,-19.48027992248535
0,164095,17.171024322509766,-6.75908899307251,24.759187698364258,18.737232208251953
0,164098,2.7962613105773926,41.962249755859375,156.9593963623047,66.81416320800781
0,164099,9.103260040283203,43.0761833190918,40.86945724487305,-14.217156410217285
0,164102,16.269359588623047,-36.12611389160156,-189.6460418701172,-99.54210662841797
0,164104,-54.63572311401367,-59.16908264160156,-107.55255126953125,-66.08372497558594
0,164106,-15.579245567321777,21.368881225585938,136.03753662109375,75.53968048095703
0,164108,64.91693115234375,51.333152770996094,194.3597869873047,103.9921646118164
0,164110,-0.9300967454910278,15.353042602539062,-59.74916076660156,-15.200499534606934
0,164112,-7.030108451843262,-4.039470672607422,-122.78546905517578,-21.390750885009766
0,164114,6.746886730194092,-31.918886184692383,-43.27716064453125,-22.686372756958008
0,164116,-11.782817840576172,-3.7972750663757324,-13.71882438659668,-24.790836334228516
0,164118,15.173243522644043,14.941783905029297,153.4668731689453,40.92397689819336
0,164120,-7.627652168273926,3.458024263381958,53.90087127685547,19.455434799194336
0,164122,-13.946856498718262,-8.044764518737793,-146.4255828857422,-38.91216278076172
0,164124,-23.35213851928711,-37.4646110534668,-90.78834533691406,-46.585147857666016
0,164126,3.519994020462036,19.697669982910156,71.71589660644531,37.404151916503906
0,164128,29.048608779907227,36.07743835449219,128.73593139648438,32.16216278076172
0,164130,-30.1155948638916,-16.41200828552246,-56.132293701171875,-47.41610336303711
0,164132,13.196127891540527,-5.012882709503174,-64.75588989257812,2.8475868701934814
0,164134,25.142847061157227,-24.748151779174805,-17.242597579956055,43.75759506225586
0,164136,-15.437480926513672,-13.845819473266602,-7.849144458770752,55.44260025024414
0,164138,14.026647567749023,47.59408187866211,145.3731231689453,-103.55541229248047
0,164140,-1.61660635471344,12.628904342651367,29.953441619873047,-158.52989196777344
0,164142,-7.798142433166504,-16.1712703704834,-128.56568908691406,261.6966552734375
0,164144,-9.133763313293457,-15.541406631469727,-101.37324523925781,181.908203125
0,164146,-6.481517314910889,-5.159273147583008,39.09843444824219,-354.8649597167969
0,164148,25.032297134399414,10.60263729095459,139.66799926757812,-174.9122772216797
0,164150,16.300315856933594,-3.818986177444458,-30.67327880859375,157.70584106445312
0,164152,-25.706392288208008,15.211880683898926,-62.0252685546875,119.096435546875
0,164154,-7.055119037628174,-17.267927169799805,-13.910470962524414,70.67646026611328
0,164156,13.172707557678223,-41.533287048339844,-20.476146697998047,32.117393493652344
0,164158,-12.534046173095703,50.127071380615234,129.14639282226562,-67.78205108642578
0,164160,2.9084830284118652,48.83768081665039,46.310707092285156,-23.186248779296875
0,164162,-9.252092361450195,-47.65274429321289,-127.46582794189453,76.14016723632812
0,164164,-15.738288879394531,-31.085683822631836,-62.212867736816406,-45.76716613769531
0,164166,21.227054595947266,14.780133247375488,39.85535430908203,38.56357955932617
0,164168,42.572425842285156,32.97645568847656,86.63922882080078,89.53031921386719
0,164170,-49.38511657714844,-3.182920455932617,-44.44964599609375,-218.03256225585938
0,164172,-58.77088928222656,-42.86415481567383,-66.57837677001953,-68.20270538330078
0,164174,82.1157455444336,48.055519104003906,25.25872230529785,156.2422332763672
0,164176,-2.612642288208008,-11.039942741394043,-20.01090431213379,-135.83035278320312
0,164178,-38.439964294433594,-41.84251022338867,107.73529052734375,-99.69048309326172
0,164180,67.90504455566406,75.01602172851562,72.77262115478516,165.50320434570312
0,164182,-27.779199600219727,-4.114515781402588,-147.5404052734375,89.489501953125
0,164184,-35.301116943359375,-55.71723556518555,-59.317344665527344,-72.85308074951172
0,164186,28.834688186645508,-8.898357391357422,74.4908447265625,-14.374723434448242
0,164188,4.077434062957764,34.63806915283203,117.16492462158203,115.6395492553711
0,164190,-14.520770072937012,20.114273071289062,-51.4786491394043,18.203224182128906
0,164192,-43.8489990234375,-52.892333984375,-153.15541076660156,-130.6201934814453
0,164194,15.61420726776123,-14.768231391906738,8.240696907043457,-33.78569412231445
0,164196,61.456275939941406,29.218130111694336,30.02169418334961,70.93366241455078
0,164198,-14.177942276000977,3.8403449058532715,77.89020538330078,3.236654758453369
0,164200,-28.438459396362305,12.27160930633545,55.79484558105469,-8.269624710083008
0,164202,44.6828727722168,23.108985900878906,-90.1067886352539,-10.003228187561035
0,164204,-14.940132141113281,-32.950565338134766,-75.59623718261719,-31.586565017700195
0,164206,-67.57496643066406,-31.798381805419922,58.156795501708984,22.45075035095215
0,164208,56.276527404785156,54.18014144897461,157.71044921875,67.43395233154297
0,164210,58.197818756103516,20.6046085357666,-26.23124122619629,-218.099853515625
0,164212,-48.33631896972656,-42.767330169677734,-132.62847900390625,-147.51806640625
0,164214,-44.659690856933594,-17.60010528564453,-42.80036544799805,379.2299499511719
0,164216,10.182904243469238,13.266767501831055,3.9708364009857178,133.29083251953125
0,164218,35.096031188964844,22.21394920349121,148.1018524169922,-115.63197326660156
0,164220,-16.33401107788086,-21.066120147705078,18.506723403930664,41.26273727416992
0,164222,-33.003761291503906,-5.507790565490723,-157.51882934570312,-115.0230484008789
0,164224,15.166080474853516,1.4528164863586426,-37.275264739990234,-183.15460205078125
0,164226,28.944746017456055,-28.948434829711914,58.49225616455078,45.35901641845703
0,164228,10.104969024658203,31.49734878540039,101.58927154541016,194.93777465820312
0,164230,-7.764066696166992,18.7806453704834,-13.209223747253418,42.33244323730469
0,164232,-7.476468563079834,-13.969624519348145,-54.37027359008789,-149.15194702148438
0,164234,-9.490727424621582,19.663440704345703,-3.5561017990112305,-28.23625373840332
0,164236,-0.8695172071456909,-15.557047843933105,-33.92735290527344,111.9008560180664
0,164238,0.8613302111625671,-2.5163633823394775,89.06787109375,3.129794120788574
0,164240,-6.488877296447754,34.67192840576172,42.292083740234375,-28.976640701293945
0,164242,-6.9257025718688965,-20.90012550354004,-134.909423828125,-124.68328094482422
0,164244,12.778853416442871,-21.44491195678711,-60.22241973876953,-51.52618408203125
0,164246,20.28216552734375,6.146888732910156,103.86322021484375,267.2588195800781
0,164248,17.8992919921875,28.472593307495117,132.54083251953125,196.7486114501953
0,164250,-23.828842163085938,4.8316521644592285,-86.86109924316406,-295.2131652832031
0,164252,-55.3665657043457,-53.72527313232422,-128.28334045410156,-280.42425537109375
0,164254,33.9476318359375,-14.41866397857666,5.511612415313721,-25.173728942871094
0,164256,39.148441314697266,18.237504959106445,23.072912216186523,80.98748779296875
0,164258,-24.97308349609375,14.390970230102539,108.0406723022461,411.68548583984375
0,164260,-26.06949234008789,-4.303354740142822,5.043235778808594,-70.84542083740234
0,164261,-9.19379997253418,-9.337061882019043,-125.41875457763672,-276.89349365234375
0,164264,37.0245475769043,26.947107315063477,0.12778303027153015,128.89584350585938
0,164265,33.29446792602539,-2.334660530090332,29.10670280456543,55.669551849365234
0,164268,-3.6817679405212402,3.445415735244751,109.08975982666016,25.258888244628906
0,164269,-25.004283905029297,40.30092239379883,114.76367950439453,82.0755844116211
0,164272,-25.696231842041016,-39.128196716308594,-201.43336486816406,-38.66238784790039
0,164275,19.82206916809082,-62.406898498535156,-150.5829315185547,-106.0538558959961
0,164276,14.081188201904297,29.919097900390625,170.86647033691406,40.49542999267578
0,164278,-19.793638229370117,46.73918151855469,129.21087646484375,5.101982116699219
0,164280,10.086304664611816,-9.665322303771973,-89.5718994140625,-90.24095153808594
0,164282,7.398018836975098,-17.16436195373535,-108.72313690185547,-11.426026344299316
0,164284,-44.556888580322266,-19.267108917236328,-4.816007137298584,-27.418384552001953
0,164286,-7.215163230895996,-37.56558609008789,29.496416091918945,-6.482856750488281
0,164288,38.21139144897461,39.05607986450195,77.92436218261719,127.62646484375
0,164290,-7.698390483856201,66.39152526855469,27.83771324157715,6.257534027099609
0,164292,-13.26777458190918,-39.53153991699219,-84.17727661132812,-94.69453430175781
0,164294,16.55739974975586,-21.52093505859375,-58.22881317138672,1.529317855834961
0,164296,14.536742210388184,38.46267318725586,67.00526428222656,68.1418228149414
0,164298,7.668059825897217,4.97591495513916,103.42880249023438,79.63960266113281
0,164300,-7.243603229522705,-4.289440155029297,-13.05058765411377,-69.8524169921875
0,164302,7.69336462020874,8.013823509216309,-70.56199645996094,-90.37249755859375
0,164304,-2.271883487701416,-53.30508041381836,-90.88067626953125,31.875926971435547
0,164306,-23.6229248046875,-51.40921401977539,-16.030868530273438,11.150450706481934
0,164308,32.54218292236328,70.38921356201172,140.64273071289062,27.639020919799805
0,164310,26.13420295715332,46.00612258911133,46.37405776977539,20.158201217651367
0,164312,-72.22190856933594,-62.13218307495117,-138.0571746826172,-29.68151092529297
0,164314,-48.37757873535156,-25.13166618347168,-61.355777740478516,-24.332561492919922
0,164316,66.16163635253906,46.262611389160156,145.0020751953125,21.42853546142578
0,164318,32.60719299316406,14.3327054977417,106.21353912353516,3.3877341747283936
0,164320,-58.845672607421875,-6.8413405418396,-85.94239807128906,-64.62568664550781
0,164322,-17.944942474365234,-11.366911888122559,-107.46237182617188,-14.13885498046875
0,164324,50.94312286376953,-23.01116371154785,-64.9836654663086,73.4827651977539
0,164326,25.84370231628418,4.57013463973999,31.048429489135742,39.970272064208984
0,164328,-17.38993263244629,34.144081115722656,159.07537841796875,-16.831884384155273
0,164330,-15.294387817382812,16.36359405517578,28.11165428161621,11.90727424621582
0,164332,-6.637117385864258,-10.21165943145752,-148.02333068847656,33.60566329956055
0,164334,12.411458969116211,-13.344144821166992,-25.566688537597656,23.757667541503906
0,164336,7.507320880889893,-28.769811630249023,117.16156005859375,-161.49317932128906
0,164338,-16.395166397094727,5.910984039306641,48.56494903564453,-250.92767333984375
0,164340,8.100712776184082,38.22160339355469,-58.87248992919922,242.2960662841797
0,164342,17.182329177856445,9.119202613830566,-71.7789077758789,320.72369384765625
0,164344,-31.978412628173828,-44.375179290771484,-39.38124084472656,-195.75830078125
0,164346,-18.15005111694336,-34.0798225402832,17.43138885498047,-93.80137634277344
0,164348,22.991941452026367,38.35586166381836,108.7528305053711,69.88907623291016
0,164350,20.834001541137695,37.597503662109375,67.67191314697266,-21.22505760192871
0,164352,5.5833964347839355,-15.520487785339355,-116.89802551269531,51.09585952758789
0,164354,-35.42762756347656,-41.920799255371094,-117.68104553222656,-20.911664962768555
0,164356,21.91899871826172,-8.464845657348633,74.6969223022461,-69.5242691040039
0,164358,8.781669616699219,32.044342041015625,78.20257568359375,47.4190788269043
0,164360,-37.99042510986328,5.662899017333984,3.908266305923462,95.20742797851562
0,164362,42.47882080078125,-15.424127578735352,-15.78140640258789,-13.922053337097168
0,164364,5.199318885803223,19.58887481689453,-65.0241470336914,-122.91678619384766
0,164366,-53.38203430175781,15.880780220031738,-0.7723116278648376,-51.03798294067383
0,164368,-1.8696784973144531,-8.859123229980469,86.12311553955078,61.20892333984375
0,164370,27.040496826171875,-19.355369567871094,47.35782241821289,54.747310638427734
0,164372,10.299844741821289,-20.677448272705078,-125.00318908691406,-129.98171997070312
0,164374,13.304571151733398,19.290653228759766,-107.35587310791016,-83.05117797851562
0,164376,10.480805397033691,47.05585479736328,151.0325164794922,229.53746032714844
0,164378,-16.526905059814453,-1.7296783924102783,107.7563247680664,147.90341186523438
0,164380,-31.255847930908203,-40.367759704589844,-79.42962646484375,-131.3291778564453
0,164382,1.488865852355957,-14.992308616638184,-77.8305892944336,-145.05169677734375
0,164384,17.884279251098633,-19.440916061401367,-55.07563018798828,-64.54845428466797
0,164386,13.875588417053223,11.16264820098877,34.72736740112305,95.65769958496094
0,164388,-1.7511941194534302,63.406761169433594,129.07485961914062,167.34812927246094
0,164390,-18.12217903137207,4.248961448669434,-8.282416343688965,-56.65523910522461
0,164392,-27.216705322265625,-79.04377746582031,-117.7494888305664,-114.9852066040039
0,164394,-8.52704906463623,-19.14763641357422,-20.295513153076172,18.44940185546875
0,164396,44.30349349975586,66.70940399169922,77.9697494506836,106.57393646240234
0,164398,16.289512634277344,23.87676429748535,83.19186401367188,27.153213500976562
0,164400,6.070915222167969,1.2801693677902222,-5.688976764678955,-134.33975219726562
0,164402,-8.941731452941895,-12.554688453674316,-89.7456283569336,-82.07366943359375
0,164404,-22.06736183166504,-37.995113372802734,-58.892669677734375,64.35579681396484
0,164406,8.07700252532959,7.695140838623047,72.80628204345703,95.21508026123047
0,164408,-1.806481122970581,27.23624038696289,95.60871887207031,14.77260971069336
0,164410,0.995799720287323,-12.879277229309082,-58.35875701904297,-8.440828323364258
0,164412,-11.346441268920898,-43.54216003417969,-130.61004638671875,-69.67523193359375
0,164414,-15.583775520324707,-6.87937068939209,-16.644636154174805,-63.89262390136719
0,164416,31.739328384399414,32.1071891784668,126.24787139892578,111.9087905883789
0,164418,-0.8074911832809448,1.7888708114624023,68.67582702636719,58.93423843383789
0,164420,-40.69797897338867,-0.15548275411128998,-33.39423751831055,-57.31298828125
0,164422,18.199405670166016,10.696464538574219,-49.66196823120117,-13.199356079101562
0,164423,43.74098205566406,-15.24346923828125,-108.5770492553711,10.869250297546387
0,164426,-0.23760376870632172,6.13735294342041,51.36708068847656,-74.1954574584961
0,164427,-27.404945373535156,36.96683883666992,182.2894287109375,-116.56854248046875
0,164430,4.465055465698242,7.329477787017822,-29.028779983520508,121.2352294921875
0,164431,10.221515655517578,-17.307235717773438,-109.87442016601562,166.46270751953125
0,164434,-6.455383777618408,-18.969728469848633,-63.41839599609375,-103.08383178710938
0,164435,4.177383899688721,-15.944802284240723,-52.52921676635742,-20.642913818359375
0,164438,8.543961524963379,14.664040565490723,115.08842468261719,126.27130126953125
0,164439,-23.12534523010254,14.568161964416504,118.62429809570312,-198.25521850585938
0,164442,-51.844093322753906,-23.679182052612305,-144.27053833007812,-212.49188232421875
0,164443,25.518321990966797,-4.586880683898926,-113.90734100341797,239.58668518066406
0,164446,62.30077362060547,17.29503059387207,141.7326202392578,203.63241577148438
0,164447,-30.248231887817383,3.574434280395508,138.55532836914062,-69.28108978271484
0,164450,-33.958961486816406,5.0107598304748535,-50.04753494262695,-74.39064025878906
0,164451,31.95364761352539,4.898880481719971,-92.54144287109375,-4.078395843505859
0,164455,17.26163101196289,-23.57554817199707,-57.57175827026367,-22.047527313232422
0,164456,-21.00014305114746,-33.29827880859375,46.171932220458984,-56.72075271606445
0,164458,0.8312125205993652,44.25605392456055,128.32957458496094,38.151485443115234
0,164460,19.01160430908203,40.0598030090332,-26.875041961669922,102.65550994873047
0,164462,-15.4111967086792,-27.33460807800293,-112.97113037109375,-43.1170539855957
0,164464,-29.66935157775879,-57.632911682128906,-51.566097259521484,-64.7734375
0,164466,4.694553852081299,-19.48406410217285,44.335472106933594,65.5263671875
0,164468,56.60253143310547,91.6399917602539,93.74913024902344,14.718284606933594
0,164470,-2.5450189113616943,5.855572700500488,-25.650747299194336,-12.76373291015625
0,164472,-68.49745178222656,-82.5138931274414,-100.37098693847656,-61.125511169433594
0,164474,2.3217155933380127,23.030847549438477,-1.2991001605987549,-87.02457427978516
0,164476,63.242820739746094,61.5496826171875,104.92464447021484,111.70787048339844
0,164478,25.14474868774414,18.749784469604492,88.84403228759766,124.8470458984375
0,164480,-57.21659851074219,-46.66263961791992,-49.76365280151367,-91.11613464355469
0,164482,-32.64122772216797,-40.500953674316406,-108.8376235961914,-36.01023864746094
0,164484,15.221769332885742,15.163168907165527,-44.52192687988281,-43.867103576660156
0,164486,28.971590042114258,11.01353645324707,56.28302001953125,-27.232715606689453
0,164488,29.75442123413086,37.80078887939453,128.23690795898438,147.1375274658203
0,164490,-40.773624420166016,-1.4281611442565918,-1.950008511543274,16.05447769165039
0,164492,-30.32615089416504,-52.42158126831055,-149.39697265625,-75.99461364746094
0,164494,25.288116455078125,-10.577359199523926,-75.55261993408203,-69.0309066772461
0,164496,7.127750396728516,-5.210712909698486,91.9070816040039,18.333017349243164
0,164498,-5.341353893280029,20.158632278442383,99.6148681640625,61.693092346191406
0,164500,5.096292018890381,43.53235626220703,-2.326793909072876,-9.399192810058594
0,164502,4.741189479827881,-14.386836051940918,-48.313072204589844,-0.9450241923332214
0,164504,-11.319337844848633,-50.3233642578125,-122.39170837402344,-23.471981048583984
0,164506,14.98815631866455,6.221434116363525,5.329346179962158,-1.9322500228881836
0,164508,19.730880737304688,41.27775192260742,190.4270782470703,51.297569274902344
0,164510,-21.53398323059082,0.8978695273399353,26.33309555053711,-72.00379180908203
0,164512,-11.76068115234375,1.655381441116333,-148.5215301513672,-35.77373504638672
0,164514,1.7878023386001587,-4.390685081481934,-72.29985046386719,147.24557495117188
0,164516,17.003746032714844,-19.361431121826172,117.4312515258789,-11.195090293884277
0,164518,17.64619255065918,18.48904800415039,105.78900909423828,-147.02401733398438
0,164520,-32.864017486572266,17.27910041809082,-83.64337158203125,52.102359771728516
0,164522,-18.245832443237305,-0.29638150334358215,-88.02405548095703,119.54386901855469
0,164524,11.979524612426758,-18.373210906982422,-4.729530334472656,-65.92913055419922
0,164526,1.6830068826675415,-28.720579147338867,58.993927001953125,-41.30076599121094
0,164528,18.214323043823242,23.96851921081543,108.07971954345703,58.967105865478516
0,164530,-0.9463285207748413,22.249414443969727,-20.117055892944336,-12.20903205871582
0,164532,-34.088985443115234,-32.09865951538086,-150.4598388671875,-78.37865447998047
0,164534,-10.766175270080566,-35.971778869628906,-44.66074752807617,-15.07067584991455
0,164536,46.37964630126953,24.77352523803711,106.95952606201172,98.8417739868164
0,164538,39.494606018066406,52.188995361328125,85.85456848144531,42.044471740722656
0,164540,-41.458106994628906,-17.190305709838867,-55.10033416748047,-80.63363647460938
0,164542,-49.15205383300781,-37.57516860961914,-94.08413696289062,-74.93865966796875
0,164544,34.695159912109375,-9.47602653503418,-15.091923713684082,2.810948610305786
0,164546,21.255773544311523,16.499614715576172,58.011268615722656,59.207374572753906
0,164548,-19.349271774291992,41.401206970214844,106.58820343017578,41.76404571533203
0,164550,9.19129753112793,1.1299724578857422,8.042854309082031,-20.517227172851562
0,164552,-13.010473251342773,-28.968477249145508,-120.61713409423828,-28.07691192626953
0,164554,-12.38198184967041,-2.8707616329193115,-68.10243225097656,55.39149856567383
0,164556,25.822246551513672,-3.063392162322998,91.16134643554688,42.610008239746094
0,164558,11.440971374511719,2.163025140762329,115.75961303710938,-95.11871337890625
0,164560,-23.64019012451172,13.760912895202637,-52.99396896362305,-15.653775215148926
0,164562,-6.224230766296387,-4.9399003982543945,-88.70748138427734,79.37238311767578
0,164564,2.290109395980835,-14.241710662841797,-29.034299850463867,-31.4935302734375
0,164566,12.239014625549316,-4.177733421325684,-3.5794661045074463,35.144317626953125
0,164568,22.28920555114746,24.022846221923828,107.07951354980469,23.313121795654297
0,164570,-9.913631439208984,17.142122268676758,59.21797180175781,-151.39871215820312
0,164572,-3.984431743621826,-29.80725860595703,-162.8116455078125,13.181846618652344
0,164574,-17.82819175720215,-21.934066772460938,-86.90264129638672,134.38011169433594
0,164576,3.3037667274475098,24.337068557739258,173.0201873779297,-3.6224207878112793
0,164578,7.024944305419922,12.461653709411621,81.84981536865234,-195.88832092285156
0,164580,-33.357826232910156,-10.367565155029297,-93.78763580322266,-1.0417996644973755
0,164582,12.072919845581055,2.908285140991211,-42.51350784301758,273.0264587402344
0,164584,23.023324966430664,-4.914597988128662,-4.2424635887146,-73.87129974365234
0,164586,2.5755789279937744,-11.478958129882812,57.6751594543457,-80.79556274414062
0,164588,-1.8917737007141113,26.13558006286621,47.3428840637207,106.8912582397461
0,164590,-6.36527681350708,31.65679931640625,-50.98769760131836,-66.6932144165039
0,164592,-17.950973510742188,-39.90814971923828,-78.9420166015625,-100.8187026977539
0,164594,-4.530639171600342,-56.72925567626953,-48.509559631347656,15.041167259216309
0,164596,34.19254684448242,34.44145202636719,103.44966125488281,108.50301361083984
0,164598,14.297207832336426,67.75516510009766,105.2626953125,29.602508544921875
0,164600,-22.403581619262695,-24.00628662109375,-52.42901611328125,-72.82965087890625
0,164602,-19.028156280517578,-72.03414916992188,-84.44232940673828,-52.29269790649414
0,164604,15.46456241607666,16.96017837524414,-15.790366172790527,8.090991020202637
0,164606,19.028240203857422,27.363117218017578,57.1538200378418,20.796485900878906
0,164608,10.616741180419922,1.4382375478744507,51.377685546875,17.776473999023438
0,164610,-6.592435359954834,21.454030990600586,-14.453781127929688,16.1306095123291
0,164612,-46.069915771484375,-34.44476318359375,-68.37146759033203,-26.63759994506836
0,164614,-1.1551862955093384,-13.756950378417969,-51.97220230102539,14.677000045776367
0,164616,46.41796875,16.028316497802734,45.67538833618164,2.8951516151428223
0,164618,-1.8205422163009644,0.28764840960502625,78.41674041748047,-43.047245025634766
0,164620,-35.34888458251953,12.742154121398926,1.1254960298538208,43.88874816894531
0,164622,1.3735333681106567,14.01663875579834,-56.00888442993164,38.54963684082031
0,164624,4.535362720489502,-13.38282299041748,-84.0024642944336,-26.366268157958984
0,164626,-4.833896636962891,-22.071428298950195,31.577924728393555,-36.76335525512695
0,164628,12.078978538513184,28.422264099121094,161.9559326171875,-5.829082012176514
0,164630,0.41410955786705017,10.076404571533203,4.34271764755249,18.067182540893555
0,164631,-13.988232612609863,-32.748661041259766,-116.77304077148438,-11.62188720703125
0,164634,-16.36298942565918,-8.15843391418457,-68.76445007324219,7.008269309997559
0,164635,32.56031799316406,7.731374740600586,-23.916898727416992,52.701171875
0,164638,25.4384765625,12.427572250366211,138.6418914794922,30.19153594970703
0,164639,-17.60780906677246,35.636749267578125,91.05674743652344,22.213603973388672
0,164642,-4.461012840270996,-12.229662895202637,-146.68336486816406,-41.380775451660156
0,164643,-22.49712371826172,-58.478363037109375,-70.42181396484375,-128.53701782226562
0,164646,15.510815620422363,7.168588161468506,87.75994110107422,-112.478271484375
0,164647,49.90629959106445,49.416015625,98.41891479492188,159.23269653320312
1,164650,-38.174964904785156,-5.7735419273376465,-61.77414321899414,223.34686279296875
1,164651,-46.0842399597168,-37.91065979003906,-121.9851303100586,-173.9805450439453
1,164654,34.440181732177734,5.392384052276611,26.444028854370117,-107.72144317626953
1,164655,15.644445419311523,9.507266998291016,70.61578369140625,85.97368621826172
1,164658,2.0110020637512207,31.5192928314209,86.9909896850586,29.657062530517578
1,164659,15.53406047821045,23.307172775268555,-30.44741439819336,1.132536768913269
1,164662,-28.3713321685791,-50.98902893066406,-136.1703338623047,-37.05967330932617
1,164663,-22.45096778869629,-26.705421447753906,-19.89812660217285,-27.021060943603516
1,164666,19.41904640197754,32.342403411865234,105.57173156738281,21.591976165771484
1,164667,2.8472256660461426,16.157272338867188,108.28358459472656,61.16379928588867
1,164670,-22.31804084777832,-10.350099563598633,-76.21704864501953,-44.27091979980469
1,164671,4.513229846954346,6.329646110534668,-94.78138732910156,-34.75824737548828
1,164674,26.347597122192383,-28.83991241455078,-12.210657119750977,26.246917724609375
1,164675,6.319456577301025,-15.600616455078125,1.9164760112762451,-25.922407150268555
1,164678,-2.862582206726074,52.90230178833008,138.0083465576172,57.58802795410156
1,164679,-28.046785354614258,0.8639898300170898,14.739680290222168,37.992698669433594
1,164682,-0.14881201088428497,-32.933021545410156,-150.7782745361328,-101.26410675048828
1,164683,28.620033264160156,-12.157129287719727,-35.356407165527344,-58.989139556884766
1,164686,-19.447402954101562,9.790234565734863,80.04715728759766,86.27821350097656
1,164687,11.94694995880127,32.80756759643555,109.50564575195312,90.25244140625
1,164690,23.246797561645508,2.2771575450897217,-56.4855842590332,-46.14391326904297
1,164691,-40.75571823120117,-18.139644622802734,-108.10257720947266,-54.26619338989258
1,164694,-44.12595748901367,-34.514137268066406,-10.735628128051758,23.09136390686035
1,164695,34.5645637512207,-16.458370208740234,31.877622604370117,27.289831161499023
1,164698,50.01470184326172,50.27070999145508,117.14486694335938,-16.16546630859375
1,164699,-14.751041412353516,24.944778442382812,15.640992164611816,-54.060829162597656
1,164702,-20.54450225830078,-32.66960144042969,-117.76026916503906,7.166196346282959
1,164703,-3.916705846786499,-11.377309799194336,-53.96030044555664,40.59931945800781
1,164706,19.478511810302734,22.881752014160156,77.64488983154297,-5.334753513336182
1,164707,20.30061149597168,27.84596824645996,119.0093765258789,38.980079650878906
1,164710,-21.279062271118164,-23.706974029541016,-61.94147872924805,-4.585569858551025
1,164711,-23.15117645263672,-31.384780883789062,-104.93480682373047,-69.36241149902344
1,164714,8.60378360748291,13.090828895568848,5.676927089691162,-2.1247432231903076
1,164715,28.713396072387695,-7.609287261962891,39.506412506103516,35.91096878051758
1,164718,-8.760510444641113,29.43032455444336,94.86956787109375,41.60343551635742
1,164719,-38.41201400756836,28.21711540222168,-17.78174591064453,-5.960827350616455
1,164722,-2.8413779735565186,-64.5511703491211,-129.91357421875,-45.73619079589844
1,164723,17.00092124938965,-32.24522018432617,-36.97001266479492,3.762868642807007
1,164726,14.677437782287598,28.11450958251953,92.92218017578125,-16.204803466796875
1,164727,-24.5286922454834,23.049034118652344,95.94894409179688,-5.097793102264404
1,164730,1.635422706604004,31.625850677490234,-84.92974853515625,42.26424026489258
1,164731,67.17142486572266,6.595120429992676,-47.635826110839844,-149.0269012451172
1,164734,-28.84136199951172,-71.69435119628906,29.88611602783203,2.041694402694702
1,164735,-44.487281799316406,3.045210123062134,-19.587881088256836,260.5210876464844
1,164738,28.415573120117188,86.58032989501953,88.43830871582031,-26.601552963256836
1,164739,-26.79092788696289,-33.34220886230469,-3.326775312423706,-111.81708526611328
1,164742,1.4541646242141724,-48.048011779785156,-124.91545104980469,21.770357131958008
1,164743,47.188899993896484,22.43762969970703,-12.058490753173828,5.178030490875244
1,164746,6.645355224609375,8.076210975646973,105.05977630615234,17.6551513671875
1,164747,-10.938462257385254,12.520342826843262,90.34072875976562,40.62673568725586
1,164750,-36.38218307495117,-9.774248123168945,-72.12319946289062,-32.73778533935547
1,164751,-20.328243255615234,-39.76787567138672,-82.1562271118164,-58.92782974243164
1,164754,26.965795516967773,10.107278823852539,-22.279420852661133,-18.419832229614258
1,164755,30.945377349853516,31.91742515563965,34.22606658935547,-37.517513275146484
1,164758,-4.2281107902526855,20.763771057128906,122.63909912109375,75.56328582763672
1,164759,-25.124820709228516,-8.597016334533691,-19.906341552734375,42.888492584228516
1,164762,-15.6481351852417,-36.1324348449707,-141.75917053222656,-118.88056182861328
1,164763,1.8007841110229492,-8.599279403686523,-20.863855361938477,-4.446562767028809
1,165018,28.913673400878906,17.202606201171875,108.3089370727539,95.62061309814453
1,165020,1.37239408493042,13.768853187561035,42.7398796081543,16.074981689453125
1,165022,-24.937217712402344,-19.705821990966797,-88.05797576904297,-56.955291748046875
1,165024,-0.36076611280441284,-16.14979362487793,-76.15896606445312,9.805330276489258
1,165026,11.914026260375977,18.959653854370117,16.331912994384766,21.949296951293945
1,165028,24.867530822753906,29.220558166503906,178.80886840820312,17.13165855407715
1,165719,-2.7221949100494385,12.680543899536133,95.89932250976562,54.83772659301758
1,165720,-10.23908519744873,-11.759723663330078,-159.94358825683594,-57.633697509765625
1,165722,-1.0174071788787842,-25.88446807861328,-112.38658905029297,-76.1318359375
1,165724,-24.364910125732422,-21.361284255981445,52.83515548706055,24.976388931274414
1,165726,16.54310417175293,38.427589416503906,94.23265075683594,53.23501968383789
1,165728,11.81837272644043,20.021711349487305,-26.098264694213867,-2.4703235626220703
1,165730,-31.735393524169922,-59.29084396362305,-95.51625061035156,-22.39822769165039
1,165732,3.8203306198120117,-13.94283676147461,-9.424078941345215,5.058069229125977
1,165734,12.768256187438965,25.083694458007812,14.279464721679688,-19.32196044921875
1,165736,13.422826766967773,42.72180938720703,97.61637115478516,16.68109130859375
1,165738,24.324142456054688,35.0245475769043,81.21315002441406,49.11442565917969
1,165740,-42.39432144165039,-61.6855583190918,-110.7060775756836,-101.70305633544922
1,165742,-30.920650482177734,-30.461530685424805,-98.5372314453125,-88.76164245605469
1,165744,54.678829193115234,43.845767974853516,43.62873840332031,142.84727478027344
1,165746,24.425153732299805,16.369998931884766,116.63369750976562,97.40149688720703
1,165748,-43.872520446777344,-6.999460697174072,-12.842278480529785,-62.7651481628418
1,165750,-22.230045318603516,-19.92969512939453,-105.00862884521484,-62.159236907958984
1,165752,28.29265594482422,-27.25275421142578,-35.44371795654297,-1.1466504335403442
1,165754,15.890298843383789,4.02038049697876,26.95384979248047,18.50418472290039
1,165756,3.173518657684326,33.593902587890625,156.4835968017578,24.555105209350586
1,165758,-13.453856468200684,4.928027629852295,37.36832046508789,15.216279029846191
1,165760,-25.593477249145508,-25.157976150512695,-165.73423767089844,-16.393918991088867
1,165762,0.9540891647338867,-26.568159103393555,-89.53194427490234,-24.488252639770508
1,165764,4.144305229187012,6.108970642089844,56.380958557128906,-11.024054527282715
1,165766,2.0219199657440186,36.14751434326172,128.0807647705078,9.980314254760742
1,165768,15.405488967895508,28.009931564331055,6.000558376312256,-3.5721075534820557
1,165770,-2.189631462097168,-11.55061149597168,-72.35408782958984,5.732362747192383
1,165772,-4.120543003082275,-56.8547477722168,-77.4343490600586,-4.045344352722168
1,165774,16.65679359436035,1.671791434288025,-50.09394073486328,-7.402105808258057
1,165776,9.248600006103516,54.377559661865234,178.373291015625,53.572513580322266
1,165778,-11.879565238952637,-10.02145004272461,101.01531982421875,-6.1577534675598145
1,165780,-35.995243072509766,-30.888019561767578,-176.84666442871094,-71.54542541503906
1,165782,-4.106758117675781,2.026494026184082,-87.03556060791016,18.356386184692383
1,165784,35.65361404418945,0.07301429659128189,72.30856323242188,39.2581787109375
1,165786,8.429849624633789,23.735912322998047,100.74671936035156,0.9249953627586365
1,165788,-9.130712509155273,25.671602249145508,-1.1505788564682007,-20.239051818847656
1,165790,-12.438491821289062,-20.582124710083008,-89.87255096435547,-7.692258834838867
1,165792,-25.20272445678711,-40.9302978515625,-58.74978256225586,2.6594343185424805
1,165794,20.89586067199707,-11.645989418029785,-2.451671838760376,-18.24275016784668
1,165796,54.357765197753906,60.81808090209961,144.2956085205078,56.854469299316406
1,165798,-19.029983520507812,20.45452117919922,89.54876708984375,20.72748565673828
1,165800,-49.98319625854492,-53.661094665527344,-126.24916076660156,-70.19757843017578
1,165802,11.0888090133667,-14.617449760437012,-126.05870819091797,-8.584887504577637
1,165804,21.034048080444336,21.703454971313477,49.903499603271484,13.73534107208252
1,165806,-1.0935389995574951,25.711837768554688,135.50778198242188,19.16486358642578
1,165808,2.345531702041626,0.22233973443508148,-12.92773723602295,32.61873245239258
1,165810,-17.381452560424805,-17.58131217956543,-76.3350601196289,-40.655487060546875
1,165812,-19.976133346557617,-20.554370880126953,-59.24669647216797,-46.49502944946289
1,165814,7.505921363830566,-12.173274993896484,-21.437538146972656,36.355506896972656
1,165816,17.90916633605957,32.96917724609375,141.2550811767578,48.92600631713867
1,165818,19.105785369873047,10.350797653198242,56.15330123901367,-0.9979750514030457
1,165820,7.569030284881592,-4.663827896118164,-128.66281127929688,-48.949554443359375
1,165822,-18.390867233276367,-2.509974241256714,-72.17923736572266,-34.20886993408203
1,165824,-19.018041610717773,-22.552072525024414,46.5509033203125,52.04395294189453
1,165826,17.443418502807617,-10.748368263244629,106.92841339111328,45.78409194946289
1,165828,11.831188201904297,21.277915954589844,9.046459197998047,-46.142486572265625
1,165830,-26.188547134399414,36.210105895996094,-83.03697967529297,-36.903282165527344
1,165832,11.170146942138672,-28.003175735473633,-46.920372009277344,25.164073944091797
1,165834,23.156124114990234,-21.36651039123535,8.649885177612305,28.470624923706055
1,165835,-38.21323776245117,23.972440719604492,83.07328796386719,-5.15193510055542
1,165838,16.278274536132812,5.1361494064331055,53.98693084716797,-17.512788772583008
1,165839,12.986507415771484,-20.739086151123047,-95.39490509033203,-32.9129638671875
1,165842,-52.12458801269531,-17.729883193969727,-97.00289916992188,-0.9049896001815796
1,165843,12.078780174255371,10.996550559997559,33.7816276550293,39.49343490600586
1,165846,32.358150482177734,16.418590545654297,126.24928283691406,15.331929206848145
1,165847,11.66387939453125,24.50518798828125,105.58312225341797,12.743781089782715
1,165850,-8.237491607666016,-2.0993120670318604,-98.25797271728516,-4.518083572387695
1,165851,-7.264113903045654,-30.229290008544922,-136.0865478515625,-28.318174362182617
1,165854,-3.5843091011047363,-15.58632755279541,8.531881332397461,-25.26818084716797
1,165855,-13.721370697021484,9.133504867553711,74.23082733154297,7.753807067871094
1,165858,15.494256019592285,35.21256637573242,72.59445190429688,35.339481353759766
1,165859,7.289094924926758,4.195845603942871,-49.384193420410156,-7.01199197769165
1,165862,-5.227363586425781,-29.80712127685547,-98.75006103515625,-16.099977493286133
1,165863,-7.450601577758789,-21.491073608398438,-9.425065040588379,-13.9324369430542
1,165866,7.2232136726379395,9.331476211547852,104.7705078125,25.392776489257812
1,165867,13.346902847290039,27.05520248413086,106.62109375,46.93635559082031
1,165870,-29.649084091186523,-8.112347602844238,-120.0840835571289,-75.84138488769531
1,165871,-6.224006175994873,-15.680618286132812,-141.98153686523438,-62.91477584838867
1,165874,32.22749328613281,0.5739822387695312,56.662662506103516,86.56767272949219
1,165875,7.535750865936279,19.466848373413086,99.9266128540039,51.94684600830078
1,165878,-18.512441635131836,30.09667205810547,73.6136474609375,-15.095844268798828
1,165879,-16.64260482788086,-19.142778396606445,-46.30942916870117,-13.859726905822754
1,165882,-4.1789870262146,-27.145402908325195,-133.30914306640625,-61.11328125
1,165883,22.940216064453125,-8.585887908935547,-9.518087387084961,0.7278395295143127
1,165886,28.256433486938477,18.257080078125,125.78020477294922,71.76366424560547
1,165887,-17.61220932006836,26.467334747314453,54.77996063232422,17.09945297241211
1,165890,-33.54234313964844,-34.07456588745117,-102.9819564819336,-61.89616394042969
1,165891,-3.376265048980713,-12.677224159240723,-64.212890625,-21.868579864501953
1,165894,4.836636066436768,7.1682000160217285,42.18391799926758,24.912363052368164
1,165895,3.0913121700286865,10.699417114257812,86.20909118652344,-19.98438835144043
1,165898,5.119543075561523,19.152210235595703,38.814857482910156,32.320777893066406
1,165899,5.284407615661621,-11.826831817626953,-94.67911529541016,45.936214447021484
1,165902,5.348289966583252,-9.271944999694824,-92.51031494140625,-42.04463577270508
1,165903,1.8623822927474976,-16.5085506439209,17.872900009155273,-28.76136016845703
1,165906,5.244621276855469,11.599349021911621,113.20636749267578,50.10548400878906
1,165907,-6.851898670196533,35.98420333862305,82.82223510742188,17.754995346069336
1,165910,-10.617525100708008,-15.969209671020508,-124.24376678466797,-84.06163787841797
1,165911,-5.522384166717529,-24.182090759277344,-106.57366180419922,-34.44943618774414
1,165914,17.612388610839844,10.728979110717773,92.6379623413086,93.08673095703125
1,165915,27.43683624267578,4.163394927978516,91.64915466308594,35.334564208984375
1,165918,7.557333946228027,6.492440700531006,15.988958358764648,-18.5632266998291
1,165919,-34.61749267578125,-9.174105644226074,-76.4139633178711,-43.94234848022461
1,165922,-36.723968505859375,-32.47533416748047,-94.4423828125,-70.93840026855469
1,165923,14.095497131347656,8.003931045532227,12.932090759277344,50.4185905456543
1,165926,10.36820125579834,37.251129150390625,99.85375213623047,64.49752044677734
1,165927,12.943593978881836,12.71614933013916,68.79469299316406,6.0025153160095215
1,165930,3.446503162384033,-12.31885814666748,-105.22766876220703,-47.00926971435547
1,165931,-5.7874250411987305,0.01357080228626728,-113.6281509399414,-49.69475555419922
1,165934,20.659521102905273,-12.617145538330078,100.07029724121094,52.75537109375
1,165935,-12.109189987182617,-17.958574295043945,113.58946228027344,30.984783172607422
1,165938,-21.68564796447754,50.95523452758789,-27.421232223510742,-17.13471221923828
1,165939,22.618789672851562,20.369611740112305,-50.28508377075195,-18.269107818603516
1,165942,-13.494501113891602,-82.56729888916016,-90.19892883300781,-42.30712890625
1,165943,-30.639312744140625,-37.628204345703125,-55.02476501464844,-11.723283767700195
1,165946,38.16980743408203,68.69782257080078,163.0491943359375,84.20906066894531
1,165947,25.661046981811523,42.791385650634766,90.05130767822266,35.288177490234375
1,165950,-29.012874603271484,-28.424911499023438,-151.65074157714844,-64.86629486083984
1,165951,7.521768093109131,-6.045662879943848,-64.72119903564453,15.977520942687988
1,165954,-30.153236389160156,-26.971729278564453,77.56305694580078,-29.135608673095703
1,165955,-51.453407287597656,-33.88349533081055,86.37654113769531,-53.991493225097656
1,165958,56.089908599853516,27.848024368286133,-0.5478853583335876,81.50994110107422
1,165959,58.595062255859375,23.193998336791992,-71.53255462646484,72.17562866210938
1,165962,-5.315035820007324,13.905683517456055,-35.140628814697266,-16.156187057495117
1,165963,-44.600467681884766,-3.153759717941284,-22.808380126953125,-79.9951400756836
1,165966,-11.914369583129883,3.669520139694214,67.86963653564453,-47.71051788330078
1,165967,26.805418014526367,13.396418571472168,93.3120346069336,32.46964645385742
1,165970,6.58991813659668,-34.76560592651367,-78.15438842773438,57.03699493408203
1,165971,-6.525791645050049,-29.120447158813477,-117.7964859008789,5.826913833618164
1,165974,-4.706246852874756,20.353469848632812,31.41643714904785,-31.545974731445312
1,165975,7.286570072174072,35.249088287353516,122.01612091064453,-1.975514531135559
1,165978,-9.091069221496582,6.867477893829346,21.4814453125,-4.944653511047363
1,165979,-3.9736809730529785,-15.870501518249512,-87.7999496459961,-31.153337478637695
1,165982,-1.7424147129058838,-16.270282745361328,-58.57258987426758,-0.6378779411315918
1,165983,7.984805107116699,-12.965435028076172,3.455003261566162,49.8591194152832
1,165986,38.708255767822266,33.18937301635742,113.85883331298828,27.59557342529297
1,165987,-20.064748764038086,13.96878719329834,63.45625686645508,-11.614548683166504
1,165990,-50.854820251464844,-39.26228713989258,-133.1621856689453,-35.421382904052734
1,165991,-0.505848228931427,13.195630073547363,-59.938323974609375,-17.361242294311523
1,165994,13.449257850646973,0.8175349831581116,37.091129302978516,-9.500715255737305
1,165996,-4.911545753479004,-11.868536949157715,52.693477630615234,-23.361074447631836
1,165998,12.333090782165527,14.772478103637695,63.26788330078125,53.0738410949707
1,166000,-2.0828793048858643,-30.490821838378906,-78.08695983886719,24.11373519897461
1,166002,-18.777984619140625,-22.711742401123047,-100.66136169433594,-39.652671813964844
1,166004,32.59908676147461,18.911094665527344,26.566011428833008,17.891386032104492
1,166006,20.512104034423828,24.615816116333008,115.91969299316406,24.540685653686523
1,166008,-9.167773246765137,27.895217895507812,63.713375091552734,11.590128898620605
1,166010,-17.904924392700195,-10.001561164855957,-129.51023864746094,-41.617218017578125
1,166012,-13.52219295501709,-31.950716018676758,-86.24797821044922,-41.318172454833984
1,166014,7.406275749206543,2.193138599395752,101.95592498779297,46.157840728759766
1,166016,34.55678176879883,35.2147102355957,101.85929870605469,70.2753677368164
1,166019,15.996315002441406,17.547748565673828,9.79076862335205,-12.341314315795898
1,166022,-23.817346572875977,-15.310857772827148,-86.02891540527344,-84.25054168701172
1,166022,-5.207951068878174,-21.821622848510742,-93.98651885986328,-15.36424732208252
1,166023,-18.796049118041992,-24.71133804321289,24.46563148498535,18.439790725708008
1,166026,-10.962434768676758,13.3816499710083,118.74420928955078,12.421411514282227
1,166027,16.041488647460938,38.04117965698242,62.919639587402344,17.514135360717773
1,166030,4.396475791931152,-19.217754364013672,-139.58724975585938,12.179160118103027
1,166031,-8.582435607910156,-31.15496253967285,-136.66015625,-10.200409889221191
1,166034,14.702092170715332,34.14573669433594,86.1078872680664,8.382025718688965
1,166035,26.59724998474121,18.12151527404785,130.30868530273438,43.14493942260742
1,166038,-26.144071578979492,-10.041385650634766,28.259387969970703,-57.676048278808594
1,166039,-50.812259674072266,-22.515972137451172,-95.84386444091797,-82.5434799194336
1,166042,-14.850040435791016,-0.06585048139095306,-99.6158676147461,14.488065719604492
1,166043,21.418209075927734,-3.13565993309021,3.94077205657959,34.042537689208984
1,166046,59.5205192565918,-47.68965530395508,135.4420623779297,84.11203002929688
1,166047,38.47311782836914,44.003150939941406,124.09778594970703,69.50509643554688
1,166050,-66.41779327392578,11.602456092834473,-139.27490234375,-105.21101379394531
1,166051,-33.73517990112305,-35.94333267211914,-128.94874572753906,-72.7965316772461
1,166054,21.134740829467773,27.802827835083008,50.033729553222656,36.717430114746094
1,166055,13.951492309570312,7.059293270111084,46.07333755493164,8.022611618041992
1,166058,38.466861724853516,36.04975128173828,65.33009338378906,33.41421127319336
1,166059,-6.111888408660889,29.2493839263916,-13.675411224365234,15.289794921875
1,166062,-31.86487579345703,-53.01051712036133,-115.93742370605469,-37.68949890136719
1,166063,-12.067238807678223,-45.36455535888672,-12.774819374084473,-31.74666404724121
1,166066,12.749455451965332,25.60797882080078,123.5032958984375,17.324729919433594
1,166067,11.168266296386719,35.45516586303711,92.13619232177734,43.82827377319336
1,166070,-8.097250938415527,-15.176982879638672,-109.84593963623047,-41.077396392822266
1,166071,-42.40349197387695,-40.07211685180664,-121.75154876708984,-84.04434204101562
1,166074,-35.22191619873047,-35.098697662353516,39.907142639160156,11.416321754455566
1,166075,68.33541870117188,0.7020597457885742,49.80427169799805,95.91495513916016
1,166078,33.9548225402832,47.666011810302734,54.010032653808594,38.6960563659668
1,166079,-7.99833869934082,49.873191833496094,21.365339279174805,19.843448638916016
1,166082,37.66255187988281,25.535091400146484,-77.56352233886719,20.833721160888672
1,166083,-40.73353958129883,-53.626609802246094,-70.60264587402344,-55.2202033996582
1,166086,-47.20283889770508,16.065847396850586,103.23187255859375,-94.14835357666016
1,166087,-10.46528434753418,22.890533447265625,87.68145751953125,-50.29521179199219
1,166090,24.133604049682617,-103.37802124023438,-117.56086730957031,116.27082061767578
1,166091,61.87843704223633,15.181201934814453,-47.42217254638672,88.90786743164062
1,166094,-19.229400634765625,39.94452667236328,52.258323669433594,-66.30106353759766
1,166095,-6.109579086303711,7.164834022521973,63.909175872802734,6.837963581085205
1,166098,-0.48888149857521057,38.96234130859375,26.970291137695312,19.344152450561523
1,166099,-13.785809516906738,16.290620803833008,-61.05147933959961,-68.76914978027344
1,166102,-26.771944046020508,-45.1683464050293,-94.440185546875,-95.9541244506836
1,166103,-41.99442672729492,-82.09648132324219,-28.787370681762695,18.139976501464844
1,166106,65.52118682861328,30.83072280883789,138.88270568847656,135.49302673339844
1,166107,46.08677673339844,66.4681167602539,101.80081939697266,28.4635066986084
1,166110,-44.03458023071289,-40.492584228515625,-147.3433074951172,-95.99609375
1,166111,-38.43212127685547,-37.425193786621094,-146.478759765625,-86.13330841064453
1,166114,19.46405792236328,49.34036636352539,102.30641174316406,71.0717544555664
1,166115,33.16501235961914,49.66311264038086,124.78730010986328,83.23882293701172
1,166118,-13.608139991760254,-36.174442291259766,-11.158526420593262,-25.19002342224121
1,166119,-22.916461944580078,-74.41353607177734,-64.62977600097656,-0.9448747038841248
1,166122,18.364700317382812,26.16994857788086,-59.344932556152344,31.594125747680664
1,166123,34.83083724975586,68.2021255493164,4.85823392868042,27.79290771484375
1,166126,-10.886180877685547,6.845713138580322,84.29012298583984,-17.318485260009766
1,166127,-22.361831665039062,-13.46748161315918,61.422725677490234,-63.05305480957031
1,166130,-6.5052809715271,11.8463134765625,-78.33623504638672,-86.3567886352539
1,166131,-58.41243362426758,-13.041598320007324,-98.55449676513672,-81.55054473876953
1,166134,15.14544677734375,-68.49242401123047,21.862693786621094,158.49649047851562
1,166135,116.79904174804688,27.52427864074707,139.91241455078125,204.97210693359375
1,166138,-11.00165843963623,36.4466552734375,39.32155990600586,-126.11320495605469
1,166139,-71.99262237548828,-63.58475875854492,-140.63827514648438,-143.83497619628906
1,166142,-10.313520431518555,-10.556341171264648,-50.06491470336914,16.04745864868164
1,166143,17.695768356323242,25.760831832885742,42.63618087768555,58.997657775878906
1,166146,29.375120162963867,33.606842041015625,69.87061309814453,55.32342529296875
1,166147,-41.25944900512695,16.535720825195312,51.57634353637695,-74.28768157958984
1,166150,-45.159461975097656,-55.15452194213867,-106.05149841308594,-76.79228973388672
1,166151,75.85626983642578,-26.79900360107422,-75.45085906982422,100.08917999267578
1,166154,39.22349166870117,53.73493194580078,71.11528015136719,70.99568939208984
1,166155,-32.87395095825195,41.61377716064453,89.18597412109375,9.128263473510742
1,166158,-16.880992889404297,-15.4957275390625,2.856760263442993,-47.64939498901367
1,166159,-41.5424690246582,-7.5820465087890625,-90.80683898925781,-106.9668960571289
1,166162,-28.68956756591797,-19.625621795654297,-69.37068176269531,-31.432586669921875
1,166163,31.727054595947266,-39.79511642456055,15.379844665527344,28.272071838378906
1,166166,47.896583557128906,25.26755714416504,113.28662872314453,100.67396545410156
1,166167,60.75119400024414,92.8555908203125,96.90534973144531,99.30184173583984
1,166170,-14.734659194946289,-8.710741996765137,-105.44389343261719,-38.83507537841797
1,166171,-81.35910034179688,-131.8730926513672,-148.8953399658203,-123.66614532470703
1,166174,28.83477020263672,-2.4056923389434814,45.57356262207031,32.104061126708984
1,166176,46.42850112915039,114.9515609741211,129.06129455566406,83.12164306640625
1,166178,-51.96309280395508,-0.3205089271068573,59.28725814819336,-102.6577377319336
1,166180,-78.24506378173828,-109.17314910888672,-116.41889953613281,-127.52830505371094
1,166182,43.10130310058594,6.412390232086182,-103.9098892211914,67.2474136352539
1,166184,94.82654571533203,73.54004669189453,73.10747528076172,174.8696746826172
1,166186,-50.455108642578125,3.163026809692383,91.37651062011719,-11.050226211547852
1,166188,-25.812028884887695,20.908742904663086,36.350303649902344,-85.99465942382812
1,166190,54.299007415771484,1.8991639614105225,-94.36370849609375,42.68222427368164
1,166192,-30.45870590209961,-50.68039321899414,-115.99163818359375,-41.371788024902344
1,166195,-28.14444923400879,-12.967384338378906,93.75121307373047,-88.56060028076172
1,166195,28.82442283630371,31.83088493347168,130.0813446044922,86.11714172363281
1,166198,-7.513191223144531,22.24333381652832,-66.3201904296875,72.13252258300781
1,166199,4.895273208618164,-5.857729434967041,-72.80062866210938,-31.082128524780273
1,166202,30.181875228881836,-58.88702392578125,-16.984769821166992,-91.71067810058594
1,166203,-35.4715690612793,-41.901493072509766,-40.78475570678711,-28.765897750854492
1,166206,-22.996685028076172,62.8617057800293,119.96642303466797,129.72109985351562
1,166207,11.951078414916992,35.91682815551758,97.96521759033203,17.889345169067383
1,166210,31.316518783569336,-6.1691813468933105,-132.5614471435547,-25.249679565429688
1,166211,21.990787506103516,-0.4977073669433594,-79.90740966796875,16.75328826904297
1,166214,-82.0053939819336,-37.508453369140625,24.084699630737305,-144.9607391357422
1,166215,-26.58278465270996,-2.9778242111206055,64.99832153320312,-67.71791076660156
1,166218,89.03722381591797,38.436767578125,62.75501251220703,200.32525634765625
1,166219,59.940460205078125,16.498275756835938,-30.251665115356445,145.2944793701172
1,166222,-33.37480163574219,7.112294673919678,-56.31550216674805,-101.57579803466797
1,166223,-69.0754623413086,-14.81631088256836,-14.45183277130127,-133.73194885253906
1,166226,-36.019710540771484,-84.3457260131836,54.8734245300293,33.174842834472656
1,166227,34.4322509765625,-3.850339412689209,62.3935661315918,94.2495346069336
1,166230,36.497039794921875,44.81369400024414,-115.20267486572266,-101.76805114746094
1,166231,-51.05862808227539,-27.281625747680664,-131.74374389648438,-128.8031463623047
1,166234,15.569619178771973,22.541826248168945,113.32371520996094,105.78649139404297
1,166235,83.51368713378906,94.49642944335938,164.95901489257812,137.87220764160156
1,166238,-22.829259872436523,8.612356185913086,5.782277584075928,1.4433419704437256
1,166239,-67.63204193115234,-101.34048461914062,-104.44517517089844,-87.79388427734375
1,166242,5.6473517417907715,0.7446062564849854,-82.2934341430664,-50.97873306274414
1,166243,24.469911575317383,30.518550872802734,-7.172382354736328,3.3117856979370117
1,166246,8.160987854003906,-18.998910903930664,104.7372055053711,56.674320220947266
1,166247,-10.263252258300781,14.17661190032959,70.11727142333984,38.1251335144043
1,166250,-28.180065155029297,-8.740837097167969,-124.83412170410156,-112.1715087890625
1,166251,-0.5157774090766907,-4.676693439483643,-95.50110626220703,-52.31679916381836
1,166254,32.16070556640625,16.05433464050293,69.27262115478516,130.78475952148438
1,166255,34.521392822265625,9.369139671325684,97.68627166748047,89.49431610107422
1,166258,-18.775775909423828,10.516764640808105,39.78889083862305,-57.66079330444336
1,166259,-41.82402420043945,-30.254552841186523,-48.796546936035156,-59.71759796142578
1,166262,8.837029457092285,-56.10452651977539,-145.87222290039062,-71.94990539550781
1,166263,2.2423453330993652,11.175310134887695,-16.976905822753906,-31.518814086914062
1,166266,-1.7381898164749146,93.2538070678711,194.15525817871094,160.87576293945312
1,166267,50.34069061279297,73.3938217163086,89.59171295166016,33.487056732177734
1,166270,20.5128173828125,-57.86621856689453,-144.34185791015625,-62.39165115356445
1,166271,-37.52960968017578,-125.52191925048828,-128.61773681640625,38.91138458251953
1,166274,-31.87150001525879,-28.07129669189453,81.90606689453125,-17.70551109313965
1,166275,-19.278257369995117,38.26389694213867,81.2416000366211,-31.698942184448242
1,166278,-10.629528999328613,31.423137664794922,-48.888484954833984,-65.9859390258789
1,166279,3.8644206523895264,7.595369815826416,-36.43410110473633,-42.865787506103516
1,166282,37.719566345214844,-11.671730041503906,-12.148935317993164,101.84949493408203
1,166283,23.198705673217773,2.5606791973114014,-27.493553161621094,70.63115692138672
1,166286,17.869709014892578,76.77149200439453,102.63481903076172,-22.348316192626953
1,166287,28.204837799072266,69.11199188232422,121.98614501953125,15.635666847229004
1,166290,-27.320220947265625,-71.61140441894531,-134.82130432128906,-59.315406799316406
1,166291,-68.3742904663086,-74.78211212158203,-127.08070373535156,-77.23391723632812
1,166294,-48.7094841003418,-12.384428977966309,92.0950698852539,64.47956848144531
1,166295,61.73456954956055,41.481117248535156,119.71836853027344,43.64384841918945
1,166298,52.05662155151367,34.315189361572266,-4.300421714782715,-116.75202941894531
1,166299,-58.379024505615234,-78.46307373046875,-105.36874389648438,-104.90369415283203
1,166302,-13.815946578979492,-13.125177383422852,-66.85536193847656,210.22947692871094
1,166303,39.6174201965332,50.0284423828125,4.5657196044921875,149.40785217285156
1,166306,-3.2325663566589355,-10.257855415344238,91.29045104980469,-165.71377563476562
1,166307,-6.103507995605469,23.61096954345703,87.4779281616211,-33.7313232421875
1,166310,-28.45708465576172,-34.939239501953125,-136.79248046875,-3.3747777938842773
1,166311,-20.9352970123291,-37.08210754394531,-123.22023010253906,-58.48807144165039
1,166314,84.78233337402344,67.4228286743164,105.39550018310547,148.6396026611328
1,166315,36.46241760253906,24.696611404418945,132.34007263183594,110.65316009521484
1,166318,-64.9402084350586,-0.03383838012814522,25.96866798400879,-79.411865234375
1,166319,-2.4162111282348633,5.141757965087891,-91.22978973388672,-88.33302307128906
1,166322,24.32826042175293,-29.62322998046875,-115.9393310546875,-25.438186645507812
1,166324,-19.796205520629883,-15.517749786376953,17.544452667236328,18.128969192504883
1,166326,-32.72917175292969,24.741056442260742,126.72461700439453,-24.188385009765625
1,166328,39.671478271484375,29.28420639038086,58.245113372802734,-4.6378984451293945
1,166330,29.465551376342773,-97.48237609863281,-104.51460266113281,14.180349349975586
1,166332,-82.6137924194336,-79.19369506835938,-115.2205810546875,-15.66519832611084
1,166334,24.66846466064453,133.23887634277344,89.53770446777344,39.55694580078125
1,166336,45.840702056884766,44.26789474487305,108.62664794921875,-20.76310920715332
1,166338,-52.74552536010742,-61.57864761352539,-61.52149963378906,-40.46427917480469
1,166340,3.1420955657958984,34.07770919799805,-79.49728393554688,33.732791900634766
1,166342,21.009666442871094,16.887975692749023,-1.8032881021499634,33.476436614990234
1,166344,8.463151931762695,-32.0893440246582,43.23365783691406,20.462337493896484
1,166346,23.871856689453125,36.558815002441406,117.08506774902344,0.30701500177383423
1,166348,-16.56075096130371,12.66055965423584,48.640933990478516,-29.404211044311523
1,166350,-47.97773742675781,-111.73855590820312,-208.4231719970703,-38.903472900390625
1,166352,-1.210128903388977,-2.24997878074646,-119.96994018554688,-8.76163101196289
1,166354,54.156700134277344,117.8998794555664,151.0195770263672,55.5594596862793
1,166356,15.664241790771484,-8.837350845336914,102.17904663085938,86.41857147216797
1,166358,-5.810757637023926,-14.828727722167969,17.45473289489746,24.770828247070312
1,166360,-35.152286529541016,0.44367682933807373,-63.30754089355469,-139.16256713867188
1,166362,-65.43255615234375,-104.5563735961914,-112.91804504394531,-141.837890625
1,166364,50.27988815307617,5.860281467437744,36.55245590209961,98.53585815429688
1,166366,59.90119171142578,89.91454315185547,109.03926086425781,119.60014343261719
1,166368,-22.825475692749023,23.152719497680664,21.339460372924805,22.1116886138916
1,166369,-50.31922912597656,-21.63469123840332,-58.95597839355469,-40.27971649169922
1,166372,-47.70735168457031,-88.85536193847656,-126.62122344970703,-163.5693817138672
1,166373,15.480838775634766,-44.60517883300781,-71.45574188232422,-65.33393096923828
1,166376,103.8404312133789,114.45106506347656,193.73275756835938,237.2304229736328
1,166377,58.73811340332031,87.84274291992188,136.23153686523438,156.86143493652344
1,166380,-51.275699615478516,-5.482201099395752,-135.38558959960938,-118.43228912353516
1,166383,-79.11944580078125,-93.75676727294922,-101.7159194946289,-151.3457489013672
1,166383,-39.89997100830078,-124.60613250732422,-9.458333015441895,-69.83900451660156
1,166386,96.11257934570312,82.03099060058594,109.07803344726562,178.46163940429688
1,166387,72.80252838134766,82.16732025146484,110.96815490722656,122.49649810791016
1,166390,-65.02653503417969,-15.945563316345215,-80.2904052734375,-117.59549713134766
1,166391,-39.49464416503906,16.57478904724121,-112.0022964477539,-54.79175567626953
1,166394,27.152360916137695,-9.94747257232666,37.38432693481445,-16.837987899780273
1,166395,-8.58846664428711,-8.657194137573242,94.7910385131836,32.69245147705078
1,166398,-40.12101364135742,-22.999406814575195,-15.963464736938477,7.665651321411133
1,166399,-9.843735694885254,-19.9080753326416,-84.01720428466797,-109.57719421386719
1,166402,-3.1634862422943115,-11.226716041564941,-82.73523712158203,-0.22176508605480194
1,166403,9.026020050048828,-13.639981269836426,6.02119779586792,38.20161056518555
1,166406,43.236289978027344,81.45271301269531,184.91738891601562,69.38811492919922
1,166407,14.989936828613281,46.65656661987305,69.03319549560547,107.09007263183594
1,166410,-9.106785774230957,-27.728473663330078,-166.3353271484375,-88.00758361816406
1,166411,7.0903425216674805,-25.181243896484375,-70.75165557861328,-62.55421447753906
1,166414,-21.02238655090332,-41.360023498535156,59.78847122192383,56.313819885253906
1,166415,-2.6714019775390625,8.751211166381836,90.04196166992188,-19.425167083740234
1,166418,10.108426094055176,-10.8046236038208,16.520519256591797,-68.81476593017578
1,166419,-17.47109031677246,-34.49507141113281,-97.52155303955078,-9.589156150817871
1,166422,-20.70922088623047,-4.856368541717529,-62.98019027709961,49.659629821777344
1,166423,12.62247085571289,13.749999046325684,23.328723907470703,38.10384750366211
1,166426,50.13930130004883,49.47237014770508,73.14981079101562,10.490072250366211
1,166427,-28.696739196777344,34.17019271850586,54.20426559448242,-40.7320556640625
1,166430,-44.994014739990234,-29.914583206176758,-43.11721420288086,27.532119750976562
1,166431,15.812336921691895,-37.9601936340332,-114.09275817871094,-21.442190170288086
1,166434,48.22514724731445,81.40727996826172,53.48588943481445,-7.214515209197998
1,166435,53.04032516479492,67.9568099975586,147.2990264892578,164.12351989746094
1,166438,-58.86140823364258,-94.00756072998047,-24.404035568237305,-125.34210968017578
1,166439,-33.96067810058594,-45.98531723022461,-47.42428207397461,-97.17780303955078
1,166442,55.04661560058594,-2.1603336334228516,-90.09602355957031,160.88796997070312
1,166443,-42.22210693359375,-48.99799728393555,-62.2513542175293,-114.48959350585938
1,166446,-76.66778564453125,36.48030090332031,119.89688873291016,-133.40444946289062
1,166447,51.02956771850586,60.03646469116211,47.15904235839844,140.90768432617188
1,166450,48.693138122558594,-29.26991844177246,-83.49423217773438,49.61820983886719
1,166451,-76.79144287109375,-56.38460159301758,-73.87590789794922,-129.24119567871094
1,166454,34.56076431274414,30.243520736694336,60.880699157714844,66.938232421875
1,166455,101.78520202636719,97.04061126708984,160.2015380859375,161.80221557617188
1,166458,-78.6820068359375,-31.606443405151367,-5.838975429534912,-67.96330261230469
1,166459,-73.06897735595703,-76.65425109863281,-123.4302749633789,-123.27487182617188
1,166462,50.75772476196289,51.97392272949219,-58.82992935180664,46.89352035522461
1,166463,87.64348602294922,30.83854866027832,5.262206077575684,123.07684326171875
1,166466,5.127443790435791,-6.749966144561768,120.54859161376953,-35.794960021972656
1,166467,-80.58570861816406,-16.606292724609375,61.002845764160156,-122.11167907714844
1,166470,-4.830138206481934,-41.548492431640625,-121.20230102539062,1.0202031135559082
1,166471,-5.109223365783691,-26.023588180541992,-91.22150421142578,34.687557220458984
1,166474,-15.066774368286133,-4.771742343902588,32.73652648925781,-20.55051612854004
1,166475,35.78341293334961,71.93673706054688,82.47613525390625,-44.64506530761719
1,166478,13.515676498413086,53.074920654296875,55.4924201965332,59.76374816894531
1,166479,-12.858451843261719,-51.00373077392578,-60.969146728515625,101.47782897949219
1,166482,-22.30702018737793,-103.1967544555664,-115.13642883300781,-68.38018035888672
1,166483,26.593294143676758,-5.090628147125244,32.94634246826172,-75.3987808227539
1,166486,36.962406158447266,133.58108520507812,158.5271453857422,72.95882415771484
1,166487,-33.01935577392578,15.647708892822266,50.065250396728516,64.60929107666016
1,166490,-23.61214256286621,-54.65839767456055,-156.6138153076172,-74.44680786132812
1,166491,-0.12140264362096786,-5.261602878570557,-95.76734161376953,-78.98678588867188
1,166494,9.492582321166992,-17.628658294677734,101.0324478149414,42.138710021972656
1,166495,19.812728881835938,6.945287704467773,63.58945083618164,59.416412353515625
1,166498,-17.85614585876465,42.87854766845703,-18.803077697753906,-18.09173011779785
1,166499,5.325363636016846,18.26087188720703,-28.98190689086914,15.991186141967773
1,166502,16.25872802734375,-55.71659851074219,-42.58195495605469,22.639806747436523
1,166503,-7.970146179199219,-15.908618927001953,3.7894680500030518,-18.800777435302734
1,166506,2.5188345909118652,58.211483001708984,89.49107360839844,17.223115921020508
1,166507,-14.517624855041504,12.10602855682373,39.483158111572266,-30.175180435180664
1,166510,-49.16823959350586,-93.85499572753906,-164.19906616210938,-110.07414245605469
1,166511,-15.556217193603516,-69.42170715332031,-80.65791320800781,-17.944509506225586
1,166514,77.29859161376953,68.54254150390625,171.26678466796875,147.9337615966797
1,166515,33.57902145385742,77.08455657958984,70.9193344116211,67.28775024414062
1,166518,-46.2024040222168,-9.781310081481934,-68.31551361083984,-88.35718536376953
1,166519,-31.85324478149414,-46.24660873413086,-44.02357864379883,-58.28351593017578
1,166522,1.6430048942565918,3.4514336585998535,-51.2338752746582,30.182748794555664
1,166523,53.69237518310547,69.33769989013672,29.912574768066406,53.72559356689453
1,166526,7.988080978393555,6.846105575561523,115.78289031982422,-21.049386978149414
1,166527,-43.83073425292969,-50.48225402832031,6.58743953704834,-12.645310401916504
1,166530,-8.130859375,-18.91327667236328,-118.72750854492188,-30.168170928955078
1,166531,-1.2348096370697021,-18.900388717651367,-69.5826416015625,-71.63646697998047
1,166534,45.51885986328125,7.765676021575928,109.49932098388672,101.5190658569336
1,166536,25.929576873779297,26.36378288269043,120.94898986816406,59.058773040771484
1,166538,-53.96692657470703,4.7844343185424805,-68.75414276123047,-55.459716796875
1,166540,-28.41326141357422,-27.28745460510254,-101.94463348388672,0.7596761584281921
1,166542,18.82790756225586,-28.340412139892578,-10.382976531982422,-38.29866409301758
1,166544,37.81997299194336,54.88764953613281,55.54790496826172,18.604721069335938
1,166546,11.95567512512207,49.66689682006836,83.74015808105469,52.84404754638672
1,166548,-24.749835968017578,-22.696035385131836,-10.59157657623291,-11.485119819641113
1,166550,-22.456886291503906,-34.68216323852539,-133.5476531982422,-9.855340957641602
1,166552,-0.7932000160217285,-43.46231460571289,-71.9830551147461,-20.70809555053711
1,166554,12.548245429992676,16.076902389526367,128.47686767578125,-8.02872371673584
1,166556,40.333065032958984,87.3959732055664,144.2237091064453,32.99233627319336
1,166558,-9.298796653747559,1.1081887483596802,-48.244327545166016,-25.547990798950195
1,166560,-70.59129333496094,-101.95154571533203,-142.22323608398438,-67.97341918945312
1,166561,1.0917980670928955,-10.204534530639648,-47.96742248535156,41.913909912109375
1,166564,24.00493621826172,51.98461151123047,77.63180541992188,20.754627227783203
1,166565,4.773741245269775,2.815007448196411,103.61203002929688,-12.026952743530273
1,166568,12.849618911743164,13.411874771118164,-6.151208400726318,46.45361328125
1,166569,-5.593545436859131,-6.60651969909668,-62.80241012573242,-23.980810165405273
1,166572,-11.208375930786133,-37.74961853027344,-63.34962844848633,18.86326789855957
1,166573,7.230074405670166,13.124584197998047,-47.606536865234375,95.37220001220703
1,166576,27.07024383544922,48.63866424560547,127.71200561523438,-135.74057006835938
1,166577,-1.9984626770019531,-2.6562020778656006,75.45938110351562,-127.97530364990234
1,166580,-34.462120056152344,-31.035268783569336,-124.58284759521484,75.44752502441406
1,166581,0.2327052354812622,5.8945136070251465,-69.68284606933594,67.08516693115234
1,166586,8.157231330871582,21.76228141784668,72.43894958496094,42.321224212646484
1,166586,1.469693899154663,-11.835607528686523,96.9157943725586,-57.23186111450195
1,166588,33.9575309753418,-31.22490119934082,-23.32861328125,39.299007415771484
1,166589,-7.2019877433776855,5.61282205581665,-62.225982666015625,73.85031127929688
1,166592,-35.122276306152344,-0.6158955693244934,-83.6895980834961,-111.8025894165039
1,166593,13.21734619140625,-33.248233795166016,-32.99181365966797,-69.81478881835938
1,166596,16.646650314331055,25.028278350830078,188.3707275390625,138.61050415039062
1,166597,-3.1868317127227783,49.40860366821289,68.36962127685547,102.85150909423828
1,166600,-24.607515335083008,-23.68097496032715,-160.12078857421875,-158.62413024902344
1,166601,-16.75266456604004,-36.8719596862793,-67.54317474365234,-87.24068450927734
1,166604,27.346609115600586,25.09140396118164,76.99427795410156,114.8130874633789
1,166605,18.217668533325195,40.39796829223633,122.76327514648438,47.82763671875
1,166608,-17.91647720336914,-13.685322761535645,-33.50800323486328,-131.9659423828125
1,166609,-6.245338439941406,-21.71688461303711,-102.57488250732422,-59.41248321533203
1,166612,6.95341682434082,-5.040332794189453,-28.226789474487305,126.34628295898438
1,166613,-9.317170143127441,-19.356517791748047,-15.201272010803223,43.1817626953125
1,166616,0.26205575466156006,25.63030433654785,111.03543853759766,-28.2796630859375
1,166617,28.710004806518555,33.583248138427734,60.51607131958008,-16.974876403808594
1,166620,-11.586631774902344,-45.07341766357422,-126.4538803100586,-30.21761131286621
1,166621,-40.08171463012695,-42.1385383605957,-67.06593322753906,-0.24769143760204315
1,166624,13.578263282775879,26.507099151611328,63.141666412353516,21.079395294189453
1,166625,62.926544189453125,45.971099853515625,109.15180969238281,43.779197692871094
1,166628,-4.233739376068115,1.9381595849990845,6.713146209716797,-12.638577461242676
1,166629,-63.12112045288086,-14.016502380371094,-69.29883575439453,-78.49073791503906
1,166632,10.907336235046387,-9.706746101379395,-42.531768798828125,50.98611831665039
1,166633,22.793212890625,-12.416280746459961,-31.973669052124023,61.23541259765625
1,166636,-5.286475658416748,26.348901748657227,88.81278991699219,-109.2916030883789
1,166637,-29.390714645385742,3.314561367034912,47.71855163574219,-125.84794616699219
1,166640,-7.438825607299805,-29.68715476989746,-94.65234375,139.70172119140625
1,166641,59.309688568115234,9.11250114440918,-48.45029067993164,206.13626098632812
1,166644,2.5475196838378906,7.698167324066162,26.48225212097168,-97.83268737792969
1,166645,-17.892107009887695,2.5847651958465576,101.83690643310547,-67.65876770019531
1,166648,-0.9564993977546692,18.608871459960938,6.8463544845581055,13.051785469055176
1,166649,-44.040199279785156,-19.15894317626953,-78.18695068359375,-80.48614501953125
1,166652,-6.28542947769165,-34.876068115234375,-49.53907012939453,50.1568717956543
1,166653,44.96339416503906,-2.527054786682129,-26.80633544921875,98.6357650756836
1,166656,17.035825729370117,29.592430114746094,151.02346801757812,-17.44059944152832
1,166657,-16.481416702270508,35.1605110168457,69.61917114257812,-68.83260345458984
1,166660,-0.2867412865161896,-5.217517375946045,-170.2606658935547,-62.64181137084961
1,166661,-11.63887882232666,-40.67985153198242,-73.78657531738281,10.102023124694824
1,166664,-18.5836181640625,-13.280242919921875,81.47932434082031,40.67105484008789
1,166665,17.250167846679688,37.94087600708008,112.26768493652344,19.590852737426758
1,166668,16.209810256958008,13.437849044799805,-13.318704605102539,18.169382095336914
1,166669,-6.531086444854736,-18.019622802734375,-104.37699127197266,8.122329711914062
1,166672,-16.813297271728516,-29.374311447143555,-45.16807174682617,-102.9133071899414
1,166673,-3.5181210041046143,-15.024271965026855,20.938037872314453,-61.06167221069336
1,166676,13.750884056091309,55.29499053955078,121.94489288330078,135.40969848632812
1,166677,30.395008087158203,36.727474212646484,48.68949508666992,60.57553482055664
1,166680,-13.779522895812988,-50.95011520385742,-107.29096221923828,-48.124786376953125
1,166681,-23.94212532043457,-28.24173927307129,-103.16481018066406,-32.066070556640625
1,166684,19.951601028442383,26.51259994506836,28.224645614624023,0.370634526014328
1,166685,6.148891448974609,-6.051709175109863,142.74134826660156,39.974544525146484
1,166688,-1.7357500791549683,6.551784038543701,-6.527724742889404,8.766132354736328
1,166689,-25.952749252319336,27.30854606628418,-104.3307876586914,-37.22874450683594
1,166692,-20.065414428710938,-32.33961486816406,-6.805317401885986,-24.13846778869629
1,166693,31.569400787353516,-22.562654495239258,8.588078498840332,6.438889503479004
1,166696,31.096031188964844,45.145286560058594,88.85626983642578,55.55473709106445
1,166697,-23.863698959350586,11.215570449829102,58.97233963012695,43.459781646728516
1,166700,-49.239986419677734,-58.17343521118164,-140.6157684326172,-63.27323913574219
1,166701,18.839990615844727,-28.338640213012695,-106.27970123291016,-104.5151596069336
1,166704,64.6767578125,55.906593322753906,111.50859832763672,35.403987884521484
1,166705,-1.5631517171859741,49.720436096191406,173.93260192871094,93.67361450195312
1,166708,-51.860992431640625,-30.3277645111084,-63.9606819152832,-33.31055450439453
1,166709,-23.015958786010742,-26.403053283691406,-142.64585876464844,-18.507850646972656
1,166712,14.429048538208008,-4.8674139976501465,18.675718307495117,7.415932655334473
1,166713,31.50910186767578,-2.679255723953247,31.70504379272461,-2.540951728820801
1,166716,24.554475784301758,35.07342529296875,41.24123764038086,3.874697685241699
1,166717,-24.25446319580078,-6.718832969665527,-10.82828426361084,-14.274818420410156
1,166720,-39.5235481262207,-55.812904357910156,-105.43360137939453,10.30824089050293
1,166721,-3.710365056991577,-9.204134941101074,-16.743743896484375,-16.535430908203125
1,166724,29.61833381652832,37.23748016357422,105.11458587646484,19.434185028076172
1,166725,43.0966796875,54.493797302246094,115.98479461669922,52.90911865234375
1,166728,-14.851099967956543,8.617866516113281,-73.80663299560547,-17.740602493286133
1,166729,-27.933570861816406,-42.94661331176758,-131.32241821289062,-38.55331802368164
1,166732,-7.094091892242432,-37.60626220703125,11.245833396911621,10.471264839172363
1,166733,2.396064043045044,11.619939804077148,55.44810485839844,6.487869739532471
1,166736,14.015756607055664,50.35075759887695,127.3580322265625,4.6223626136779785
