Aktueller Finger,timestamp_ms,sensor_0,sensor_1,sensor_2,sensor_3
0,56103,-4.446861267089844,94.30986022949219,-2.0188088417053223,-7.750988483428955
0,56106,19.87139320373535,67.880615234375,12.593749046325684,28.634872436523438
0,56107,-0.21627286076545715,-2.2324748039245605,6.472286224365234,4.357273578643799
0,56110,-41.12711715698242,-80.10145568847656,-0.6322207450866699,-24.48190689086914
0,56113,17.67005157470703,-95.53546142578125,-22.918212890625,-6.149622917175293
0,56113,19.34758949279785,28.893600463867188,-11.621275901794434,3.291416645050049
0,56116,-7.651712417602539,103.10684204101562,6.205839157104492,-15.144829750061035
0,56117,22.982271194458008,62.51554870605469,7.732780933380127,17.680644989013672
0,56120,11.95682430267334,-65.25987243652344,25.19763946533203,2.2892098426818848
0,56121,-24.446327209472656,-64.67111206054688,14.910829544067383,-32.718631744384766
0,56124,-27.13633155822754,30.113115310668945,-25.007062911987305,18.417940139770508
0,56125,-3.9448070526123047,43.2146110534668,-19.913684844970703,26.151103973388672
0,56128,16.493106842041016,6.553678035736084,30.904571533203125,-10.601378440856934
0,56129,-5.84324312210083,-53.48894119262695,49.38630676269531,-4.665548801422119
0,56132,3.707289934158325,-64.58260345458984,-84.09835815429688,10.830485343933105
0,56133,23.526777267456055,-15.997007369995117,-95.6934814453125,-5.710752964019775
0,56151,-24.29298210144043,20.890308380126953,118.08476257324219,-17.38783073425293
0,56151,-6.859090805053711,1.7557977437973022,69.85885620117188,-8.455513000488281
0,56151,6.9195876121521,-17.551931381225586,-68.4078140258789,18.267545700073242
0,56151,-5.151606559753418,5.192049980163574,-22.392860412597656,19.829347610473633
0,56151,17.974515914916992,50.60544967651367,-0.41455671191215515,-8.202598571777344
0,56152,-0.7641744613647461,56.99439239501953,3.802499294281006,-1.8865255117416382
0,56152,-4.608998775482178,8.385812759399414,15.347121238708496,10.151911735534668
0,56152,-0.17308618128299713,-4.419728755950928,23.741697311401367,-11.818624496459961
0,56152,-1.2523787021636963,14.417960166931152,2.81095814704895,-20.881011962890625
0,56153,18.633535385131836,-1.6356251239776611,-34.93222427368164,10.276371002197266
0,56156,16.250308990478516,56.08370590209961,38.411460876464844,33.56456756591797
0,56158,10.961830139160156,74.95716094970703,47.31280517578125,-2.4224436283111572
0,56159,-30.76150131225586,-54.35123825073242,-87.7547836303711,-34.055301666259766
0,56162,-16.788862228393555,-102.79840087890625,-63.196388244628906,-16.411956787109375
0,56163,81.40441131591797,-31.177915573120117,18.80144500732422,19.17011070251465
0,56166,-38.560874938964844,52.40418243408203,54.36582565307617,17.350364685058594
0,56167,-104.17727661132812,13.306958198547363,54.15315628051758,-14.69122314453125
0,56170,50.60881805419922,-83.08406066894531,-54.884220123291016,-18.241004943847656
0,56171,8.615270614624023,-70.4468994140625,-39.11232376098633,-6.838991165161133
0,56174,-20.99723243713379,21.46942710876465,25.814624786376953,19.328439712524414
0,56175,28.41096305847168,50.172637939453125,8.714180946350098,26.9509334564209
0,56206,13.254790306091309,35.79539489746094,2.1429803371429443,5.959393501281738
0,56206,14.401753425598145,15.993223190307617,-9.422703742980957,-3.2717199325561523
0,56206,-38.697471618652344,-9.926493644714355,0.934502363204956,-8.836369514465332
0,56206,-18.025184631347656,21.916213989257812,3.0745062828063965,-5.953984260559082
0,56206,31.615224838256836,18.864025115966797,5.283814907073975,12.685027122497559
0,56206,-4.606722831726074,6.786947727203369,20.914188385009766,3.7300214767456055
0,56207,-5.696011543273926,19.751646041870117,-0.9005770683288574,-26.655532836914062
0,56207,-0.2715265452861786,-13.036290168762207,-1.7061951160430908,-3.027879476547241
0,56207,-5.876253604888916,-55.663063049316406,13.546148300170898,8.34180736541748
0,56207,16.024959564208984,-62.3403205871582,-2.926961660385132,-20.16703987121582
0,56207,-0.15120768547058105,-40.525508880615234,-9.308680534362793,6.736973285675049
0,56207,-12.759177207946777,22.5657901763916,6.173059463500977,20.758739471435547
0,56208,13.780288696289062,33.30289077758789,14.184039115905762,-21.828340530395508
0,56208,11.576143264770508,-15.466022491455078,-21.21308135986328,-18.156320571899414
0,56208,5.9950408935546875,14.612370491027832,-24.216136932373047,28.624834060668945
0,56209,18.857467651367188,14.018499374389648,7.875465393066406,8.030021667480469
0,56209,4.5133056640625,-20.723129272460938,-1.4032959938049316,-6.8912248611450195
0,56212,-42.32102966308594,-3.3160383701324463,-42.19219207763672,-6.601537704467773
0,56213,-29.21904754638672,4.031688213348389,-59.965755462646484,-21.788171768188477
0,56216,6.529585838317871,128.45323181152344,63.303409576416016,13.758023262023926
0,56217,18.90764617919922,97.64651489257812,96.31804656982422,15.337199211120605
0,56220,-8.706561088562012,-140.71041870117188,-24.493141174316406,1.243091344833374
0,56221,-58.35939025878906,-84.2825698852539,-16.455076217651367,10.236552238464355
0,56224,29.9769229888916,25.84972381591797,-50.017784118652344,-16.735424041748047
0,56225,104.52263641357422,37.51979064941406,-36.43122100830078,1.8855348825454712
0,56228,55.97505569458008,20.259815216064453,98.19068908691406,36.983924865722656
0,56229,-83.68880462646484,-68.91707611083984,46.71767807006836,-16.128597259521484
0,56232,-144.0960693359375,-33.948089599609375,-52.929718017578125,-16.648109436035156
0,56233,40.73353576660156,6.584199905395508,-45.644073486328125,-4.116823673248291
0,56276,88.1463623046875,72.72352600097656,10.473219871520996,-1.2216508388519287
0,56276,-8.190954208374023,86.22079467773438,30.668987274169922,15.152393341064453
0,56276,-20.37382698059082,-62.271236419677734,-14.8530912399292,-21.486711502075195
0,56276,-15.550590515136719,-31.283313751220703,-28.353872299194336,-5.055187702178955
0,56276,6.596823215484619,42.37886428833008,9.24160099029541,24.93964195251465
0,56277,-8.507866859436035,9.123457908630371,27.579444885253906,17.798118591308594
0,56277,4.92005729675293,24.97234535217285,3.9032039642333984,-12.387927055358887
0,56277,27.769332885742188,2.9869887828826904,-2.585298538208008,-16.43707847595215
0,56277,-0.7695715427398682,-45.1511116027832,7.6890435218811035,18.665868759155273
0,56277,20.29434585571289,-29.856143951416016,-31.759183883666992,-7.275686264038086
0,56278,9.970030784606934,-35.187164306640625,-10.126745223999023,-15.021595001220703
0,56278,-25.47732162475586,-38.37059783935547,35.29051971435547,19.726451873779297
0,56278,-9.709406852722168,4.387923240661621,1.257753849029541,-3.635573387145996
0,56278,5.439150810241699,13.862004280090332,-17.537113189697266,-7.998356819152832
0,56278,-8.36662483215332,10.790590286254883,-20.43032455444336,-2.9085848331451416
0,56278,-12.813940048217773,26.69417953491211,9.602924346923828,-16.486146926879883
0,56279,3.245696783065796,8.466497421264648,17.47343635559082,17.51207160949707
0,56279,9.348588943481445,17.210031509399414,-4.965375900268555,2.970607280731201
0,56279,16.627544403076172,27.08104705810547,15.941686630249023,-4.683789253234863
0,56279,-4.158040523529053,-17.16301155090332,12.21751594543457,37.586639404296875
0,56279,-20.511383056640625,-63.77509307861328,-17.654970169067383,-8.505963325500488
0,56281,9.962101936340332,-55.327816009521484,-10.396147727966309,-44.71084976196289
0,56281,17.034534454345703,17.5463924407959,-1.0950273275375366,3.857675075531006
0,56282,-18.32965087890625,17.015256881713867,-4.47023868560791,2.5450003147125244
0,56283,-2.341637372970581,8.76476001739502,13.082722663879395,-27.296703338623047
0,56286,-2.985746383666992,55.505409240722656,29.005544662475586,7.572426795959473
0,56287,-21.75252914428711,-6.83963680267334,-15.215397834777832,18.48897361755371
0,56290,28.50517463684082,-90.10269927978516,-54.169593811035156,9.735496520996094
0,56291,16.171831130981445,-33.89130783081055,14.019817352294922,7.424100399017334
0,56294,-22.56612205505371,66.73564910888672,25.70978355407715,-9.165433883666992
0,56295,-10.15220832824707,108.91259765625,-17.474014282226562,12.067668914794922
0,56298,4.645350933074951,53.45416259765625,-15.831998825073242,-4.826574802398682
0,56299,-14.939847946166992,-43.623870849609375,-14.669328689575195,-19.532236099243164
0,56302,3.320730447769165,-93.29386138916016,41.66592025756836,36.17007064819336
0,56304,83.08065032958984,-31.23873519897461,34.645774841308594,5.199693202972412
0,56305,42.9852294921875,71.66160583496094,-8.121133804321289,-34.221378326416016
0,56359,-97.12257385253906,97.34685516357422,-2.093963861465454,14.535243034362793
0,56359,-82.69078063964844,10.719183921813965,-29.743309020996094,7.131042003631592
0,56359,57.32451248168945,-82.60926818847656,-6.647354602813721,-26.10456657409668
0,56360,35.762638092041016,-52.71546173095703,40.71613311767578,15.693050384521484
0,56360,-37.35591125488281,-0.2724468410015106,4.37229585647583,10.184732437133789
0,56360,10.341409683227539,14.384570121765137,-35.016849517822266,-27.961467742919922
0,56360,19.546422958374023,-27.678037643432617,-9.893640518188477,12.466153144836426
0,56360,-23.0872802734375,-3.908151388168335,19.25575828552246,16.039276123046875
0,56360,-0.4673362076282501,47.60880661010742,6.7463836669921875,-12.317350387573242
0,56361,17.37895965576172,-7.9469709396362305,-26.074460983276367,9.339600563049316
0,56361,-18.50992202758789,-6.843832492828369,2.2996013164520264,16.11804962158203
0,56361,4.459347724914551,2.316028356552124,8.8004789352417,-16.55577850341797
0,56361,25.530712127685547,-24.395538330078125,-4.296691417694092,-28.870132446289062
0,56361,-2.8671209812164307,-6.9449567794799805,22.90436363220215,5.446420669555664
0,56361,7.064608097076416,-7.790156841278076,-8.09360408782959,8.61158275604248
0,56362,4.436233043670654,-8.304759979248047,-7.375879287719727,0.2696757912635803
0,56362,-10.92841625213623,21.842559814453125,10.864182472229004,12.891647338867188
0,56362,-14.497064590454102,18.79433250427246,-12.602936744689941,-27.45098876953125
0,56362,-16.174297332763672,-22.016422271728516,4.562654495239258,-1.6439841985702515
0,56362,-3.9914655685424805,-13.544496536254883,-1.0994597673416138,21.81147575378418
0,56362,12.5028657913208,35.68711471557617,2.4062533378601074,-12.917057991027832
0,56363,17.81012725830078,21.21441650390625,8.088822364807129,-1.0650224685668945
0,56363,-9.627294540405273,-12.653338432312012,-17.97233772277832,-10.624954223632812
0,56363,-14.059115409851074,-10.723129272460938,-12.780304908752441,18.407163619995117
0,56363,5.437419891357422,-8.252659797668457,-1.4306989908218384,38.73343276977539
0,56363,8.236252784729004,5.466301918029785,28.813220977783203,-8.668830871582031
0,56364,4.694646835327148,8.514691352844238,-3.843334197998047,-25.83805274963379
0,56365,-4.674161434173584,8.679508209228516,-11.060836791992188,-1.168023705482483
0,56365,-9.68329906463623,33.886566162109375,27.428489685058594,16.396320343017578
0,56365,0.7710643410682678,11.643298149108887,-19.947383880615234,-13.353181838989258
0,56368,14.81076717376709,-52.27558898925781,-14.079878807067871,2.4470012187957764
0,56369,12.105728149414062,-46.743621826171875,20.851024627685547,13.504809379577637
0,56372,-5.118117332458496,-32.881752014160156,-6.6780781745910645,-23.894960403442383
0,56373,-11.328667640686035,-10.145544052124023,-2.957268714904785,9.85539722442627
0,56376,-5.515703201293945,157.68052673339844,17.701753616333008,23.321151733398438
0,56377,0.1258431375026703,112.54887390136719,-15.764997482299805,9.985223770141602
0,56380,3.4481377601623535,-119.88903045654297,-35.57901382446289,-20.620441436767578
0,56381,30.895347595214844,-93.46548461914062,2.3457679748535156,-55.10288619995117
0,56384,2.3492844104766846,-22.609203338623047,35.28704833984375,27.701766967773438
0,56385,-82.92103576660156,52.11771774291992,13.316683769226074,40.53012466430664
0,56388,-22.816532135009766,22.034273147583008,-6.372994422912598,-25.314556121826172
0,56447,108.75144958496094,-58.755218505859375,8.873226165771484,-1.0473411083221436
0,56448,58.48237991333008,39.13307571411133,-1.8112492561340332,29.965185165405273
0,56448,-64.02503967285156,8.746769905090332,-10.225330352783203,-13.56248664855957
0,56448,-36.63958740234375,-61.13774108886719,2.0920214653015137,-42.31306838989258
0,56448,7.390712261199951,-25.716917037963867,0.7137824892997742,39.037750244140625
0,56448,-6.14229154586792,16.248340606689453,-0.6965472102165222,42.97323989868164
0,56448,-3.098747968673706,12.553800582885742,-8.283023834228516,-20.677490234375
0,56449,-13.865880966186523,13.484000205993652,-12.928298950195312,-8.971932411193848
0,56449,-10.61782455444336,33.322601318359375,-4.62175178527832,-11.555054664611816
0,56449,29.747684478759766,-5.929785251617432,-2.756195306777954,-21.576982498168945
0,56449,13.238922119140625,0.003768385387957096,3.9578707218170166,-3.5133707523345947
0,56449,-24.525630950927734,25.30666732788086,25.705272674560547,-7.023250579833984
0,56450,-3.200502634048462,-7.2469916343688965,7.680604934692383,-22.933380126953125
0,56450,9.570096969604492,-37.306705474853516,-27.42647361755371,2.1326966285705566
0,56450,10.791468620300293,-19.18415069580078,-3.4880897998809814,9.981972694396973
0,56450,18.829336166381836,23.373916625976562,7.800191402435303,-4.244110584259033
0,56450,-5.700450897216797,4.460602760314941,1.6492700576782227,9.304210662841797
0,56450,-8.753908157348633,-1.0005035400390625,1.6063650846481323,0.35687941312789917
0,56451,5.419100761413574,10.816627502441406,-20.696043014526367,-5.709399223327637
0,56451,-8.946468353271484,4.676811695098877,-10.771827697753906,5.90562105178833
0,56451,-13.537650108337402,-3.2958128452301025,20.57228660583496,12.596672058105469
0,56451,0.8183760046958923,-23.21985626220703,21.472585678100586,20.46957015991211
0,56451,8.638877868652344,-2.3017656803131104,-10.900103569030762,-1.1430059671401978
0,56451,-12.386384963989258,14.875646591186523,-12.742257118225098,-11.670795440673828
0,56452,2.8340909481048584,6.263433456420898,8.283859252929688,-3.5757975578308105
0,56452,11.236461639404297,9.410563468933105,-4.062952518463135,-11.115836143493652
0,56452,-11.667428970336914,16.547496795654297,0.3364972174167633,8.755929946899414
0,56452,1.6276813745498657,8.142003059387207,31.853574752807617,14.654173851013184
0,56452,10.13071060180664,9.55513858795166,10.843354225158691,-10.114399909973145
0,56452,1.334425687789917,6.49500846862793,-26.710540771484375,-1.4778423309326172
0,56454,8.924219131469727,18.323936462402344,6.976245403289795,10.041916847229004
0,56454,23.840486526489258,15.70913314819336,8.3587646484375,4.272148609161377
0,56454,-7.062133312225342,-21.81651496887207,-19.28706169128418,-11.003700256347656
0,56455,-38.346248626708984,40.75654983520508,24.075265884399414,-14.64313793182373
0,56458,-6.5478901863098145,47.2215461730957,16.83550453186035,30.578554153442383
0,56459,36.98221969604492,-69.47557067871094,-69.57196044921875,23.03660011291504
0,56462,44.813758850097656,-83.6320571899414,-25.927438735961914,-28.0476131439209
0,56463,3.6128127574920654,-13.935601234436035,72.61627197265625,-3.534520149230957
0,56466,-97.21331024169922,57.556766510009766,7.8686676025390625,-0.09863869100809097
0,56468,-61.13417053222656,4.885547161102295,-45.386165618896484,-37.84305191040039
0,56469,75.00802612304688,-100.38082885742188,29.0941219329834,-11.95020866394043
0,56472,28.617324829101562,-60.15496826171875,8.89296817779541,45.74728775024414
0,56473,-38.17560958862305,11.298108100891113,-53.16799545288086,37.07899475097656
0,56476,1.213609218597412,143.02740478515625,9.058123588562012,-35.99867630004883
0,56477,17.888242721557617,128.6602783203125,41.950931549072266,-32.554527282714844
0,56480,-21.768245697021484,-113.22013854980469,-8.017682075500488,11.323665618896484
0,56481,-2.8540093898773193,-97.13129425048828,-10.473307609558105,1.7558917999267578
0,56484,75.41864776611328,12.83565616607666,22.134431838989258,25.346818923950195
0,56485,11.44686222076416,36.61638259887695,-3.4092814922332764,22.0268611907959
0,56557,-66.12550354003906,105.9330825805664,-19.95967674255371,22.517412185668945
0,56557,-1.4730229377746582,54.07619857788086,4.2599029541015625,43.72442626953125
0,56558,29.696853637695312,-55.442657470703125,-3.8560972213745117,-30.668245315551758
0,56558,-4.081139087677002,-78.53472900390625,-7.315563201904297,-52.65372085571289
0,56558,-9.786540985107422,-40.54682540893555,22.850360870361328,0.11978191882371902
0,56558,-5.978237152099609,-5.560704231262207,16.56475067138672,6.913033962249756
0,56558,-11.65895938873291,-22.735034942626953,-30.894081115722656,-7.033895969390869
0,56558,7.613883972167969,-10.977977752685547,-23.816469192504883,-19.04086685180664
0,56559,-1.6756590604782104,29.89067268371582,11.995827674865723,-3.7892887592315674
0,56559,-7.890092372894287,21.119789123535156,12.928011894226074,-3.3374147415161133
0,56559,25.660886764526367,3.0006864070892334,-1.1665561199188232,-33.70061111450195
0,56559,8.78134536743164,-15.372968673706055,-9.393875122070312,4.797318935394287
0,56559,-3.5077948570251465,-31.444190979003906,-5.645320415496826,22.744190216064453
0,56559,2.5186195373535156,-11.484134674072266,5.390389442443848,0.2458479404449463
0,56560,-8.012578964233398,24.255849838256836,27.077295303344727,0.4658990800380707
0,56560,3.028589963912964,21.894224166870117,2.0327558517456055,-6.933063507080078
0,56560,-10.951972961425781,-18.505203247070312,-21.20797348022461,19.598623275756836
0,56560,-15.55400276184082,-12.168389320373535,10.523823738098145,9.273427963256836
0,56560,1.982841968536377,32.35618209838867,4.821321964263916,-25.270872116088867
0,56560,2.7254104614257812,19.461441040039062,-26.342287063598633,-10.134604454040527
0,56561,11.720717430114746,-6.0200982093811035,-1.5805641412734985,11.414640426635742
0,56561,5.625099182128906,-4.540017604827881,13.604134559631348,11.80012321472168
0,56561,-5.420223712921143,4.843509197235107,-14.565930366516113,-8.98080825805664
0,56561,-8.931442260742188,14.440518379211426,13.300474166870117,-17.81215476989746
0,56561,6.866117477416992,-17.797088623046875,24.78737449645996,1.6209344863891602
0,56561,1.6633671522140503,-0.5889993906021118,-7.783555030822754,18.891355514526367
0,56562,-12.796411514282227,23.901185989379883,-13.316023826599121,4.158816337585449
0,56562,5.6087141036987305,-25.09269905090332,-5.439183235168457,1.6161034107208252
0,56562,0.7609448432922363,-4.5691752433776855,16.711721420288086,18.227848052978516
0,56562,-7.099184036254883,32.219886779785156,9.354591369628906,-1.22182297706604
0,56562,-4.170736312866211,5.154598236083984,-10.43336296081543,-16.364212036132812
0,56563,-6.774723529815674,-24.232803344726562,13.046197891235352,6.173608303070068
0,56563,1.3683134317398071,-9.51901912689209,2.3559277057647705,0.01784360036253929
0,56563,17.355213165283203,17.256975173950195,-23.032154083251953,-12.060829162597656
0,56563,5.078738212585449,-18.79466438293457,-9.753707885742188,10.874418258666992
0,56563,-20.500011444091797,-24.35521125793457,5.936559677124023,11.136411666870117
0,56565,25.655519485473633,34.41034698486328,17.178314208984375,14.370028495788574
0,56565,31.292695999145508,35.998146057128906,-17.54003143310547,5.528268337249756
0,56565,-24.62428092956543,-3.2005934715270996,-31.88745880126953,-16.53268814086914
0,56566,-21.45903968811035,0.9809377789497375,3.7254109382629395,-1.0964313745498657
0,56568,-28.04392433166504,-42.12697219848633,16.787574768066406,42.712371826171875
0,56569,-15.92068099975586,-99.66548919677734,6.885702133178711,59.04521179199219
0,56572,27.911006927490234,-16.022937774658203,8.04797649383545,-89.47956848144531
0,56573,66.5546875,64.5269775390625,-7.259579658508301,-103.82654571533203
0,56576,12.403544425964355,116.90277099609375,-33.184898376464844,69.2654800415039
0,56577,-54.9696044921875,82.80331420898438,13.065129280090332,28.36687469482422
0,56580,-38.308265686035156,-87.14329528808594,33.51496124267578,-42.21598434448242
0,56581,-4.496648788452148,-89.98600006103516,-4.293320655822754,1.1369105577468872
0,56584,51.57764434814453,-25.283945083618164,-19.257593154907227,21.486366271972656
0,56585,69.2650146484375,69.67029571533203,28.27769660949707,-18.049524307250977
0,56588,-35.0064582824707,35.58354568481445,28.281341552734375,-18.597620010375977
0,56589,-95.76947784423828,-118.06614685058594,-57.15727233886719,42.69087219238281
0,56592,26.638263702392578,-17.14374351501465,3.088991641998291,-8.092764854431152
0,56593,28.3388729095459,50.6966438293457,40.40147018432617,-11.891990661621094
0,56596,-30.358230590820312,104.46170806884766,-47.81593704223633,41.50170135498047
0,56597,6.319576263427734,67.22917175292969,-26.512521743774414,-12.322829246520996
0,56681,1.8261109590530396,-153.98707580566406,38.08615493774414,-8.878747940063477
0,56681,-15.262452125549316,-78.85877990722656,30.454526901245117,8.237749099731445
0,56681,11.677544593811035,95.21369171142578,-22.83173370361328,-28.859210968017578
0,56681,10.991898536682129,22.063671112060547,-21.857913970947266,-8.672362327575684
0,56682,8.669349670410156,12.868969917297363,24.870750427246094,14.321805000305176
0,56682,24.215755462646484,49.03285217285156,4.736577987670898,-3.9173836708068848
0,56682,-12.579200744628906,-37.54903793334961,-21.713909149169922,-9.475098609924316
0,56682,-15.188204765319824,-43.29292297363281,8.621891975402832,1.954276204109192
0,56682,17.96129035949707,-11.962573051452637,28.755334854125977,23.613311767578125
0,56682,15.17004680633545,-3.4606239795684814,7.906412601470947,20.72515106201172
0,56683,-2.2140448093414307,0.9548134803771973,-24.155406951904297,-10.924269676208496
0,56683,-9.981861114501953,-15.69965648651123,-14.615243911743164,-13.608848571777344
0,56683,-16.28291130065918,13.657195091247559,12.55043888092041,2.946483612060547
0,56683,-7.065237045288086,28.346105575561523,5.574838161468506,4.25079870223999
0,56683,19.344627380371094,3.5333452224731445,-4.588265895843506,-4.481266975402832
0,56683,3.633345127105713,-12.251934051513672,9.117792129516602,-7.27575159072876
0,56684,-26.033042907714844,-14.199831008911133,3.429509401321411,13.068293571472168
0,56684,3.0281786918640137,-2.554717779159546,-13.431612014770508,18.838911056518555
0,56684,19.477632522583008,-4.888992786407471,11.129761695861816,-10.55660343170166
0,56684,-2.556684732437134,-8.150102615356445,3.9132516384124756,-16.294921875
0,56684,6.433980941772461,0.0671466588973999,-17.57642364501953,27.175443649291992
0,56684,9.23393726348877,24.78729820251465,2.2190921306610107,11.281475067138672
0,56685,1.7749238014221191,34.149383544921875,-0.6370766162872314,-41.112613677978516
0,56685,3.2843856811523438,15.169748306274414,-9.639019966125488,5.173786640167236
0,56685,-3.1765196323394775,12.875540733337402,2.115614175796509,20.820112228393555
0,56685,0.18350380659103394,-0.8689348101615906,-9.11909008026123,-20.790550231933594
0,56685,-9.676170349121094,-18.068626403808594,-14.492061614990234,-8.625565528869629
0,56686,-9.240743637084961,-15.457749366760254,9.868510246276855,7.800195217132568
0,56686,-14.199446678161621,-25.565353393554688,24.68307876586914,6.782519340515137
0,56686,-20.16961669921875,-10.406542778015137,-0.28005534410476685,-2.330106258392334
0,56686,4.936944484710693,1.6440949440002441,-29.37252426147461,-13.223572731018066
0,56686,-4.288141250610352,-12.391618728637695,7.444724082946777,2.5707192420959473
0,56686,-1.203415036201477,-1.5709433555603027,28.606853485107422,1.5986372232437134
0,56687,13.051633834838867,-1.6946680545806885,-7.263602256774902,-17.27805519104004
0,56687,-0.07535986602306366,-13.535235404968262,-12.593551635742188,16.52155303955078
0,56687,0.049735501408576965,-1.3316365480422974,10.649280548095703,22.147384643554688
0,56687,12.32423210144043,17.18738555908203,6.874022006988525,-18.03281021118164
0,56687,15.419102668762207,-1.7497451305389404,-6.604457378387451,-8.498281478881836
0,56687,-15.994539260864258,-27.131481170654297,2.0275845527648926,-0.8373748660087585
0,56688,-15.385507583618164,2.3837218284606934,-1.0003031492233276,0.7877355813980103
0,56688,14.026552200317383,26.205585479736328,-2.5205297470092773,11.826563835144043
0,56688,7.536209583282471,10.551711082458496,12.919425964355469,-3.56124210357666
0,56689,-18.81354522705078,-29.17301368713379,-10.683053016662598,-7.7688822746276855
0,56689,-8.502922058105469,-19.005834579467773,-22.253925323486328,2.3461620807647705
0,56689,26.812562942504883,47.594886779785156,4.853695869445801,-4.353050231933594
0,56690,13.361762046813965,16.95532989501953,-4.151353359222412,7.423948764801025
0,56691,24.275421142578125,-28.87139892578125,-9.696575164794922,9.350793838500977
0,56694,7.894547462463379,47.37819290161133,44.413516998291016,-2.017570972442627
0,56695,-78.06768798828125,93.33367919921875,29.680173873901367,9.78553581237793
0,56698,-3.302664279937744,22.04778289794922,-72.98207092285156,29.402315139770508
0,56699,50.68464660644531,-48.920806884765625,-49.527366638183594,4.894179821014404
0,56702,-4.100392818450928,-88.20372772216797,52.04376220703125,-64.4071044921875
0,56703,15.050312995910645,-20.055875778198242,47.68354034423828,-30.625659942626953
0,56706,-22.520715713500977,78.76901245117188,-18.74002456665039,34.670005798339844
0,56707,-26.32333755493164,1.8500341176986694,-10.341123580932617,28.31907844543457
0,56710,7.489988327026367,-127.7940673828125,3.722970485687256,4.936983108520508
0,56711,-7.706080913543701,-73.95487976074219,-19.070507049560547,-15.28204345703125
0,56714,34.91475296020508,81.00770568847656,6.208272457122803,-14.819188117980957
0,56715,9.370058059692383,116.25506591796875,5.279330253601074,-11.128547668457031
0,56718,-39.266883850097656,46.59043502807617,6.392319679260254,4.7205047607421875
0,56719,13.16422176361084,-54.80316925048828,17.081314086914062,14.002718925476074
0,56722,19.266944885253906,-102.35429382324219,-2.0975778102874756,22.056663513183594
0,56723,23.054222106933594,0.20039242506027222,17.576269149780273,-0.5537604093551636
0,56726,-11.227398872375488,91.87510681152344,-10.45007610321045,-20.638992309570312
0,56821,-74.37322235107422,5.318992614746094,-32.18574905395508,13.581714630126953
0,56822,-5.6027655601501465,-49.229454040527344,29.626773834228516,-7.220455169677734
0,56822,30.52932357788086,2.935683488845825,-10.765259742736816,-17.628503799438477
0,56822,-2.1349570751190186,-10.735574722290039,-43.341529846191406,6.833461761474609
0,56822,7.674724578857422,-24.66963768005371,26.10488510131836,11.083453178405762
0,56822,10.258326530456543,-10.718058586120605,17.91828727722168,-11.174874305725098
0,56822,-11.386066436767578,-20.855487823486328,-31.852184295654297,-22.06171417236328
0,56823,11.477943420410156,36.691959381103516,-7.344765663146973,11.855978012084961
0,56823,18.52753257751465,56.17667770385742,24.25663185119629,19.84888458251953
0,56823,-10.445450782775879,-8.074996948242188,-4.261606216430664,-5.291387557983398
0,56823,8.040424346923828,-0.7092801332473755,-2.6905553340911865,-8.472223281860352
0,56823,-1.6479817628860474,15.91228199005127,11.512524604797363,20.8992977142334
0,56823,-4.895099639892578,2.8208861351013184,-2.1690597534179688,-0.2620948255062103
0,56824,19.40228271484375,-19.509756088256836,9.760566711425781,-14.997572898864746
0,56824,-6.814547538757324,-42.34687805175781,17.00188636779785,16.459774017333984
0,56824,-10.80898380279541,-1.4226391315460205,-4.094710826873779,3.8405230045318604
0,56824,0.509833574295044,25.934450149536133,-15.119034767150879,-14.900948524475098
0,56824,-7.117771625518799,9.372575759887695,-0.03597099334001541,-9.432597160339355
0,56824,2.751217842102051,7.596695423126221,8.599666595458984,-1.7480931282043457
0,56825,15.192834854125977,20.327537536621094,9.568474769592285,9.678308486938477
0,56825,6.757502555847168,20.013330459594727,-20.389028549194336,7.633144855499268
0,56825,-1.5485901832580566,0.5264559388160706,-24.22827911376953,-3.559880018234253
0,56825,17.367454528808594,-12.005751609802246,22.48134994506836,-15.366342544555664
0,56825,9.064452171325684,-27.222734451293945,8.043386459350586,4.742494583129883
0,56826,-6.8946146965026855,-6.560925483703613,-6.676558494567871,18.157184600830078
0,56826,9.424409866333008,2.405988931655884,-5.3982343673706055,-15.132209777832031
0,56826,-12.669910430908203,-25.796730041503906,5.819119930267334,-11.500055313110352
0,56826,-25.69106101989746,-13.608549118041992,10.866189956665039,3.2995221614837646
0,56826,-2.541520833969116,10.91948127746582,-13.616547584533691,10.407218933105469
0,56826,-7.0769219398498535,13.993891716003418,16.454984664916992,10.098445892333984
0,56827,-17.072656631469727,-3.7481000423431396,16.68025016784668,-15.886966705322266
0,56827,-9.996064186096191,1.0519124269485474,-14.23430347442627,6.3420090675354
0,56827,-11.196812629699707,-7.4835920333862305,-5.5666422843933105,18.63524055480957
0,56827,-18.103515625,-24.00131607055664,-2.975724458694458,-19.525253295898438
0,56827,-3.615450382232666,9.370652198791504,10.146624565124512,-7.114915370941162
0,56827,1.1318130493164062,6.555710792541504,6.346079349517822,10.979862213134766
0,56828,14.900078773498535,-11.334219932556152,-32.8067626953125,-2.032898426055908
0,56828,34.15895462036133,-5.516567707061768,-19.639869689941406,20.627281188964844
0,56828,3.7125773429870605,-2.259324312210083,24.976572036743164,22.29247283935547
0,56828,1.9430186748504639,19.53318214416504,3.6522626876831055,-17.366840362548828
0,56828,11.819073677062988,-5.9040093421936035,-8.237556457519531,-14.370994567871094
0,56828,-11.766993522644043,-20.70037841796875,15.863018035888672,3.633452892303467
0,56829,1.115327000617981,18.01235580444336,-13.371973991394043,9.633622169494629
0,56829,16.948606491088867,8.631158828735352,-10.056257247924805,6.304601669311523
0,56829,6.67329740524292,1.039374828338623,14.516180038452148,-15.417755126953125
0,56829,-10.930374145507812,12.488409042358398,-10.879321098327637,-28.609140396118164
0,56829,-24.43794059753418,1.5267882347106934,-5.076362133026123,-3.7727348804473877
0,56829,-10.407448768615723,-6.794135570526123,27.212800979614258,24.187543869018555
0,56831,-20.82546043395996,-4.345955848693848,-2.915570020675659,-32.551605224609375
0,56831,-28.286718368530273,-16.127540588378906,-33.39024353027344,-42.500606536865234
0,56831,27.14756965637207,-0.29420986771583557,12.60210132598877,19.573516845703125
0,56831,19.13735580444336,38.91661071777344,9.498242378234863,18.182144165039062
0,56833,-7.192106246948242,15.244134902954102,-31.6701717376709,14.557724952697754
0,56834,47.44881820678711,20.094785690307617,-2.6420364379882812,7.580550193786621
0,56835,25.913013458251953,98.16802978515625,38.84092712402344,-7.059475898742676
0,56838,-26.293886184692383,37.92417526245117,22.999176025390625,68.34974670410156
0,56839,-4.955636024475098,-93.39419555664062,-15.811034202575684,23.159164428710938
0,56842,4.356908321380615,-79.50299835205078,-19.16260528564453,-110.70042419433594
0,56843,-3.362126588821411,-12.836050987243652,10.739544868469238,12.621667861938477
0,56846,0.7820278406143188,75.97367858886719,32.31718444824219,50.98991394042969
0,56847,1.6770071983337402,26.573827743530273,11.411250114440918,-25.341384887695312
0,56850,-14.870135307312012,-156.6390838623047,-51.46515655517578,30.68598175048828
0,56851,4.04941463470459,-116.4150161743164,-32.56722640991211,-25.485807418823242
0,56854,-1.66972017288208,55.770111083984375,36.80485153198242,-57.54425811767578
0,56855,-11.600616455078125,150.1514892578125,0.5595194697380066,32.51780700683594
0,56858,27.850950241088867,67.85447692871094,-7.364603519439697,52.24297332763672
0,56859,12.392081260681152,-66.54046630859375,18.64038848876953,14.480839729309082
0,56862,-12.330143928527832,-62.47803497314453,1.4934293031692505,-48.02864456176758
0,56863,-17.147485733032227,6.872899055480957,-15.790682792663574,-40.232242584228516
0,56866,0.7412452697753906,167.61395263671875,-2.161177158355713,26.42030906677246
0,56867,4.353599548339844,65.77904510498047,13.979633331298828,24.84267234802246
0,56974,6.358776092529297,-336.9012451171875,-13.472615242004395,9.997528076171875
0,56974,13.654536247253418,-168.4440460205078,-1.143372654914856,-14.84976863861084
0,56974,-7.44329309463501,193.05337524414062,2.7832868099212646,-37.12408447265625
0,56974,-13.087918281555176,30.5583438873291,-13.262810707092285,7.171989917755127
0,56974,-20.497968673706055,-35.5430793762207,25.900394439697266,24.878978729248047
0,56974,3.0099780559539795,36.52656555175781,-0.21971197426319122,-11.589934349060059
0,56974,25.17877960205078,17.54372787475586,-26.699350357055664,-2.0614802837371826
0,56975,-6.498898983001709,49.34132385253906,13.6282958984375,20.15407943725586
0,56975,-10.55384349822998,51.326290130615234,4.861678600311279,0.11638632416725159
0,56975,9.471343994140625,24.534278869628906,8.633594512939453,1.2475067377090454
0,56975,-18.676441192626953,31.508575439453125,10.680970191955566,-9.330327033996582
0,56975,-17.619340896606445,44.02867889404297,-15.327536582946777,-31.602251052856445
0,56976,8.799686431884766,-15.957036972045898,6.753201484680176,19.527524948120117
0,56976,1.4843220710754395,-41.34811782836914,6.6868438720703125,8.006311416625977
0,56976,-5.180119514465332,-30.41351318359375,-22.773609161376953,-19.758094787597656
0,56976,-6.725409984588623,-50.234432220458984,4.839646339416504,26.453472137451172
0,56976,5.042089939117432,-8.526971817016602,10.37972640991211,6.547159194946289
0,56976,6.633982181549072,11.89230728149414,-24.482080459594727,-7.497122287750244
0,56977,14.544620513916016,6.301888465881348,-8.286441802978516,6.851500511169434
0,56977,13.778407096862793,33.791378021240234,12.722052574157715,4.943244457244873
0,56977,-8.778154373168945,4.418468475341797,11.7788667678833,8.18707275390625
0,56977,11.524155616760254,-25.24344253540039,12.746447563171387,-4.88474178314209
0,56977,21.862653732299805,-4.605172634124756,-1.1063449382781982,-5.613239288330078
0,56977,-4.239510536193848,-7.269749164581299,-10.796966552734375,-1.1234843730926514
0,56978,-8.918429374694824,-31.603784561157227,-1.24500572681427,-9.240691184997559
0,56978,16.96381950378418,-15.932418823242188,1.7772505283355713,-8.42658805847168
0,56978,24.43501091003418,-1.1004973649978638,7.600382328033447,6.75706672668457
0,56978,-8.704319953918457,6.614680290222168,-8.649868965148926,5.168429851531982
0,56978,-26.878068923950195,13.239974975585938,-9.421416282653809,-3.8600196838378906
0,56979,-20.782875061035156,3.4372165203094482,20.017786026000977,12.621598243713379
0,56979,-6.561557769775391,38.53731918334961,-0.7759979963302612,1.1306096315383911
0,56979,6.546875,9.165454864501953,-8.23361873626709,-21.118362426757812
0,56979,-14.265983581542969,-26.506772994995117,1.648206353187561,-11.007267951965332
0,56979,-32.006248474121094,10.978482246398926,8.573552131652832,1.911475658416748
0,56979,3.5411834716796875,-6.16461706161499,5.051394939422607,1.7146049737930298
0,56980,15.354263305664062,-23.623035430908203,-2.863982915878296,1.5704461336135864
0,56980,-15.547189712524414,-12.088326454162598,-2.501427173614502,-8.740315437316895
0,56980,4.694178581237793,-6.551487922668457,-17.56516456604004,-3.2316734790802
0,56980,27.710968017578125,-0.49365541338920593,-17.93703269958496,19.97576141357422
0,56980,8.044778823852539,12.995173454284668,17.753982543945312,-1.1272473335266113
0,56980,-0.5110435485839844,8.690960884094238,22.114288330078125,-17.06696128845215
0,56981,-5.8884100914001465,-15.350322723388672,-25.972536087036133,13.282193183898926
0,56981,-5.626152038574219,-14.09970474243164,-9.689838409423828,35.8079719543457
0,56981,6.946035861968994,-1.1992145776748657,6.5092010498046875,-3.005737066268921
0,56981,-2.4025988578796387,11.924159049987793,3.1750524044036865,-12.149861335754395
0,56981,-5.10799503326416,26.670257568359375,25.28327751159668,19.049589157104492
0,56981,8.909192085266113,1.0701420307159424,-3.383598566055298,-17.264612197875977
0,56982,0.6117305755615234,-40.33246612548828,-22.984233856201172,-14.358168601989746
0,56982,-3.21905255317688,-17.7150936126709,7.7347025871276855,30.2088680267334
0,56982,6.386675834655762,54.770301818847656,17.33963394165039,-19.379196166992188
0,56982,14.82980728149414,36.73216247558594,-22.774534225463867,-39.196563720703125
0,56982,-2.9162588119506836,-28.249601364135742,-11.956352233886719,11.771756172180176
0,56982,-2.5571792125701904,-10.118953704833984,17.6257266998291,-2.471945285797119
0,56984,7.623411178588867,28.38574981689453,6.512897491455078,-46.359127044677734
0,56984,-24.468738555908203,25.705951690673828,19.92810821533203,-25.94379234313965
0,56984,-4.872612476348877,-1.0871304273605347,-3.986429214477539,27.450927734375
0,56984,18.390588760375977,0.6270817518234253,-13.861098289489746,18.530017852783203
0,56984,-6.609018802642822,2.948902130126953,2.7588253021240234,2.8890457153320312
0,56986,-1.2263972759246826,-4.5897111892700195,-7.273466110229492,29.95482063293457
0,56987,3.7295114994049072,-32.57173156738281,1.2628098726272583,51.2844123840332
0,56990,-25.517362594604492,-138.45278930664062,-16.017824172973633,30.838632583618164
0,56991,-8.329813003540039,-109.38630676269531,-22.011037826538086,-36.745361328125
0,56994,37.526607513427734,82.71963500976562,16.201509475708008,-17.827791213989258
0,56995,39.25602340698242,191.0853729248047,-3.639413833618164,27.27566909790039
0,56998,8.914228439331055,110.45712280273438,12.589631080627441,-9.483482360839844
0,56999,-19.72391128540039,-117.6253890991211,20.54155731201172,3.193577527999878
0,57002,-47.106605529785156,-122.99404907226562,-27.518220901489258,11.725913047790527
0,57003,-27.70972442626953,25.33834457397461,18.543888092041016,-44.62679672241211
0,57006,37.7448844909668,87.7828598022461,14.510821342468262,-35.32762908935547
0,57007,9.127867698669434,41.31977081298828,-4.125979900360107,10.611723899841309
0,57010,-27.78838348388672,-112.13826751708984,9.34890079498291,-19.07989501953125
0,57011,2.6604976654052734,-44.20771408081055,0.6248749494552612,-19.63522720336914
0,57014,35.877403259277344,85.18621826171875,-17.586381912231445,68.16971588134766
0,57015,-11.65966796875,68.59691619873047,-54.389060974121094,67.05834197998047
0,57018,-16.062162399291992,25.95442771911621,7.364217758178711,-5.422547340393066
0,57019,39.10136413574219,-58.68584060668945,56.771854400634766,-28.214656829833984
0,57022,-31.037200927734375,-83.51072692871094,12.146870613098145,-54.039306640625
0,57023,-35.068180084228516,-28.924524307250977,-11.838221549987793,-46.159690856933594
0,57141,48.37625503540039,65.77487182617188,-0.8913739919662476,35.32115936279297
0,57141,37.781707763671875,84.82249450683594,-7.711989879608154,35.44684600830078
0,57141,-35.7012825012207,2.2554707527160645,4.726731300354004,-20.30792236328125
0,57141,-22.672311782836914,-13.509603500366211,19.014863967895508,-1.9549425840377808
0,57141,4.922094821929932,-28.050952911376953,-8.655717849731445,-3.3805172443389893
0,57142,-23.312570571899414,-53.54352951049805,-8.792490005493164,-3.566192626953125
0,57142,-6.494325637817383,-27.223169326782227,-6.112748622894287,4.315274715423584
0,57142,18.30284309387207,-20.396638870239258,-8.13239574432373,-15.648405075073242
0,57142,18.530752182006836,-0.028355756774544716,-14.387231826782227,21.21316146850586
0,57142,-6.712048053741455,47.5723991394043,-5.057407855987549,47.244056701660156
0,57143,-7.169316291809082,30.758344650268555,16.7792911529541,-11.866896629333496
0,57143,16.71170425415039,-1.8056517839431763,-4.644070625305176,-33.50354766845703
0,57143,-1.5707184076309204,6.463613033294678,-7.441965103149414,5.898684501647949
0,57143,-16.63861656188965,0.6232149004936218,22.633771896362305,1.2230784893035889
0,57143,-1.347208857536316,-16.753660202026367,-2.270920753479004,-15.22921085357666
0,57143,8.110048294067383,-28.996353149414062,-29.60859489440918,-3.9281160831451416
0,57144,-1.1374833583831787,4.102099895477295,18.158586502075195,8.434990882873535
0,57144,9.987086296081543,26.041296005249023,26.62228775024414,-2.109229564666748
0,57144,8.722588539123535,-3.825890302658081,-22.047147750854492,1.2852203845977783
0,57144,-18.565492630004883,11.544575691223145,-30.527292251586914,16.41724967956543
0,57144,-3.2511746883392334,28.570541381835938,20.14726448059082,0.5786592960357666
0,57144,28.85265350341797,22.260786056518555,35.265350341796875,-13.480325698852539
0,57145,19.75126075744629,-0.6326168775558472,-12.135931968688965,-11.65373420715332
0,57145,-20.563405990600586,-21.873903274536133,-14.202587127685547,-3.8241567611694336
0,57145,-33.93649673461914,-4.140953063964844,6.109748363494873,7.720559120178223
0,57145,8.413802146911621,-7.959200382232666,25.283790588378906,15.43914794921875
0,57145,25.685453414916992,-25.508943557739258,16.197404861450195,10.637629508972168
0,57145,1.021822452545166,-12.891677856445312,-33.58250427246094,-8.345069885253906
0,57146,-9.288443565368652,-9.112630844116211,-18.893531799316406,-8.270950317382812
0,57146,-20.76842498779297,-11.654099464416504,15.5963134765625,19.62223243713379
0,57146,4.248696327209473,18.161407470703125,-5.610342979431152,20.0517635345459
0,57146,17.923507690429688,20.160507202148438,-13.72907829284668,-14.784414291381836
0,57146,-19.045974731445312,0.7511228919029236,14.566390991210938,-16.029552459716797
0,57146,-15.011139869689941,-9.760550498962402,-4.877649784088135,3.6638317108154297
0,57147,9.244634628295898,-27.523208618164062,-14.987268447875977,-7.946355819702148
0,57147,9.175220489501953,-6.872232437133789,32.09259033203125,-9.355486869812012
0,57147,-8.719460487365723,16.887508392333984,5.518586158752441,4.456623554229736
0,57147,-2.0499093532562256,-17.225446701049805,-24.5819091796875,15.964109420776367
0,57147,18.062503814697266,-14.957045555114746,-6.3060126304626465,2.7431106567382812
0,57148,8.635418891906738,23.550771713256836,-7.511168479919434,-16.9928035736084
0,57148,11.648336410522461,1.2706156969070435,1.597589135169983,-8.17943000793457
0,57148,-4.479250431060791,-16.120332717895508,24.448265075683594,6.0620341300964355
0,57148,-22.103906631469727,19.03238296508789,21.878721237182617,14.307064056396484
0,57148,11.431952476501465,31.862756729125977,-16.969974517822266,-8.3413667678833
0,57148,14.201028823852539,-17.963878631591797,-16.848800659179688,-2.6624042987823486
0,57148,-9.582781791687012,-16.194473266601562,10.792530059814453,8.13088321685791
0,57149,-13.512818336486816,13.511549949645996,5.488908290863037,-20.58406639099121
0,57149,-8.545868873596191,1.8914716243743896,-12.04788589477539,9.091409683227539
0,57149,-0.20320041477680206,3.772489547729492,-2.347093343734741,26.281200408935547
0,57149,-7.631082534790039,14.77239990234375,3.4285600185394287,-19.644838333129883
0,57149,0.20216771960258484,-2.7738311290740967,-14.425000190734863,-21.88360595703125
0,57149,12.765565872192383,-12.44985294342041,3.143935203552246,22.677087783813477
0,57150,-3.41068434715271,19.120624542236328,25.46159553527832,11.327463150024414
0,57150,-18.540725708007812,-3.311178207397461,-11.543667793273926,-19.055055618286133
0,57150,-5.238364219665527,-7.264010429382324,-26.772254943847656,-0.46326273679733276
0,57150,18.040142059326172,12.081599235534668,6.217233657836914,3.3131351470947266
0,57150,10.112459182739258,-18.20147705078125,2.8006067276000977,-12.560660362243652
0,57151,-18.48600196838379,-25.979318618774414,3.233572244644165,-0.6397630572319031
0,57151,3.681251049041748,-3.9440090656280518,-6.291563034057617,30.52718734741211
0,57152,23.735864639282227,34.796043395996094,0.34726014733314514,-1.1677879095077515
0,57152,-7.672122001647949,10.773914337158203,33.74537658691406,-27.643047332763672
0,57152,-0.5331974625587463,-15.67803955078125,9.702993392944336,14.92999267578125
0,57152,13.408282279968262,55.1121940612793,4.207963943481445,13.740947723388672
0,57153,10.980826377868652,28.2918758392334,0.3736184239387512,-10.065485000610352
0,57154,7.196220397949219,-4.975408554077148,-31.04155921936035,-8.711942672729492
0,57155,-2.1169357299804688,74.2786865234375,-13.527324676513672,-3.053920269012451
0,57158,-22.216073989868164,0.12663061916828156,15.997297286987305,11.0269775390625
0,57159,-9.745145797729492,-96.129638671875,-9.454965591430664,13.343648910522461
0,57162,27.727705001831055,-36.78001022338867,-8.785930633544922,-20.081239700317383
0,57163,-17.997753143310547,-17.731714248657227,10.133204460144043,-10.388957977294922
0,57166,-31.041805267333984,16.812728881835938,-14.400934219360352,21.809648513793945
0,57167,35.82762145996094,1.0612711906433105,12.582364082336426,4.386471748352051
0,57170,58.174556732177734,-143.19540405273438,24.115280151367188,-19.1442928314209
0,57171,-2.905677318572998,-44.394371032714844,-13.261171340942383,-17.952362060546875
0,57174,-99.12518310546875,171.91275024414062,-10.78773307800293,23.26866340637207
0,57175,-53.7568473815918,125.96918487548828,7.7225470542907715,15.588757514953613
0,57178,65.02824401855469,-46.3096809387207,7.884807586669922,-10.793087005615234
0,57179,40.142578125,-86.02250671386719,-9.944060325622559,-1.1529611349105835
0,57182,-28.823366165161133,-23.167308807373047,14.31577205657959,-0.28926971554756165
0,57183,-11.30138874053955,12.938532829284668,15.26474380493164,-7.664163112640381
0,57186,24.51243782043457,71.78472900390625,-10.673690795898438,-33.38020324707031
0,57187,30.643579483032227,4.093300819396973,7.720229148864746,-0.6663718819618225
0,57190,-23.36156463623047,-148.06871032714844,-41.061805725097656,43.765750885009766
0,57191,-54.90623092651367,-37.98163604736328,-40.577816009521484,5.173230171203613
0,57194,27.353004455566406,136.2974395751953,45.55409240722656,46.087371826171875
0,57321,11.682883262634277,42.69224548339844,32.01626205444336,21.03797149658203
0,57321,-34.45367431640625,-72.48873901367188,0.3976091146469116,-101.83562469482422
0,57321,37.33277130126953,-5.675188064575195,4.92855167388916,-7.664360523223877
0,57321,29.13818359375,33.2464599609375,-20.120908737182617,47.29378890991211
0,57322,-27.082921981811523,26.858097076416016,-15.231036186218262,-17.559398651123047
0,57322,-17.493877410888672,21.300670623779297,8.033464431762695,6.061775207519531
0,57322,-4.255539417266846,10.889198303222656,6.295184135437012,-0.2835996150970459
0,57322,4.817976474761963,-4.376594543457031,2.741651773452759,-9.74720287322998
0,57322,21.579866409301758,-33.54681396484375,18.35771942138672,10.29361343383789
0,57322,22.049633026123047,-37.181190490722656,12.093705177307129,-10.534460067749023
0,57323,4.2037434577941895,-41.33644485473633,-28.567031860351562,-9.637178421020508
0,57323,-1.3687714338302612,1.7835698127746582,7.494125843048096,4.465148448944092
0,57323,-5.450532913208008,16.297039031982422,18.820459365844727,-5.178041934967041
0,57323,-8.45267391204834,0.04903298616409302,-36.9960823059082,-27.030141830444336
0,57323,-4.577490329742432,42.8050537109375,-23.107006072998047,-17.300395965576172
0,57323,-14.703065872192383,34.279747009277344,10.872271537780762,33.77354049682617
0,57324,-15.206336975097656,13.223122596740723,5.359060764312744,18.118423461914062
0,57324,-3.3739092350006104,-2.8502871990203857,-17.092365264892578,-10.368612289428711
0,57324,8.50174617767334,-31.59089469909668,-12.501453399658203,16.80579948425293
0,57324,8.931394577026367,-1.374894380569458,6.0239434242248535,15.529255867004395
0,57324,-2.5513815879821777,11.452241897583008,3.207608222961426,0.23328207433223724
0,57325,-6.362948894500732,-16.107797622680664,9.361416816711426,5.67792272567749
0,57325,7.608270645141602,-15.744211196899414,10.092159271240234,20.537185668945312
0,57325,5.623289108276367,10.525933265686035,2.746371030807495,16.875608444213867
0,57325,-7.297187328338623,6.598958969116211,-0.9695345759391785,-25.91149139404297
0,57325,-2.0785906314849854,-28.232120513916016,-0.6817107200622559,-24.402603149414062
0,57325,7.406492710113525,2.0156760215759277,25.202987670898438,3.028432607650757
0,57326,19.66233253479004,10.019767761230469,15.25828742980957,-9.087674140930176
0,57326,8.946616172790527,-28.846271514892578,-22.35540008544922,-1.8672393560409546
0,57326,-16.863895416259766,11.684205055236816,-6.9637451171875,-15.029815673828125
0,57326,3.0095632076263428,12.741157531738281,-2.4023380279541016,-28.672639846801758
0,57326,8.172536849975586,-32.303253173828125,-15.161492347717285,26.604534149169922
0,57326,-8.968978881835938,-0.4786199927330017,5.406111240386963,38.88908386230469
0,57327,12.994316101074219,14.778167724609375,7.658424377441406,-6.5121588706970215
0,57327,3.3368470668792725,-21.999889373779297,-6.123534202575684,7.523472309112549
0,57327,-16.613059997558594,8.66716194152832,4.433169364929199,13.392756462097168
0,57327,5.752661228179932,33.50380325317383,6.471436023712158,-25.235193252563477
0,57327,3.409841537475586,-17.507728576660156,2.7513344287872314,3.84213924407959
0,57327,-23.968612670898438,-1.143050193786621,-20.639034271240234,6.411387920379639
0,57328,-1.3260281085968018,9.712376594543457,-19.86858367919922,-22.595991134643555
0,57328,16.1146297454834,-30.013648986816406,30.34090232849121,-10.98288631439209
0,57328,-6.016599655151367,-5.143693923950195,7.509650230407715,-4.070411205291748
0,57328,-18.334434509277344,15.387789726257324,-16.21616554260254,13.011557579040527
0,57328,-6.02650785446167,17.780271530151367,2.5691895484924316,5.061376094818115
0,57328,-1.9446351528167725,6.860517501831055,-25.951818466186523,-7.171889305114746
0,57329,-8.043684005737305,9.870898246765137,-8.452156066894531,4.3453192710876465
0,57329,15.136113166809082,4.984602451324463,35.87213897705078,1.220886468887329
0,57329,-1.0054413080215454,-38.222320556640625,8.603059768676758,1.5399951934814453
0,57329,-7.1734538078308105,9.598587989807129,-12.073771476745605,9.309911727905273
0,57329,17.8641300201416,20.48988914489746,-3.281069040298462,3.0380895137786865
0,57329,8.133594512939453,-24.60895538330078,30.95697784423828,-8.023874282836914
0,57330,13.759649276733398,18.24396514892578,19.27385139465332,-14.095114707946777
0,57330,13.001079559326172,7.273448467254639,-11.686323165893555,-7.269186496734619
0,57330,11.202695846557617,-29.749710083007812,7.6868109703063965,7.568347454071045
0,57330,0.9561441540718079,19.848434448242188,6.472853183746338,22.119266510009766
0,57330,-26.15894317626953,18.18790054321289,7.4438700675964355,9.053849220275879
0,57330,-2.935584306716919,-7.657703399658203,1.4461325407028198,-21.23674774169922
0,57331,10.751286506652832,6.878037452697754,-16.411338806152344,-10.663360595703125
0,57331,-18.806825637817383,-17.931358337402344,-20.880462646484375,8.170588493347168
0,57331,-22.272613525390625,-10.16550350189209,-2.88030743598938,7.540381908416748
0,57331,-4.578562259674072,33.62369918823242,16.261245727539062,-6.631838798522949
0,57331,7.042293071746826,1.5667308568954468,-15.740039825439453,-3.9462363719940186
0,57332,3.004362106323242,-14.387251853942871,-9.524765014648438,12.808318138122559
0,57332,-2.1176095008850098,28.722808837890625,17.165424346923828,-4.134081840515137
0,57333,-2.897608518600464,33.477962493896484,-18.04369354248047,9.080276489257812
0,57333,-9.986288070678711,5.485110759735107,-18.249303817749023,12.651028633117676
0,57333,7.738977432250977,-21.977684020996094,19.92743492126465,-9.41850757598877
0,57333,24.98848533630371,-1.3638403415679932,16.316495895385742,18.673368453979492
0,57334,24.64520835876465,23.05787467956543,-10.527694702148438,9.370329856872559
0,57334,20.531885147094727,2.5639803409576416,2.0006885528564453,-11.721733093261719
0,57335,-3.7955689430236816,16.6844425201416,1.321711778640747,28.179052352905273
0,57338,-52.43574905395508,10.986075401306152,-16.345989227294922,-53.74634552001953
0,57339,-43.21622085571289,-54.56264877319336,-4.575772285461426,-74.75019073486328
0,57342,23.7979679107666,-79.6852798461914,-7.342165470123291,54.73915481567383
0,57343,27.02768898010254,-25.802583694458008,9.85978889465332,12.975150108337402
0,57346,4.344148635864258,52.14411163330078,12.961320877075195,-14.980364799499512
0,57347,-0.48454421758651733,1.7875570058822632,-28.969934463500977,7.879990577697754
0,57350,-13.618559837341309,-95.73017120361328,-16.336679458618164,-31.1677188873291
0,57351,-10.954297065734863,-44.228919982910156,20.564165115356445,-15.943154335021973
0,57354,24.1462459564209,118.89922332763672,27.131410598754883,34.04204177856445
0,57355,12.539460182189941,135.8851776123047,4.493662357330322,27.21282196044922
0,57358,-15.285502433776855,-38.50626754760742,6.79668664932251,-3.3631207942962646
0,57359,14.134764671325684,-67.13616943359375,11.747697830200195,6.758579254150391
0,57362,-4.69506311416626,-17.290555953979492,11.27242660522461,6.959547519683838
0,57363,-8.125027656555176,7.79531717300415,14.338135719299316,-10.333643913269043
0,57366,0.8810763359069824,37.689971923828125,-60.121768951416016,3.9349145889282227
0,57367,-43.32744216918945,-58.461814880371094,-80.29661560058594,16.982166290283203
0,57370,29.12262535095215,-76.06848907470703,69.20787811279297,-14.177809715270996
0,57371,49.8272819519043,22.296836853027344,106.1280746459961,-24.600561141967773
0,57374,-57.958438873291016,130.7850799560547,-83.28874969482422,-1.3747072219848633
0,57375,-21.79322624206543,115.97491455078125,-58.83170700073242,31.516490936279297
0,57514,78.50409698486328,-147.38296508789062,58.488677978515625,-9.513370513916016
0,57514,51.958404541015625,-130.60598754882812,-7.497985363006592,-23.55897331237793
0,57514,-42.88752746582031,129.25001525878906,0.9860519766807556,37.47224807739258
0,57514,-17.289867401123047,70.77259063720703,12.617506980895996,2.8945319652557373
0,57514,-0.7359371781349182,-33.48714065551758,-18.431171417236328,-16.717529296875
0,57514,-36.3201904296875,18.81053924560547,23.544368743896484,-5.003093242645264
0,57515,4.637164115905762,12.233774185180664,1.0657169818878174,-17.196563720703125
0,57515,-8.79043197631836,-32.198097229003906,-31.184926986694336,2.003312349319458
0,57515,-28.21050453186035,-40.81968307495117,18.36968231201172,7.704092502593994
0,57515,1.8477709293365479,-18.815288543701172,13.785760879516602,8.171213150024414
0,57515,5.445611000061035,-12.97126579284668,-16.421878814697266,5.345198631286621
0,57515,-2.1441991329193115,-9.723919868469238,-13.267356872558594,-21.748573303222656
0,57516,-4.005568504333496,20.095294952392578,-5.5176215171813965,2.85390305519104
0,57516,2.1598682403564453,26.155284881591797,24.176319122314453,23.479772567749023
0,57516,23.353670120239258,9.570869445800781,6.268123149871826,-18.113616943359375
0,57516,23.420148849487305,-10.55289077758789,-24.92793083190918,-6.222607612609863
0,57516,-10.743417739868164,5.9811882972717285,17.398361206054688,20.389629364013672
0,57516,-12.574057579040527,-15.500617027282715,24.843278884887695,3.060455560684204
0,57517,13.352951049804688,-38.69538879394531,-11.871142387390137,-21.016815185546875
0,57517,2.8511407375335693,1.322184681892395,-22.119285583496094,-2.2980878353118896
0,57517,-12.510016441345215,-3.076838970184326,-15.288843154907227,13.807353973388672
0,57517,-1.3020275831222534,5.902348041534424,12.862641334533691,-8.49158763885498
0,57517,6.00347900390625,10.473028182983398,21.666194915771484,2.1474173069000244
0,57518,0.8493532538414001,11.844058990478516,-4.272506237030029,9.628418922424316
0,57518,7.559973239898682,26.918004989624023,-8.42654037475586,-7.9688029289245605
0,57518,7.056638240814209,-22.323049545288086,-11.573271751403809,-3.149653911590576
0,57518,-14.707925796508789,-20.42472267150879,2.3153228759765625,6.941747188568115
0,57518,6.421891689300537,19.21872901916504,9.591782569885254,-8.77953052520752
0,57518,22.20492935180664,-13.347207069396973,-14.399660110473633,-16.360523223876953
0,57519,-22.243228912353516,-18.570289611816406,-1.4579663276672363,11.628195762634277
0,57519,-13.644365310668945,19.426712036132812,10.430487632751465,18.541015625
0,57519,21.718666076660156,12.927748680114746,20.204147338867188,-13.09816837310791
0,57519,-1.6839638948440552,-9.376509666442871,4.077963829040527,-4.192988872528076
0,57519,-13.44996166229248,-11.638192176818848,-26.052356719970703,11.807060241699219
0,57519,10.946868896484375,13.42059326171875,0.04351140931248665,1.0704659223556519
0,57520,3.193338632583618,10.98725700378418,8.191427230834961,-12.254765510559082
0,57520,-24.179716110229492,-14.367754936218262,8.023294448852539,8.423678398132324
0,57520,6.9996819496154785,2.9826252460479736,6.085219383239746,5.3941473960876465
0,57520,3.994600772857666,-4.152674198150635,-6.33010196685791,-13.741520881652832
0,57520,-13.775701522827148,-14.36860179901123,1.6895108222961426,27.028108596801758
0,57520,30.92070198059082,7.663741588592529,-21.605819702148438,2.551823377609253
0,57521,-4.508843421936035,-4.419159412384033,-18.9018497467041,-24.290634155273438
0,57521,-31.510194778442383,-6.330505847930908,27.716461181640625,-2.7096657752990723
0,57521,14.838448524475098,34.96452713012695,21.823453903198242,-7.175012588500977
0,57521,3.5347275733947754,9.92788028717041,-14.217952728271484,12.58410358428955
0,57521,-15.31583023071289,-15.425037384033203,-7.54429817199707,26.033428192138672
0,57521,7.190505027770996,20.17559814453125,10.642045021057129,-4.122245788574219
0,57522,20.356111526489258,18.614728927612305,-6.189612865447998,-28.816701889038086
0,57522,2.1984448432922363,-16.89797019958496,-19.691810607910156,-2.0791845321655273
0,57522,-6.109816551208496,-13.506895065307617,15.062161445617676,14.854841232299805
0,57522,-2.28643798828125,-0.33863285183906555,8.889309883117676,-12.493927955627441
0,57522,-11.686348915100098,-13.279619216918945,-29.645450592041016,2.49025559425354
0,57522,0.2737310528755188,9.05703067779541,2.8995025157928467,13.62248706817627
0,57523,24.510000228881836,1.5870479345321655,3.881532669067383,-15.422069549560547
0,57523,4.986105918884277,-7.915390968322754,5.361639976501465,-11.643117904663086
0,57523,-16.018482208251953,12.02797794342041,26.50732421875,3.5805928707122803
0,57523,0.1600087732076645,0.042851053178310394,-13.344352722167969,14.800418853759766
0,57523,7.211571216583252,0.6198568344116211,-12.287858009338379,16.004945755004883
0,57524,6.915388107299805,20.50177001953125,11.27076530456543,-14.95683765411377
0,57524,-13.8543701171875,2.9485106468200684,-4.435540676116943,-17.357349395751953
0,57524,-20.461990356445312,-23.163022994995117,8.51254653930664,10.658723831176758
0,57524,8.897019386291504,5.211885929107666,9.976155281066895,12.720393180847168
0,57524,11.972066879272461,24.57537269592285,-20.564571380615234,-2.6252148151397705
0,57524,-4.551362037658691,3.073671817779541,7.0157647132873535,-0.9521572589874268
0,57524,-4.508880138397217,-4.680375099182129,17.67511558532715,10.072532653808594
0,57525,2.0959694385528564,-13.451812744140625,-22.040380477905273,-3.2438137531280518
0,57525,0.6242133378982544,-33.560848236083984,-8.043204307556152,-19.80243682861328
0,57525,3.697855234146118,6.109783172607422,11.217591285705566,12.77033805847168
0,57525,-3.601177215576172,10.488804817199707,-4.3812103271484375,22.38893699645996
0,57526,-2.5045032501220703,-60.2998046875,-7.322274208068848,-22.321231842041016
0,57527,8.350703239440918,-35.30176544189453,5.3264875411987305,-13.67040729522705
0,57527,-1.403342604637146,13.663580894470215,5.97061824798584,13.207781791687012
0,57527,-16.340028762817383,11.251358985900879,-5.054642200469971,-2.4745631217956543
0,57527,-2.5750184059143066,17.381114959716797,-7.359842300415039,-5.042466640472412
0,57527,20.59449005126953,5.956715106964111,10.809613227844238,12.055582046508789
0,57529,-7.356143951416016,-13.672491073608398,13.002104759216309,-3.7889792919158936
0,57530,-5.953044891357422,-22.165164947509766,7.539297103881836,-23.273468017578125
0,57531,32.07694625854492,14.677155494689941,-20.836362838745117,-13.856549263000488
0,57534,-24.599863052368164,125.23096466064453,-56.57002258300781,22.144939422607422
0,57535,-40.19678497314453,97.1285171508789,-5.512509822845459,47.43775177001953
0,57538,54.59218215942383,-93.51993560791016,47.85636901855469,1.6721702814102173
0,57539,67.52091217041016,-59.186065673828125,47.80868148803711,-33.83259201049805
0,57542,-40.40237045288086,37.07809066772461,-3.3028032779693604,-31.831626892089844
0,57543,-74.60304260253906,6.284296035766602,-17.733505249023438,3.6995577812194824
0,57546,6.86148738861084,-3.0485215187072754,-13.887727737426758,42.002384185791016
0,57547,28.277435302734375,-50.85938262939453,-30.635906219482422,-4.83748722076416
0,57550,-21.010934829711914,-76.52083587646484,27.895549774169922,-27.664308547973633
0,57551,-15.690938949584961,-29.540027618408203,26.228607177734375,14.679649353027344
0,57554,30.923995971679688,112.23663330078125,-19.99364471435547,4.216671943664551
0,57555,12.435281753540039,108.49677276611328,-2.581920623779297,-8.691807746887207
0,57558,-0.3125556409358978,-55.34626388549805,19.134693145751953,15.466703414916992
0,57559,2.4425032138824463,-51.39686965942383,27.922048568725586,11.007980346679688
0,57562,0.9459903240203857,-25.522987365722656,-44.898834228515625,-15.058070182800293
0,57563,-18.386369705200195,7.04885196685791,-63.95328903198242,-16.2391357421875
0,57566,-15.082317352294922,55.501155853271484,50.98928451538086,11.621417999267578
0,57567,56.74398422241211,-31.490863800048828,48.55685043334961,-8.991494178771973
0,57570,2.5803873538970947,-99.34916687011719,-30.13199234008789,-3.194200038909912
0,57571,-44.40193557739258,-4.735856056213379,-27.648075103759766,6.055961608886719
0,57720,3.0894203186035156,115.2759780883789,51.22206497192383,1.3565270900726318
0,57720,-10.690792083740234,11.663346290588379,37.08888626098633,27.320409774780273
0,57721,-15.345772743225098,-85.25444793701172,-60.427249908447266,-13.56458568572998
0,57721,11.162569999694824,21.256086349487305,-18.806123733520508,-17.785791397094727
0,57721,25.941539764404297,55.45155334472656,32.18925857543945,18.407222747802734
0,57721,14.567774772644043,14.404802322387695,4.5258026123046875,13.744001388549805
0,57721,1.2895750999450684,-15.279773712158203,-15.061662673950195,-9.46025276184082
0,57721,-0.9370654225349426,-16.77173614501953,-8.058284759521484,-10.178020477294922
0,57722,-4.076528549194336,15.827730178833008,6.069538116455078,10.851358413696289
0,57722,-11.888335227966309,9.07848072052002,3.683560371398926,4.789042949676514
0,57722,-2.0101561546325684,-28.326404571533203,-3.155085802078247,-20.99430274963379
0,57722,7.155025959014893,-45.0956916809082,-11.262154579162598,-16.69506072998047
0,57722,-15.99970531463623,-18.642141342163086,-7.162711143493652,16.921171188354492
0,57723,-13.770356178283691,34.073036193847656,-0.7679200768470764,6.922076225280762
0,57723,-0.21651552617549896,26.794692993164062,0.9307444095611572,-14.541731834411621
0,57723,-17.147001266479492,-4.9474945068359375,-7.9437103271484375,-9.108346939086914
0,57723,-11.658218383789062,23.220951080322266,-7.974945068359375,0.7184245586395264
0,57723,9.284497261047363,43.918270111083984,12.799385070800781,19.923973083496094
0,57723,-3.3975143432617188,10.434459686279297,13.248448371887207,8.557072639465332
0,57724,7.521982669830322,-11.28968620300293,-8.478623390197754,-21.30107307434082
0,57724,8.268481254577637,-3.322971820831299,-13.823975563049316,-19.99538803100586
0,57724,-0.2330724149942398,-34.292442321777344,1.4220764636993408,-10.231185913085938
0,57724,26.816574096679688,-43.471988677978516,-5.279330730438232,15.222013473510742
0,57724,2.82480525970459,-2.2410337924957275,1.9006620645523071,13.57546329498291
0,57724,-3.5506882667541504,30.49127960205078,19.241954803466797,-3.2294836044311523
0,57725,22.855243682861328,3.283363103866577,0.939785361289978,10.816041946411133
0,57725,1.8241405487060547,-35.26958084106445,-8.620368957519531,0.10126921534538269
0,57725,5.608117580413818,6.748106956481934,8.252742767333984,1.393828272819519
0,57725,10.851476669311523,30.94924545288086,1.007476568222046,-12.451343536376953
0,57725,-7.546431064605713,-25.629932403564453,-10.429819107055664,-16.337440490722656
0,57725,6.30842399597168,-34.20978927612305,25.626190185546875,39.81092834472656
0,57726,9.572195053100586,2.9602935314178467,3.985363483428955,-1.3349252939224243
0,57726,-5.779365539550781,-4.4616804122924805,-29.679473876953125,-40.72888946533203
0,57726,-3.181276321411133,5.155088901519775,20.938756942749023,25.137746810913086
0,57726,-14.732731819152832,30.651708602905273,18.42750358581543,23.340322494506836
0,57726,-11.725747108459473,0.35286998748779297,-18.46023178100586,-23.22664451599121
0,57726,12.452901840209961,-11.34170913696289,9.321864128112793,1.2570523023605347
0,57727,-4.593572616577148,6.146646022796631,10.13759708404541,0.5214884877204895
0,57727,-17.085803985595703,-1.7685431241989136,-22.059900283813477,-14.72046184539795
0,57727,-16.16348648071289,-0.9984890818595886,-6.41099739074707,6.222384929656982
0,57727,-15.89307689666748,0.04813949763774872,18.379526138305664,5.723180770874023
0,57727,3.0423929691314697,9.391249656677246,-4.849031448364258,12.871283531188965
0,57727,1.1469064950942993,3.4377286434173584,-12.929779052734375,-15.099069595336914
0,57728,-0.18134428560733795,-30.917842864990234,8.547405242919922,-19.194446563720703
0,57728,-4.905479431152344,-2.894955635070801,-10.249567031860352,16.189437866210938
0,57728,-23.723363876342773,53.3923225402832,-6.378687858581543,21.46384048461914
0,57728,12.138011932373047,14.85605239868164,8.989691734313965,7.7928619384765625
0,57728,29.944231033325195,-27.261064529418945,-26.835023880004883,-29.904582977294922
0,57728,-12.981715202331543,-14.637481689453125,-18.655256271362305,4.125423908233643
0,57729,-14.817026138305664,-14.593074798583984,40.90782928466797,32.477081298828125
0,57729,10.265645027160645,18.27823257446289,19.411710739135742,-13.9098539352417
0,57729,15.627185821533203,4.637295246124268,-26.456321716308594,-6.666604042053223
0,57729,-5.056717395782471,-35.99038314819336,-5.881370544433594,15.626518249511719
0,57729,-21.475967407226562,4.804210186004639,16.29621124267578,-2.181642770767212
0,57730,22.296710968017578,24.90904998779297,-5.190204620361328,-12.731827735900879
0,57730,18.13812255859375,11.698625564575195,-15.095808029174805,4.8572611808776855
0,57730,-19.364151000976562,-1.447213053703308,10.361138343811035,18.738346099853516
0,57730,26.285663604736328,-11.81723690032959,3.5662405490875244,-16.02309799194336
0,57730,16.643924713134766,-12.604223251342773,-14.48330307006836,-5.8341827392578125
0,57730,-18.446762084960938,18.831035614013672,0.8630812168121338,30.394615173339844
0,57731,19.073089599609375,41.49688720703125,6.851981163024902,-23.80274200439453
0,57731,5.532238483428955,-23.866113662719727,0.7814480066299438,-20.662973403930664
0,57731,-24.353126525878906,-24.008012771606445,20.765344619750977,35.38319778442383
0,57731,-3.2035136222839355,45.21017074584961,15.24641227722168,-6.1071295738220215
0,57731,11.382259368896484,-1.8121320009231567,-17.4080867767334,-27.007417678833008
0,57731,-1.253092646598816,-15.523226737976074,-1.2023186683654785,16.15888214111328
0,57732,-0.5370963215827942,35.6013069152832,31.51106071472168,-2.3127784729003906
0,57732,4.6952338218688965,-3.658761978149414,-6.865612030029297,-9.1555757522583
0,57732,-8.07534122467041,-31.066875457763672,-16.605863571166992,21.873384475708008
0,57732,13.408285140991211,13.499463081359863,3.6802866458892822,-26.030620574951172
0,57732,25.633405685424805,-1.647691249847412,-16.72010040283203,-16.140560150146484
0,57732,2.0000791549682617,-24.16229820251465,-1.2284343242645264,38.616905212402344
0,57733,-8.437828063964844,27.73937225341797,9.687993049621582,-9.950532913208008
0,57733,-8.154657363891602,8.091596603393555,-6.1478495597839355,-14.635544776916504
0,57734,-25.35753059387207,31.499656677246094,-8.324210166931152,9.959698677062988
0,57734,-20.106374740600586,52.086891174316406,-10.90079402923584,-18.389982223510742
0,57734,13.923096656799316,-48.390647888183594,3.3416128158569336,6.74102783203125
0,57734,2.4610519409179688,-39.82306671142578,26.547992706298828,12.451563835144043
0,57735,-26.623563766479492,2.551698923110962,-1.0051699876785278,-27.251094818115234
0,57735,-15.076663970947266,-11.071380615234375,-12.398508071899414,2.7832674980163574
0,57735,0.3330182135105133,4.916830062866211,9.370462417602539,26.362974166870117
0,57736,4.892469882965088,11.77532958984375,17.338361740112305,0.07385824620723724
0,57738,1.22002375125885,-43.50010299682617,-8.564010620117188,-3.4374492168426514
0,57739,-34.55378341674805,-59.01092529296875,-19.851913452148438,4.088683605194092
0,57742,5.973963260650635,-33.10060119628906,14.632036209106445,1.881253719329834
0,57743,57.653682708740234,5.192337512969971,-0.41230908036231995,-0.44596415758132935
0,57746,19.29989242553711,49.00628662109375,-19.425315856933594,-9.668526649475098
0,57747,23.880983352661133,-43.520469665527344,14.166427612304688,-8.499543190002441
0,57750,-13.983144760131836,-70.6839370727539,-2.4215240478515625,6.398719310760498
0,57751,-72.18578338623047,40.15080642700195,-24.279878616333008,17.41205406188965
0,57754,7.215329647064209,146.8000030517578,12.382929801940918,1.8013464212417603
0,57755,45.59273147583008,121.25457763671875,-2.8250699043273926,-18.525114059448242
0,57758,2.427401542663574,-85.7528305053711,-8.792293548583984,-1.2684396505355835
0,57759,1.2099045515060425,-102.19766235351562,19.947338104248047,-5.0210652351379395
0,57762,0.7320072650909424,12.367169380187988,-6.010308265686035,-13.971948623657227
0,57763,-17.246139526367188,28.008798599243164,-10.102483749389648,24.13123893737793
0,57766,-3.7475228309631348,24.615447998046875,25.047176361083984,5.872400760650635
0,57767,9.377594947814941,-48.49819564819336,20.581876754760742,-14.200384140014648
0,57770,-5.645985126495361,-83.30963897705078,-24.158084869384766,26.701173782348633
0,57771,0.9232556819915771,19.11124038696289,-24.581966400146484,-7.488346576690674
0,57774,5.452604293823242,130.68609619140625,16.258819580078125,-12.80072021484375
0,57775,-3.6926090717315674,86.38245391845703,8.38922119140625,12.183122634887695
0,57778,0.66539466381073,-86.60491943359375,0.9755983352661133,-3.3833022117614746
0,57779,6.669865131378174,-108.12723541259766,-13.998258590698242,4.676702976226807
0,57937,17.103437423706055,57.94971466064453,-11.97846508026123,4.084601402282715
0,57937,5.578902244567871,82.41075897216797,27.19318199157715,10.579302787780762
0,57938,-15.713558197021484,-17.421945571899414,0.3978479504585266,5.177668571472168
0,57938,-5.815227031707764,-12.394857406616211,-3.015362024307251,1.6050490140914917
0,57938,7.2571892738342285,-10.74610424041748,7.161106109619141,-18.79859733581543
0,57938,-2.9185678958892822,-39.107521057128906,-12.77576732635498,-12.978388786315918
0,57938,-16.338367462158203,-22.07650375366211,-0.19034245610237122,35.81256866455078
0,57938,-7.450170516967773,-12.071041107177734,7.815786361694336,-2.7751824855804443
0,57939,16.282480239868164,-18.228849411010742,-4.652578830718994,-37.509735107421875
0,57939,0.06461188942193985,-20.48114776611328,-16.01399803161621,4.554587364196777
0,57939,-36.75934982299805,4.969876289367676,3.6196048259735107,13.457289695739746
0,57939,-6.579120635986328,42.46581268310547,9.600091934204102,-4.270394325256348
0,57939,20.250484466552734,23.931737899780273,-18.367816925048828,-3.6217691898345947
0,57940,-2.994927406311035,-10.200610160827637,-2.446990728378296,-5.359714031219482
0,57940,5.033883571624756,-7.813462257385254,16.38434600830078,-16.412456512451172
0,57940,13.78994369506836,-16.75424575805664,-2.3913519382476807,-14.470269203186035
0,57940,-6.697295665740967,-22.693214416503906,11.614355087280273,1.9599130153656006
0,57940,4.358473777770996,10.19138240814209,7.047450542449951,-12.032276153564453
0,57940,-1.8888436555862427,13.384218215942383,-12.912662506103516,-6.155943393707275
0,57940,-8.727550506591797,11.050515174865723,11.895585060119629,8.442776679992676
0,57941,16.52778434753418,23.032922744750977,6.2254815101623535,-3.4713943004608154
0,57941,4.7550764083862305,9.227027893066406,-30.57501220703125,-3.40633487701416
0,57941,-7.313871383666992,2.22971773147583,-12.26172161102295,2.1759836673736572
0,57941,-7.0554280281066895,11.418973922729492,27.83538055419922,16.82646942138672
0,57941,-0.18601951003074646,21.392709732055664,21.12437629699707,15.01457691192627
0,57942,24.09825897216797,-10.28477954864502,-19.194616317749023,-5.637130260467529
0,57942,8.640329360961914,-33.89511489868164,-15.725034713745117,-9.964762687683105
0,57942,-13.414405822753906,-13.609800338745117,13.549946784973145,13.989205360412598
0,57942,-5.170168876647949,3.0759212970733643,1.1301466226577759,28.200742721557617
0,57942,-7.436649322509766,14.039944648742676,10.387039184570312,-3.573922872543335
0,57942,6.907397270202637,-2.8880815505981445,1.7912673950195312,-12.71046257019043
0,57943,3.707401990890503,-5.678360939025879,-7.58638334274292,16.949249267578125
0,57943,-9.690193176269531,35.313804626464844,0.9001492261886597,0.5542064309120178
0,57943,2.516129732131958,24.771984100341797,-4.76692008972168,-19.999753952026367
0,57943,3.599262237548828,-22.14606285095215,-10.294844627380371,-2.6662938594818115
0,57943,3.2882845401763916,-18.65541648864746,-10.740706443786621,22.39097785949707
0,57943,-7.134105205535889,9.509540557861328,11.0011625289917,17.67616081237793
0,57944,0.12285444140434265,5.9961771965026855,16.779499053955078,-11.597902297973633
0,57944,18.840229034423828,-14.814372062683105,9.645585060119629,-8.061795234680176
0,57944,6.558314800262451,8.611077308654785,-4.814192771911621,-11.027581214904785
0,57944,-18.478830337524414,-3.416663885116577,-17.371522903442383,-1.554541826248169
0,57944,-11.935844421386719,-48.3343391418457,-2.1747968196868896,1.2315056324005127
0,57944,12.220609664916992,1.3013262748718262,24.325273513793945,-9.0812406539917
0,57945,-1.0247902870178223,37.13847351074219,5.0658860206604,20.77936363220215
0,57945,-9.475614547729492,-19.53460693359375,-26.886947631835938,-1.716814637184143
0,57945,-8.260311126708984,-29.039573669433594,-12.386159896850586,-12.338728904724121
0,57945,-4.192141056060791,7.773190498352051,16.935543060302734,0.2134312093257904
0,57945,9.263826370239258,21.051340103149414,15.008477210998535,-19.114791870117188
0,57945,-6.655839920043945,7.309804916381836,-11.862887382507324,17.365230560302734
0,57946,-0.07825988531112671,-16.505268096923828,-8.498429298400879,10.253546714782715
0,57946,28.03854751586914,2.7999794483184814,5.872710227966309,-33.803924560546875
0,57946,5.494028091430664,-12.02500057220459,-7.5380401611328125,15.269217491149902
0,57946,-25.191415786743164,-1.1050928831100464,7.622231960296631,16.015283584594727
0,57946,-5.614994049072266,5.9964118003845215,14.546432495117188,-16.881038665771484
0,57946,13.68401050567627,-21.301559448242188,-21.771595001220703,14.463482856750488
0,57947,1.1735647916793823,24.5036563873291,-2.024819850921631,-3.1746881008148193
0,57947,-1.0087027549743652,-9.629073143005371,15.206673622131348,-12.478083610534668
0,57947,-8.3069486618042,-20.275381088256836,-12.81735897064209,15.781867980957031
0,57947,-7.395373821258545,31.251487731933594,0.4405750632286072,11.301918029785156
0,57947,8.283182144165039,7.610490322113037,0.731001079082489,-17.513757705688477
0,57947,8.853919982910156,0.8983924984931946,-29.928735733032227,-7.762299060821533
0,57948,1.3188565969467163,-10.52958869934082,8.484153747558594,10.809599876403809
0,57948,-17.129812240600586,7.051055908203125,35.33740234375,4.701712608337402
0,57948,1.311403512954712,24.20772361755371,-2.0553433895111084,14.271374702453613
0,57948,10.461999893188477,-27.993337631225586,-5.735702037811279,-14.680448532104492
0,57948,-12.283195495605469,3.8621466159820557,5.923165321350098,-14.6339750289917
0,57949,1.211068034172058,29.708066940307617,-8.218680381774902,7.11597204208374
0,57949,6.21972131729126,-21.02902603149414,-5.692763805389404,1.721458911895752
0,57949,-8.29644775390625,-18.48120880126953,1.2878735065460205,-2.9973161220550537
0,57949,1.1676760911941528,13.094084739685059,-21.856224060058594,-11.149909973144531
0,57949,17.008859634399414,1.5185389518737793,7.956157207489014,23.656009674072266
0,57949,0.08576443046331406,-4.575205326080322,26.371362686157227,11.536921501159668
0,57950,-19.140514373779297,9.613304138183594,-11.408101081848145,-22.86732292175293
0,57950,0.10478533059358597,-16.148103713989258,-7.740289688110352,3.366121768951416
0,57950,14.710731506347656,-2.8899853229522705,-5.381785869598389,-10.857659339904785
0,57950,9.793227195739746,25.56991195678711,6.542476177215576,-6.5285325050354
0,57950,8.889018058776855,6.6750359535217285,21.734996795654297,18.911409378051758
0,57950,-5.370052337646484,-19.857196807861328,0.6757089495658875,-1.9845060110092163
0,57951,-10.521907806396484,-5.40949010848999,-22.567352294921875,-7.951249599456787
0,57952,1.4238216876983643,51.87581253051758,-0.13924045860767365,-2.6051433086395264
0,57952,-4.71181058883667,29.055421829223633,16.214828491210938,-1.777076005935669
0,57952,-10.250539779663086,-23.152124404907227,-7.164801597595215,18.84134864807129
0,57952,-1.798919916152954,-9.0269136428833,-2.7357964515686035,12.80643367767334
0,57952,-5.608429908752441,-4.093903064727783,-5.062010765075684,-23.15297508239746
0,57953,4.281809329986572,4.556650638580322,4.989607334136963,-11.563386917114258
0,57953,16.619796752929688,13.65577507019043,10.967826843261719,1.8744953870773315
0,57954,-5.00846004486084,48.723506927490234,1.1538795232772827,24.28931427001953
0,57955,-11.537845611572266,30.58937644958496,-1.9704113006591797,5.9039692878723145
0,57958,10.010003089904785,-89.74833679199219,-4.507643222808838,-31.92302131652832
0,57960,8.603099822998047,-71.35821533203125,11.65703010559082,10.970077514648438
0,57961,-1.5810242891311646,-12.37938404083252,-1.264167070388794,-0.07392564415931702
0,57964,17.742313385009766,29.48459815979004,8.023983001708984,-11.941126823425293
0,57965,-8.424535751342773,45.42816162109375,27.23076629638672,19.548921585083008
0,57968,-8.979488372802734,-105.99801635742188,-40.55059814453125,-3.2953622341156006
0,57969,18.432048797607422,-92.99644470214844,-50.8253173828125,-2.7897958755493164
0,57972,-43.46749496459961,79.7777099609375,-1.9716321229934692,20.752696990966797
0,57973,-29.370849609375,84.85772705078125,17.388870239257812,0.7803603410720825
0,57976,51.606536865234375,82.14993286132812,59.248313903808594,-3.5761351585388184
0,57977,19.672626495361328,7.79763650894165,12.51103401184082,-0.5892775058746338
0,57980,-28.945571899414062,-112.96704864501953,-54.53614807128906,-16.55014991760254
0,57981,-14.633450508117676,-15.762045860290527,-0.8286260366439819,2.2255868911743164
0,57984,5.5157084465026855,85.38225555419922,21.291696548461914,0.06959519535303116
0,57985,11.605367660522461,36.83196258544922,8.31340503692627,-17.65711212158203
0,57988,-21.55228614807129,-113.25125885009766,-21.961658477783203,-13.300663948059082
0,57989,-28.83545684814453,-90.87525939941406,-31.83684730529785,-15.80101203918457
0,57992,36.38611602783203,94.48465728759766,62.088069915771484,49.384559631347656
0,57993,89.53750610351562,83.53936767578125,24.678159713745117,40.43979263305664
0,57996,105.59660339355469,16.711971282958984,-50.19082260131836,-29.68543243408203
0,57997,-101.79379272460938,-23.338451385498047,-34.343772888183594,1.2044800519943237
0,58000,-219.6619873046875,-77.35124206542969,-17.219804763793945,-14.866984367370605
0,58001,75.75655364990234,-28.127389907836914,39.012325286865234,-14.284104347229004
1,58168,113.27377319335938,-2.4302737712860107,10.103168487548828,22.427350997924805
1,58168,-39.675750732421875,7.906095504760742,-16.73395538330078,-3.9723377227783203
1,58168,-12.881204605102539,53.57074737548828,28.06943130493164,-8.389602661132812
1,58168,-7.038782119750977,-7.560214519500732,1.5745398998260498,0.26982349157333374
1,58169,-10.416107177734375,-45.08616256713867,-5.674583911895752,3.5005435943603516
1,58169,5.059661388397217,-16.244571685791016,3.711306571960449,-10.417096138000488
1,58169,-6.809617042541504,2.9555346965789795,-16.6177921295166,-11.579401016235352
1,58169,-11.918496131896973,8.139863967895508,1.3740055561065674,16.555824279785156
1,58169,32.021568298339844,15.885375022888184,12.419934272766113,-2.3514509201049805
1,58170,23.639450073242188,23.84446144104004,-17.38163185119629,-7.4892449378967285
1,58170,-6.82481575012207,28.83127212524414,-9.940792083740234,14.018139839172363
1,58170,0.4644186496734619,43.31732940673828,22.484010696411133,14.56474781036377
1,58170,2.804325819015503,1.5732879638671875,13.537428855895996,-4.331267833709717
1,58170,6.625980854034424,-13.40045166015625,-5.6427836418151855,-23.703248977661133
1,58170,-10.416374206542969,-9.811738014221191,-20.09134292602539,-10.548819541931152
1,58171,-25.909381866455078,-37.66318130493164,-1.08222496509552,12.725187301635742
1,58171,-1.9075921773910522,-12.495426177978516,13.178448677062988,18.112375259399414
1,58171,19.557857513427734,0.11079251021146774,-11.49494457244873,-4.206197738647461
1,58171,-6.25578498840332,-13.286128044128418,7.828784942626953,-3.2175204753875732
1,58171,-1.1770635843276978,23.659278869628906,8.697959899902344,13.29096508026123
1,58171,21.905086517333984,45.650726318359375,-18.478036880493164,-1.9777233600616455
1,58172,-9.966303825378418,22.943002700805664,20.275562286376953,-4.459878921508789
1,58172,-8.182644844055176,-5.716017723083496,8.771536827087402,2.991771936416626
1,58172,-3.3754734992980957,-14.822234153747559,-18.615541458129883,-2.6409332752227783
1,58172,-8.05808162689209,-10.277541160583496,14.176990509033203,-10.775800704956055
1,58172,4.992171764373779,-3.651244640350342,7.853039264678955,-8.735858917236328
1,58172,6.353661060333252,-7.970577716827393,-24.800342559814453,12.560440063476562
1,58173,4.979964733123779,-1.0143173933029175,-6.91823148727417,6.915088176727295
1,58173,-13.283278465270996,26.59816551208496,14.816317558288574,-8.720457077026367
1,58173,10.52731990814209,1.3452726602554321,-5.010047912597656,12.865864753723145
1,58173,21.952138900756836,-12.927557945251465,-8.106493949890137,3.834660768508911
1,58173,-21.092599868774414,10.286489486694336,0.34808626770973206,-9.330217361450195
1,58174,-13.83983039855957,-3.8912627696990967,11.148996353149414,-6.391739845275879
1,58174,1.1953072547912598,-17.1140079498291,-0.7996616959571838,-12.775354385375977
1,58174,2.8612027168273926,-3.873765707015991,-14.286044120788574,14.709892272949219
1,58174,5.915455341339111,-3.8610541820526123,18.146827697753906,4.312132835388184
1,58174,1.2187435626983643,-1.3330304622650146,8.03071403503418,-18.642642974853516
1,58174,21.579898834228516,-10.052165031433105,-16.00521469116211,18.94330596923828
1,58174,14.230230331420898,-19.46623420715332,11.74939250946045,7.915908336639404
1,58175,7.16533088684082,16.200632095336914,4.923511981964111,-12.210981369018555
1,58175,3.8684005737304688,12.16714096069336,-5.1265130043029785,17.095211029052734
1,58175,-8.537727355957031,-1.7117156982421875,-0.9392170906066895,-19.66265869140625
1,58175,9.47442626953125,-3.3395049571990967,-19.60474395751953,-7.562522888183594
1,58175,-6.5337677001953125,-4.816112995147705,3.865478515625,24.031980514526367
1,58175,-27.790836334228516,22.72597312927246,12.241626739501953,-16.370756149291992
1,58176,-17.5087833404541,-19.873050689697266,-8.59123706817627,11.404465675354004
1,58176,-5.953345775604248,-24.363759994506836,14.356573104858398,2.509995222091675
1,58176,6.776729583740234,23.87775421142578,1.5603196620941162,-31.130037307739258
1,58176,4.835480690002441,-16.737245559692383,-11.664497375488281,-1.0554847717285156
1,58176,-14.035069465637207,-18.327293395996094,2.333205461502075,0.9882018566131592
1,58177,-5.371003150939941,1.465225338935852,-13.942118644714355,0.46187275648117065
1,58177,-3.5039780139923096,-1.5001519918441772,0.8130707740783691,17.714893341064453
1,58177,-0.2636595368385315,15.848390579223633,16.1699161529541,7.979594707489014
1,58177,20.317665100097656,-0.35113170742988586,-10.340508460998535,-3.2244949340820312
1,58177,-3.491034746170044,-7.032533645629883,-13.438822746276855,-5.14544677734375
1,58177,-4.346331596374512,5.072923183441162,21.464189529418945,-8.754249572753906
1,58178,7.511991024017334,7.970494270324707,7.922941207885742,3.022975206375122
1,58178,-23.64029312133789,-10.39374828338623,-16.604736328125,11.848377227783203
1,58178,-4.852855205535889,-15.524998664855957,-1.2661911249160767,-10.863884925842285
1,58178,29.618900299072266,10.4109468460083,-6.328049659729004,-9.737190246582031
1,58178,-5.218939781188965,22.895383834838867,-2.0233733654022217,25.048625946044922
1,58178,-9.008138656616211,21.797792434692383,18.71295166015625,1.6784857511520386
1,58179,14.227848052978516,-21.551563262939453,10.432849884033203,-8.045736312866211
1,58179,0.05578599497675896,-24.61481475830078,-17.925323486328125,1.6475859880447388
1,58179,2.935373067855835,3.5498547554016113,-0.4131496846675873,-19.851219177246094
1,58179,0.8039836287498474,-9.006555557250977,26.59307289123535,10.958333015441895
1,58179,-12.534252166748047,15.688387870788574,-5.407121658325195,10.134937286376953
1,58179,3.6282012462615967,19.78212547302246,-19.70041847229004,-1.353995680809021
1,58180,0.7376719117164612,-5.752730369567871,0.08872675895690918,-3.8241758346557617
1,58180,-8.377259254455566,-16.901180267333984,-1.276692271232605,-14.309236526489258
1,58180,7.596580982208252,-10.236128807067871,-3.4924590587615967,13.183445930480957
1,58180,13.612643241882324,17.7088565826416,15.351624488830566,7.245855808258057
1,58180,2.6944613456726074,11.874905586242676,4.529603481292725,2.302320957183838
1,58180,-5.499707221984863,-0.02971869893372059,-25.342159271240234,-5.068077564239502
1,58181,7.238003253936768,3.7867624759674072,-7.044774055480957,-5.817115306854248
1,58181,-2.403359889984131,-1.68804132938385,7.7770867347717285,1.432850956916809
1,58181,-24.416126251220703,-1.1910247802734375,1.7090144157409668,-2.3969104290008545
1,58181,-2.324472188949585,10.887129783630371,17.001619338989258,7.881993770599365
1,58181,35.34660720825195,0.028801975771784782,4.693844795227051,1.954474925994873
1,58181,12.73753833770752,-18.124258041381836,-13.536456108093262,-0.8006988763809204
1,58182,-37.27921676635742,2.0949082374572754,24.23369789123535,-3.9440503120422363
1,58182,5.74099588394165,5.026331901550293,3.2718801498413086,-19.184431076049805
1,58182,22.943401336669922,-1.887768268585205,-29.534671783447266,6.422836780548096
1,58183,-33.38256072998047,37.266357421875,3.0584232807159424,29.42848014831543
1,58183,-3.929016590118408,17.38141441345215,-9.184175491333008,-24.07359504699707
1,58184,27.449352264404297,-39.1492919921875,-18.59303092956543,-13.789928436279297
1,58184,-11.660662651062012,-14.55601692199707,2.7207894325256348,26.729326248168945
1,58184,-0.23424257338047028,-10.440145492553711,4.398046493530273,-7.9498610496521
1,58184,10.444721221923828,-8.254651069641113,12.600406646728516,0.46648213267326355
1,58184,-21.093353271484375,37.631126403808594,22.496551513671875,5.703176498413086
1,58184,-2.381633996963501,8.002904891967773,9.315924644470215,-12.839282989501953
1,58186,-2.9489102363586426,-59.328678131103516,5.959509372711182,-4.80919885635376
1,58187,-1.1366058588027954,-68.89277648925781,-12.30371379852295,4.14927339553833
1,58190,49.39224624633789,-19.62647819519043,6.487223148345947,6.9957733154296875
1,58191,17.60901641845703,42.07838821411133,26.160783767700195,2.233833074569702
1,58194,-67.6269302368164,147.23794555664062,-36.683013916015625,7.413362503051758
1,58195,-18.03656768798828,94.3044662475586,-33.03783416748047,0.2666780352592468
1,58198,54.82322692871094,-111.5707778930664,-20.703224182128906,-18.810842514038086
1,58199,-1.9966052770614624,-84.73926544189453,-1.523462176322937,0.8203580975532532
1,58202,-13.867608070373535,-5.400642395019531,54.927398681640625,15.316296577453613
1,58203,17.300100326538086,58.64199447631836,1.700997233390808,-6.252756118774414
1,58206,-16.89586639404297,38.645545959472656,-13.096118927001953,11.432164192199707
1,58207,-29.945791244506836,-118.86174011230469,6.97575044631958,2.1804239749908447
1,58210,-3.0331616401672363,-56.74702835083008,-36.54548645019531,-31.482601165771484
1,58211,15.014575958251953,57.21455383300781,2.5632920265197754,0.793222963809967
1,58214,22.041179656982422,127.46117401123047,38.90687942504883,19.819637298583984
1,58215,11.900808334350586,62.892852783203125,8.247678756713867,9.736663818359375
1,58470,-28.013925552368164,-206.48374938964844,12.293496131896973,-8.689421653747559
1,58473,-28.83930206298828,-131.0672149658203,-15.415237426757812,-5.230059623718262
1,58474,35.34811019897461,134.95553588867188,-36.23320007324219,7.86760950088501
1,58476,15.100897789001465,131.30116271972656,-1.7310447692871094,-7.607575416564941
1,58479,-24.761188507080078,99.51203918457031,11.58886432647705,-9.552401542663574
1,59383,8.804215431213379,-5.013213157653809,-14.053277015686035,9.634716033935547
1,59383,12.291410446166992,-125.58252716064453,-18.793180465698242,8.000041961669922
1,59383,-2.2021265029907227,-41.304420471191406,20.31888198852539,-12.86308765411377
1,59383,-7.958714485168457,2.055283308029175,0.9512044191360474,-6.934360504150391
1,59383,6.789435863494873,-15.764169692993164,-7.313975811004639,0.3531493544578552
1,59383,3.582502841949463,-0.6938116550445557,16.48680877685547,-2.24242901802063
1,59384,-28.85755729675293,9.675432205200195,2.7042224407196045,12.606781959533691
1,59384,-14.509520530700684,8.415769577026367,9.69682788848877,10.5048189163208
1,59384,20.962081909179688,0.5377237796783447,18.29193687438965,-22.536836624145508
1,59384,0.4525420069694519,-16.252622604370117,-4.372053623199463,-6.9244513511657715
1,59384,-27.171175003051758,-14.409660339355469,-0.3310157060623169,27.510347366333008
1,59384,0.5671719908714294,-0.7000230550765991,16.463136672973633,4.5072550773620605
1,59385,18.053865432739258,-16.632015228271484,-0.7075796723365784,-6.5414886474609375
1,59385,16.582656860351562,-6.299881935119629,-17.573101043701172,-0.4900302290916443
1,59385,-11.703792572021484,14.246994018554688,0.6434800624847412,-4.544504165649414
1,59385,-4.876241207122803,25.80933952331543,26.676172256469727,7.903857231140137
1,59385,25.680875778198242,24.02875518798828,-6.252112865447998,-6.203057289123535
1,59385,-4.262301445007324,-7.864505290985107,-32.05140686035156,-14.563796043395996
1,59386,-2.683349370956421,-4.9993896484375,6.345607280731201,9.247262954711914
1,59386,27.297481536865234,20.846153259277344,10.466078758239746,-3.7959489822387695
1,59386,19.018192291259766,9.163368225097656,-1.69316565990448,3.9941158294677734
1,59386,13.366129875183105,-1.3479468822479248,-0.0042125629261136055,8.295259475708008
1,59386,11.066895484924316,-10.405244827270508,-12.484006881713867,-23.683643341064453
1,59386,-7.43716287612915,-33.6928596496582,16.609418869018555,11.699812889099121
1,59387,7.133800983428955,2.5578582286834717,14.501486778259277,18.59324073791504
1,59387,11.827874183654785,7.554296493530273,-36.00582504272461,-28.155187606811523
1,59387,-2.314603805541992,-23.51259994506836,-25.710094451904297,-7.67119026184082
1,59387,5.267528057098389,-0.8682276010513306,16.75142478942871,23.094484329223633
1,59387,-12.089627265930176,18.493783950805664,4.056077003479004,4.2454023361206055
1,59388,-28.38385772705078,1.4044859409332275,-14.59140396118164,-0.8799723982810974
1,59388,-12.774641990661621,6.194495677947998,2.2961277961730957,10.914474487304688
1,59388,-26.05307388305664,17.64043426513672,-5.513835906982422,-4.292438983917236
1,59388,-34.4189338684082,1.576184868812561,14.359222412109375,-4.658730983734131
1,59388,-4.293948650360107,13.433141708374023,12.385207176208496,-0.6436260938644409
1,59388,-3.5940237045288086,-4.102845191955566,-27.888782501220703,9.702892303466797
1,59389,-28.4531307220459,-15.258047103881836,3.4435760974884033,4.914841651916504
1,59389,-7.672325134277344,13.69266414642334,8.635794639587402,-8.22537899017334
1,59389,25.60626792907715,28.74027442932129,-12.783447265625,13.184835433959961
1,59389,8.02921199798584,12.016520500183105,7.394113063812256,6.297295570373535
1,59389,0.9456337094306946,-18.592527389526367,-9.84131145477295,-14.890294075012207
1,59389,11.890531539916992,-16.926118850708008,-10.144379615783691,-3.2808315753936768
1,59390,9.430668830871582,-10.99715518951416,28.830045700073242,11.800687789916992
1,59390,6.144262790679932,2.784717082977295,20.877151489257812,-21.04677963256836
1,59390,8.736394882202148,23.459352493286133,3.9634857177734375,-22.741376876831055
1,59390,12.942437171936035,-1.1669301986694336,15.408899307250977,18.221115112304688
1,59390,3.3233699798583984,-14.266071319580078,-3.3389499187469482,5.813369274139404
1,59390,5.29899787902832,11.802090644836426,-16.980844497680664,-4.607110500335693
1,59391,-0.4296600818634033,11.546486854553223,15.730077743530273,12.938016891479492
1,59391,-10.29300308227539,-2.7306885719299316,15.367362022399902,-8.648749351501465
1,59391,-6.9292731285095215,6.789069652557373,-23.97242546081543,-30.307018280029297
1,59391,-13.955937385559082,5.081076622009277,-28.223533630371094,11.625845909118652
1,59391,20.174530029296875,-7.571594715118408,6.421881675720215,26.611629486083984
1,59391,26.072444915771484,-4.227904796600342,9.036166191101074,-18.277196884155273
1,59392,-22.198631286621094,-10.359177589416504,-0.6891409754753113,8.251084327697754
1,59392,-8.53972053527832,5.101558208465576,-2.7108676433563232,17.57733154296875
1,59392,29.239025115966797,18.00643539428711,-13.425636291503906,-40.69226837158203
1,59392,12.06137752532959,-17.140247344970703,-10.762303352355957,-6.493781089782715
1,59392,-30.53190040588379,-35.837223052978516,1.6934794187545776,32.86681365966797
1,59392,-13.289499282836914,1.9388291835784912,14.230064392089844,-2.2697432041168213
1,59393,-7.191640853881836,9.634871482849121,9.715352058410645,-2.7318806648254395
1,59393,-23.54582977294922,-3.279146671295166,-3.681941509246826,-1.116664171218872
1,59393,15.35196304321289,6.3816351890563965,-13.566604614257812,-21.812728881835938
1,59393,0.9589073657989502,-19.407533645629883,9.373637199401855,14.248553276062012
1,59393,-22.515457153320312,0.37370824813842773,20.60814094543457,30.400163650512695
1,59393,-0.4985331892967224,-1.6760022640228271,-20.658306121826172,-0.9837212562561035
1,59394,4.044200420379639,-20.48019027709961,2.7475650310516357,-7.836440563201904
1,59394,0.6829973459243774,33.98187255859375,46.475196838378906,-12.568914413452148
1,59394,2.3738420009613037,2.9008002281188965,-5.305638313293457,-1.3817377090454102
1,59394,22.67974090576172,-20.670400619506836,-24.255603790283203,12.130390167236328
1,59394,18.480697631835938,-3.028977155685425,1.3319162130355835,-10.05461311340332
1,59394,-12.630782127380371,-13.139875411987305,-1.9678642749786377,-22.14124870300293
1,59395,-1.8112850189208984,-0.5960814952850342,2.3959031105041504,-1.9694193601608276
1,59395,14.069704055786133,-2.079484224319458,-1.7000335454940796,14.935133934020996
1,59395,-6.297207832336426,14.126188278198242,-9.914583206176758,-1.9139621257781982
1,59395,-3.8524346351623535,14.024197578430176,-8.152575492858887,-2.8804237842559814
1,59395,8.880247116088867,-3.0329227447509766,-10.256142616271973,14.689746856689453
1,59395,4.721240520477295,9.963652610778809,-7.999907493591309,3.5412259101867676
1,59396,3.2656068801879883,-20.65479278564453,9.14181900024414,-12.717792510986328
1,59396,-8.431966781616211,-16.964378356933594,10.404934883117676,-5.31927490234375
1,59396,-3.234959363937378,33.68081283569336,-1.288856863975525,12.378299713134766
1,59396,3.3248178958892822,-10.44333553314209,-18.493772506713867,15.324071884155273
1,59396,-11.370841979980469,-25.580286026000977,-13.637109756469727,10.15301513671875
1,59396,0.5884284377098083,18.88033103942871,25.12006378173828,-2.5138635635375977
1,59397,8.368609428405762,13.071574211120605,9.640417098999023,-16.65165901184082
1,59398,-24.73316764831543,-29.356948852539062,-19.118284225463867,-5.2623491287231445
1,59398,-18.146900177001953,-18.13710594177246,10.621960639953613,7.77664041519165
1,59398,25.06277847290039,44.39500427246094,3.6928482055664062,-12.237348556518555
1,59398,0.3263816833496094,9.911445617675781,-9.115557670593262,-5.398474216461182
1,59399,-6.433636665344238,-17.724369049072266,-1.313594102859497,12.776777267456055
1,59399,15.459668159484863,1.2389719486236572,-10.458410263061523,-14.589032173156738
1,59399,-5.113960266113281,-5.292944431304932,-0.374108225107193,7.0030436515808105
1,59399,-6.887394905090332,9.474689483642578,20.843963623046875,21.026052474975586
1,59401,12.15470027923584,2.742628574371338,-18.3319034576416,-14.79817008972168
1,59402,15.539173126220703,26.2661190032959,-3.4711101055145264,14.004610061645508
1,59403,16.773258209228516,13.359269142150879,50.733306884765625,3.6205272674560547
1,59406,40.47358703613281,-81.83332824707031,-1.1290045976638794,-29.927106857299805
1,59407,9.289756774902344,-50.01835632324219,11.539217948913574,6.429900646209717
1,59410,-94.2479248046875,48.83141326904297,15.878462791442871,-0.4664073586463928
1,59411,-58.06801986694336,115.60881042480469,-43.161842346191406,0.8275110125541687
1,59414,73.73303985595703,58.7534294128418,-32.178714752197266,21.019882202148438
1,59415,55.79592514038086,-70.14373016357422,35.71940994262695,-22.4126033782959
1,59418,-41.739593505859375,-67.00273132324219,37.676353454589844,-5.247907638549805
1,59419,-45.74637222290039,-26.2736759185791,-33.22502136230469,36.45412063598633
1,59422,31.6153507232666,57.60150146484375,-13.731760025024414,-18.325471878051758
1,59423,10.027740478515625,31.0949764251709,5.244488716125488,-35.18159103393555
1,59426,-28.95814323425293,-120.87791442871094,-21.32965850830078,7.8272600173950195
1,59427,18.490257263183594,-40.85929489135742,4.367674350738525,11.201077461242676
1,59430,2.2878456115722656,77.16426849365234,-0.951057493686676,15.002857208251953
1,59431,-15.042139053344727,89.6387710571289,-10.753395080566406,4.210832118988037
1,59434,21.939441680908203,65.81355285644531,29.652559280395508,-21.097503662109375
1,59435,4.216296195983887,-79.7136001586914,16.771352767944336,6.998360633850098
1,59438,-8.39527416229248,-98.55329895019531,-8.104843139648438,8.876730918884277
1,59439,-5.912191390991211,29.196096420288086,-8.777151107788086,-6.926136493682861
1,59442,-3.7826411724090576,75.9177474975586,-23.744232177734375,4.049384593963623
1,59443,16.193519592285156,1.0894887447357178,2.269212007522583,-4.3150105476379395
1,59446,-26.29932403564453,-97.59261322021484,14.868036270141602,-0.3451095223426819
1,59447,-16.896390914916992,-37.0710563659668,-4.568500995635986,16.43985366821289
1,59624,34.92319869995117,70.76399993896484,16.462905883789062,-0.7596504092216492
1,59624,6.3757405281066895,30.616519927978516,14.8824462890625,-19.692472457885742
1,59624,-17.37997055053711,-65.96593475341797,-21.841218948364258,1.0263985395431519
1,59624,4.510198593139648,-24.437442779541016,0.30254030227661133,13.410404205322266
1,59624,15.379448890686035,44.274234771728516,16.34981346130371,-13.96871566772461
1,59624,-14.09005355834961,18.303871154785156,-11.315910339355469,-23.31499671936035
1,59625,-12.87576675415039,-3.0961453914642334,-5.935894966125488,23.670555114746094
1,59625,9.89507007598877,22.346969604492188,2.8627710342407227,15.192150115966797
1,59625,3.205627202987671,25.124652862548828,0.6536049842834473,-10.533258438110352
1,59625,-1.496416687965393,-7.010100841522217,-4.641804218292236,4.403116226196289
1,59625,1.2713695764541626,-10.207070350646973,-9.115260124206543,-0.8374583721160889
1,59626,14.396682739257812,-33.511070251464844,-4.87392520904541,1.7889430522918701
1,59626,9.310755729675293,-28.132619857788086,-6.53933048248291,2.62804913520813
1,59626,-10.616804122924805,24.059751510620117,7.366598606109619,-0.9375569224357605
1,59626,-15.980171203613281,10.009678840637207,9.026629447937012,0.8428102731704712
1,59626,-2.4033586978912354,-7.873341083526611,-8.749757766723633,-5.857441425323486
1,59626,5.828111171722412,4.445932865142822,11.983055114746094,-19.91799545288086
1,59627,-2.5508430004119873,4.392891883850098,-0.5551093816757202,2.0392024517059326
1,59627,0.02888055518269539,13.382669448852539,-23.319948196411133,7.762240886688232
1,59627,-3.005570650100708,2.6938436031341553,7.752882480621338,1.0491482019424438
1,59627,4.024723052978516,-10.104333877563477,-4.821861267089844,8.27495002746582
1,59627,-0.9586718082427979,-14.166399955749512,-12.923734664916992,-3.934955358505249
1,59627,-8.575654029846191,-9.276996612548828,35.472389221191406,4.526978969573975
1,59628,6.645174980163574,15.294622421264648,15.563124656677246,-8.1565580368042
1,59628,5.855086326599121,-10.888202667236328,-30.188636779785156,-13.5571870803833
1,59628,0.7433411478996277,-0.15403370559215546,-2.7199788093566895,16.455835342407227
1,59628,-18.551694869995117,27.060956954956055,19.582244873046875,21.701799392700195
1,59628,-7.996219158172607,14.791068077087402,6.8728766441345215,-4.106279373168945
1,59628,34.68395233154297,10.453852653503418,-9.317221641540527,-3.195124387741089
1,59629,11.273940086364746,1.9519374370574951,-6.261715412139893,5.200805187225342
1,59629,-22.86330223083496,16.925310134887695,-6.41838264465332,-24.531572341918945
1,59629,0.961804986000061,-33.64735794067383,-11.317578315734863,9.634943962097168
1,59629,12.36307144165039,-14.856888771057129,18.72846794128418,32.72964859008789
1,59629,-1.4727067947387695,31.88149070739746,10.576454162597656,-15.39238452911377
1,59630,3.4820070266723633,-21.034032821655273,-20.657468795776367,-12.177528381347656
1,59630,-4.172439098358154,6.984622955322266,-6.970261573791504,1.4781545400619507
1,59630,-3.28957200050354,21.736785888671875,2.570115089416504,-13.760149002075195
1,59630,8.03333854675293,7.179261684417725,4.741238594055176,-33.471778869628906
1,59630,-2.5504798889160156,9.026374816894531,25.706153869628906,8.139766693115234
1,59630,-2.1232192516326904,-20.797462463378906,-6.495588302612305,44.36355972290039
1,59631,-9.474037170410156,-11.172942161560059,-32.100372314453125,-25.838266372680664
1,59631,-6.2126593589782715,16.042274475097656,26.637033462524414,-11.866832733154297
1,59631,-12.050880432128906,10.491096496582031,25.87420082092285,33.96977996826172
1,59631,7.147070407867432,4.516858100891113,-20.119033813476562,-16.55038833618164
1,59631,44.52289581298828,-17.94562530517578,-19.57510757446289,2.618912935256958
1,59631,-17.79372787475586,-26.711977005004883,8.69257926940918,32.09476852416992
1,59632,-36.443382263183594,14.264518737792969,8.481557846069336,-7.719350814819336
1,59632,22.744701385498047,16.450443267822266,-16.260826110839844,-2.8805906772613525
1,59632,16.26375961303711,-4.554790496826172,0.6666267514228821,-0.47012412548065186
1,59632,-14.462655067443848,-14.797820091247559,2.7652156352996826,-15.144719123840332
1,59632,-18.117679595947266,-18.13536834716797,1.5748138427734375,16.850282669067383
1,59632,1.113222599029541,-0.6296414136886597,24.641977310180664,9.660442352294922
1,59633,14.16575813293457,-15.418378829956055,-15.565025329589844,-40.51542663574219
1,59633,-0.9768919348716736,-5.301556587219238,-13.264501571655273,1.9932838678359985
1,59633,2.7770464420318604,20.464670181274414,32.416664123535156,32.859073638916016
1,59633,8.949444770812988,1.080924391746521,-8.642353057861328,-15.920949935913086
1,59633,-18.403751373291016,3.5931713581085205,-14.462733268737793,2.857691526412964
1,59633,1.2346616983413696,-2.789754629135132,6.9455766677856445,11.486567497253418
1,59634,24.47206687927246,-5.2149152755737305,-5.322845458984375,-29.052854537963867
1,59634,-12.495427131652832,-4.370045185089111,-2.45243501663208,-2.96718430519104
1,59634,-15.853288650512695,-24.40912437438965,9.172348976135254,11.008428573608398
1,59634,18.374874114990234,-19.635316848754883,7.884890556335449,-0.3390403091907501
1,59634,23.723270416259766,12.895060539245605,-6.865202903747559,10.410390853881836
1,59634,-19.592069625854492,8.593948364257812,-15.540267944335938,-9.921619415283203
1,59635,-24.622758865356445,5.5986104011535645,-15.561161041259766,-12.946372032165527
1,59635,0.006923927925527096,26.824100494384766,19.96764373779297,1.9811373949050903
1,59635,3.438082218170166,-15.05311107635498,23.50309181213379,-6.89927864074707
1,59635,17.346324920654297,-14.084171295166016,-18.5882511138916,-0.3546036183834076
1,59635,4.67515230178833,32.318851470947266,7.051327705383301,10.664559364318848
1,59635,-7.175132751464844,13.654784202575684,16.946624755859375,-7.333332538604736
1,59636,1.4786957502365112,-7.930562496185303,-27.54578399658203,5.0621418952941895
1,59636,-4.1273040771484375,-1.7037855386734009,-2.1367440223693848,20.93634033203125
1,59636,-4.204835891723633,5.183137893676758,13.427644729614258,-9.116064071655273
1,59636,5.330407619476318,9.776451110839844,-16.20458984375,-21.033573150634766
1,59636,-1.5884920358657837,-14.439075469970703,-11.13904094696045,15.04061508178711
1,59636,-19.796560287475586,-26.34837532043457,9.478269577026367,18.208799362182617
1,59637,-8.995176315307617,6.910293102264404,12.48979377746582,-27.643714904785156
1,59637,8.446622848510742,-1.2332603931427002,-0.26331907510757446,6.707289218902588
1,59637,10.255170822143555,-14.562808990478516,-6.939891338348389,23.36945152282715
1,59637,18.05094337463379,6.211658954620361,-20.614227294921875,-20.859434127807617
1,59637,-12.702519416809082,-19.696725845336914,4.389033317565918,2.3561923503875732
1,59637,-23.31941795349121,1.5765143632888794,38.568084716796875,20.29697036743164
1,59638,20.18589210510254,26.196210861206055,-2.2096705436706543,-6.028343677520752
1,59638,17.550621032714844,-15.56254768371582,-30.16170310974121,-12.256629943847656
1,59638,-7.88883638381958,-12.581652641296387,-5.6689276695251465,-1.424966812133789
1,59638,-13.30042552947998,17.790672302246094,20.979469299316406,1.5506013631820679
1,59638,3.5469179153442383,22.779258728027344,5.723127841949463,20.082746505737305
1,59638,15.834088325500488,0.9400544166564941,-25.561864852905273,1.6549097299575806
1,59640,5.855965614318848,-10.295974731445312,-9.804499626159668,-17.543399810791016
1,59640,7.841187477111816,-0.9107146263122559,6.893997669219971,11.703728675842285
1,59640,-14.785592079162598,2.22495698928833,9.039746284484863,12.28077220916748
1,59640,-19.452117919921875,18.44672966003418,9.947312355041504,-10.340818405151367
1,59641,12.681525230407715,29.36620330810547,2.802781581878662,-34.934329986572266
1,59641,4.222594261169434,-15.816183090209961,-7.720818996429443,-8.602367401123047
1,59641,-2.2246835231781006,-13.511419296264648,-0.19909098744392395,28.743783950805664
1,59641,-3.170377731323242,34.02022171020508,25.363252639770508,20.023563385009766
1,59642,24.580303192138672,-16.814083099365234,15.002338409423828,-15.010844230651855
1,59644,6.956851959228516,-60.43408203125,-10.66323471069336,-26.69473648071289
1,59645,-64.16194915771484,-42.7050666809082,-29.072500228881836,5.7727460861206055
1,59648,-5.40700101852417,-30.38093376159668,-13.638145446777344,10.163725852966309
1,59649,22.94335174560547,39.6565055847168,16.97106170654297,10.613884925842285
1,59652,-3.035963296890259,150.15167236328125,-6.62302827835083,-10.134683609008789
1,59653,5.894108772277832,75.2174072265625,-1.3595049381256104,-16.033735275268555
1,59656,-2.9474525451660156,-138.98846435546875,-8.879524230957031,13.310997009277344
1,59657,14.314004898071289,-85.0046157836914,11.284114837646484,2.539794921875
1,59660,-16.728158950805664,40.07699966430664,72.27336120605469,-1.146934986114502
1,59661,-19.04201889038086,41.33197784423828,-44.60816955566406,-1.2763340473175049
1,59664,117.45801544189453,14.681058883666992,-126.8352279663086,4.2022247314453125
1,59665,18.005495071411133,-82.83951568603516,24.67888641357422,8.596261978149414
1,59668,-129.1199951171875,-41.88725662231445,128.16525268554688,-7.979068279266357
1,59669,18.958749771118164,27.93934440612793,10.732056617736816,3.1919589042663574
1,59836,29.41515350341797,91.27525329589844,-21.326900482177734,14.247657775878906
1,59836,-9.318851470947266,73.99406433105469,43.02962112426758,0.23194587230682373
1,59836,11.004305839538574,-85.25283813476562,-39.710636138916016,-18.008712768554688
1,59836,-34.18404006958008,-52.75090789794922,-46.595821380615234,-12.15392780303955
1,59836,-22.485624313354492,29.509855270385742,22.324846267700195,26.725126266479492
1,59836,4.050509452819824,29.101972579956055,13.773807525634766,5.5659308433532715
1,59837,0.69070965051651,21.433671951293945,-15.621442794799805,-13.487491607666016
1,59837,2.6062941551208496,9.594922065734863,-9.084919929504395,8.777263641357422
1,59837,11.03589153289795,-29.646541595458984,-2.0602567195892334,-23.88992691040039
1,59837,3.474778413772583,-35.4030647277832,-17.290992736816406,-5.391317844390869
1,59837,-1.2572202682495117,-10.352532386779785,-20.6716251373291,34.20357131958008
1,59838,2.0239765644073486,-17.358243942260742,-3.031104564666748,-2.1434483528137207
1,59838,17.7723388671875,-5.561709880828857,9.487591743469238,-15.14352798461914
1,59838,11.652204513549805,-7.121740341186523,-9.692739486694336,-12.219658851623535
1,59838,0.8918275237083435,8.613057136535645,5.8644490242004395,2.868978261947632
1,59838,0.06327367573976517,36.375244140625,9.076427459716797,13.798304557800293
1,59838,-22.344270706176758,29.858505249023438,7.256685733795166,-6.5394134521484375
1,59839,5.724375247955322,10.248151779174805,23.491945266723633,11.981510162353516
1,59839,27.415464401245117,-10.178828239440918,18.11077308654785,-12.319637298583984
1,59839,-1.6751476526260376,-19.702077865600586,-4.35252046585083,-18.859676361083984
1,59839,-4.807924270629883,-14.691182136535645,-24.465118408203125,25.664642333984375
1,59839,-1.5678669214248657,-4.865101337432861,-9.374317169189453,-0.8060550093650818
1,59839,-6.364087104797363,-17.30252456665039,7.632604598999023,-19.312307357788086
1,59840,5.095007419586182,-16.383392333984375,6.302586078643799,6.4554829597473145
1,59840,-10.31666088104248,50.0666389465332,7.373938083648682,8.222796440124512
1,59840,-13.907386779785156,54.692813873291016,2.4550960063934326,-11.42225170135498
1,59840,-4.183857440948486,-10.088343620300293,-16.799057006835938,-23.329774856567383
1,59840,-16.910274505615234,10.066081047058105,12.74039363861084,2.823446750640869
1,59841,12.885496139526367,17.9150447845459,12.523587226867676,22.091903686523438
1,59841,6.454301357269287,-27.922761917114258,-24.56216049194336,-4.304341793060303
1,59841,-19.955047607421875,-23.61644744873047,8.208084106445312,12.473036766052246
1,59841,10.92750358581543,-11.535685539245605,16.411426544189453,-0.8093202710151672
1,59841,20.97840118408203,-17.03121566772461,-4.683586120605469,-5.292228698730469
1,59841,-5.557269096374512,-5.316413879394531,-4.059243202209473,22.772979736328125
1,59842,-8.240732192993164,8.171229362487793,-3.2714076042175293,-10.157465934753418
1,59842,8.181818008422852,1.2967630624771118,7.186312198638916,14.868077278137207
1,59842,-1.6493486166000366,-5.241584777832031,5.227785110473633,5.220800876617432
1,59842,-3.5882327556610107,-10.144838333129883,-13.979659080505371,-22.01321792602539
1,59842,16.366992950439453,-4.592646598815918,-1.7377948760986328,5.714562892913818
1,59842,8.276290893554688,9.879585266113281,3.5450022220611572,-13.806122779846191
1,59843,-19.708377838134766,-6.52315092086792,-9.788093566894531,-2.6783668994903564
1,59843,-12.861369132995605,-10.261935234069824,12.403874397277832,7.265030860900879
1,59843,12.775050163269043,8.4424467086792,1.7280702590942383,-0.2976032495498657
1,59843,9.092857360839844,-6.737370014190674,-15.71906566619873,-2.7847414016723633
1,59843,-4.796988487243652,-12.7460298538208,18.958276748657227,-2.9599084854125977
1,59843,-8.407476425170898,20.36362648010254,14.944607734680176,14.030940055847168
1,59844,-2.936032772064209,6.885035037994385,-22.359895706176758,-12.000967025756836
1,59844,-3.085585117340088,-34.69623565673828,-15.752103805541992,-23.529958724975586
1,59844,-0.29652759432792664,-13.688060760498047,8.724475860595703,10.981610298156738
1,59844,10.859665870666504,19.901813507080078,3.9001963138580322,14.212820053100586
1,59844,7.326695442199707,21.92084503173828,-15.870012283325195,-8.167686462402344
1,59844,-9.868507385253906,1.5978186130523682,-9.464631080627441,-4.306021690368652
1,59845,-13.20147705078125,-16.381912231445312,3.495964765548706,7.346203804016113
1,59845,-7.3075270652771,0.2616260051727295,2.837474822998047,20.51974868774414
1,59845,7.825360298156738,28.19232177734375,8.842182159423828,12.171985626220703
1,59845,21.413484573364258,15.3450927734375,-1.653367519378662,-24.259716033935547
1,59845,-6.56897497177124,-8.182051658630371,5.9370927810668945,-4.360928058624268
1,59845,-9.015304565429688,-0.6085472106933594,-1.5444971323013306,6.685693264007568
1,59846,4.341322898864746,0.9366362690925598,-28.33661460876465,-2.81742000579834
1,59846,-2.5234386920928955,-4.283908367156982,6.866270065307617,19.092201232910156
1,59846,5.000313758850098,-10.319869995117188,26.70060157775879,11.744515419006348
1,59846,28.77898406982422,12.848714828491211,-10.957287788391113,-20.19337272644043
1,59846,20.123451232910156,14.83580207824707,-20.3786563873291,-22.761516571044922
1,59846,-20.764080047607422,-8.813599586486816,14.795202255249023,3.9007625579833984
1,59847,-9.874373435974121,2.8292107582092285,2.2053229808807373,10.444669723510742
1,59847,1.4718718528747559,-1.146220088005066,-13.402294158935547,-1.7723559141159058
1,59847,-13.245682716369629,-12.735030174255371,0.340182900428772,-12.99739933013916
1,59847,-1.6009877920150757,-30.088407516479492,-0.19086779654026031,14.02756118774414
1,59847,-2.1962294578552246,-7.405148029327393,20.86604118347168,26.740129470825195
1,59847,-3.0735793113708496,47.20720672607422,0.16509440541267395,-24.136526107788086
1,59848,-3.977736711502075,11.01120376586914,-37.60618591308594,-23.926713943481445
1,59848,-12.921600341796875,-26.906757354736328,0.878643810749054,20.439138412475586
1,59848,9.227965354919434,3.102621078491211,12.912033081054688,-6.948177814483643
1,59848,9.08663558959961,16.538158416748047,-13.699224472045898,-19.193721771240234
1,59848,-2.9443211555480957,-5.625592231750488,15.44342041015625,17.19890594482422
1,59848,-8.590154647827148,-10.300837516784668,38.19727325439453,13.308881759643555
1,59849,0.3251483738422394,23.90439796447754,-6.620498180389404,-15.044119834899902
1,59849,21.653295516967773,18.66650390625,-2.823842763900757,-1.193190097808838
1,59849,15.92887020111084,-1.8864871263504028,29.650049209594727,15.937047004699707
1,59849,-6.392131805419922,-4.700183391571045,-10.694754600524902,-19.314054489135742
1,59849,-22.354679107666016,-11.526080131530762,6.6640119552612305,4.330767631530762
1,59850,-14.028443336486816,5.0028791427612305,25.591352462768555,24.00359344482422
1,59850,8.868593215942383,9.48439884185791,-12.503888130187988,-19.965225219726562
1,59851,11.943060874938965,50.92645263671875,17.713777542114258,-16.898296356201172
1,59851,-15.069838523864746,38.915279388427734,33.941749572753906,5.306821823120117
1,59851,-10.111686706542969,-38.14714813232422,-18.020427703857422,10.098334312438965
1,59851,7.723318576812744,-9.965428352355957,-55.14823913574219,1.5904853343963623
1,59852,11.125459671020508,-6.356695175170898,-25.91573143005371,12.256009101867676
1,59852,18.381357192993164,-8.774710655212402,3.4188849925994873,8.5701265335083
1,59852,9.147770881652832,-10.969512939453125,-10.17886734008789,-21.695209503173828
1,59852,-1.0934381484985352,-36.69237518310547,-16.383466720581055,1.4880095720291138
1,59853,-3.196805953979492,-6.972379207611084,-44.329833984375,24.45267677307129
1,59856,-24.8869686126709,-28.96970558166504,32.29981994628906,-13.254181861877441
1,59857,-33.63578414916992,-65.53841400146484,147.15562438964844,-19.30950355529785
1,59859,-34.113929748535156,-9.434548377990723,32.20362854003906,22.07390594482422
1,59862,46.659725189208984,67.96672821044922,-118.9758529663086,-2.173840045928955
1,59863,126.88420867919922,13.839253425598145,-45.15869903564453,-16.045242309570312
1,59866,35.363895416259766,-123.95030212402344,-111.67589569091797,29.7446346282959
1,59867,13.621392250061035,-66.93437957763672,-184.80856323242188,30.899002075195312
1,59870,-83.97158813476562,144.64930725097656,260.12396240234375,-23.50272560119629
1,59871,-127.4594955444336,181.37423706054688,242.7146759033203,-14.845987319946289
1,59874,18.37120246887207,27.941152572631836,-170.11480712890625,2.5357258319854736
1,59875,-29.762908935546875,-105.21727752685547,-14.094497680664062,-31.196561813354492
1,59878,5.3658223152160645,-67.93729400634766,69.88284301757812,-9.582476615905762
1,59879,48.177852630615234,7.865531921386719,-38.95357131958008,11.636515617370605
1,59882,-28.409799575805664,52.740291595458984,16.03830909729004,-4.235946178436279
1,59883,23.835216522216797,26.178796768188477,16.041269302368164,-14.827859878540039
1,59886,2.826582431793213,-122.53012084960938,2.689960479736328,8.948534965515137
1,59887,-66.57122039794922,-43.776153564453125,-4.689423561096191,8.584151268005371
1,59890,18.702547073364258,95.11187744140625,-134.41363525390625,4.683533668518066
1,59891,103.84147644042969,71.96782684326172,-31.21542739868164,12.147552490234375
1,59894,78.77631378173828,31.14274024963379,134.34686279296875,12.537104606628418
1,59895,4.649106025695801,-60.16707992553711,-12.427420616149902,29.786331176757812
1,59898,-62.04924774169922,-89.9664535522461,-62.19517517089844,-6.747874736785889
1,59899,-67.81456756591797,-3.2626123428344727,30.425321578979492,-41.760032653808594
1,59902,-39.906455993652344,119.9933090209961,26.95834732055664,-18.78041648864746
1,59903,-19.03021240234375,35.25883102416992,-23.615705490112305,32.17340087890625
1,60079,87.66841888427734,-98.24769592285156,16.469308853149414,24.989816665649414
1,60079,77.07048034667969,-6.448885917663574,88.05890655517578,-40.348472595214844
1,60079,-69.97347259521484,22.239084243774414,8.002229690551758,-26.83782386779785
1,60080,-24.888404846191406,-30.419647216796875,-50.29118728637695,20.058815002441406
1,60080,21.7442684173584,-22.636810302734375,-17.240489959716797,8.064016342163086
1,60080,4.656876564025879,5.68447208404541,-37.131744384765625,5.285780429840088
