Aktueller Finger,timestamp_ms,sensor_0,sensor_1,sensor_2,sensor_3
0,192412,-5.535051345825195,-41.705387115478516,-107.6993179321289,-2.9904565811157227
0,192413,-24.045007705688477,-35.38941955566406,-45.260704040527344,5.50581693649292
0,192416,24.764368057250977,18.205524444580078,133.82723999023438,0.31852447986602783
0,192417,38.79985809326172,25.95306968688965,73.35831451416016,28.989639282226562
0,192420,-22.929357528686523,-10.721046447753906,-107.19007110595703,-5.438101291656494
0,192421,-15.727792739868164,-27.577533721923828,-67.39617919921875,-37.93171691894531
0,192424,-3.296560049057007,-16.055828094482422,3.515470027923584,-5.878699779510498
0,192425,6.18435001373291,20.98469352722168,72.05174255371094,46.8538703918457
0,192428,15.359573364257812,11.615564346313477,99.4532699584961,5.136943817138672
0,192429,-34.031124114990234,6.458858489990234,-69.62293243408203,-56.303096771240234
0,192432,-14.480307579040527,-4.209219932556152,-138.01513671875,-8.319506645202637
0,192433,35.35293197631836,-18.25741195678711,-1.3863381147384644,8.781810760498047
0,192688,15.004806518554688,48.043941497802734,195.90658569335938,30.455528259277344
0,192689,-16.643877029418945,95.56229400634766,134.39279174804688,27.63552474975586
0,192692,-15.451767921447754,-40.15547561645508,-162.79563903808594,-39.75367736816406
0,192693,-6.106846809387207,-174.4346160888672,-186.21449279785156,-38.002933502197266
0,192696,-9.195545196533203,-106.74520111083984,-123.0931167602539,-24.684999465942383
0,192697,11.781051635742188,7.7398834228515625,-28.860750198364258,-5.671558856964111
0,192700,52.96317672729492,180.80113220214844,243.32211303710938,102.73077392578125
0,192701,17.45319938659668,144.73719787597656,192.44802856445312,98.32989501953125
0,324001,-34.04143524169922,-96.55955505371094,-58.11116409301758,-74.04283905029297
0,324004,-7.3642730712890625,-49.15312576293945,-25.844764709472656,-75.88834381103516
0,324006,-7.968707084655762,21.250947952270508,4.88588809967041,29.038427352905273
0,324008,-8.684234619140625,36.29338455200195,-5.987234592437744,-5.611336708068848
0,324010,-8.929267883300781,28.99638557434082,-20.70117950439453,-24.50659942626953
0,324012,-11.532384872436523,-116.65325927734375,-157.64698791503906,1.384705901145935
0,324014,9.215433120727539,-107.79319763183594,-117.5333023071289,-1.3181712627410889
0,324016,23.321678161621094,49.960906982421875,52.337162017822266,-88.85469055175781
0,324018,12.96451187133789,144.35952758789062,151.2775421142578,-12.59166431427002
0,324020,-3.2895045280456543,46.83176040649414,123.76036834716797,198.45494079589844
0,324022,4.055668354034424,-95.65580749511719,-28.124771118164062,41.56726837158203
0,324024,-23.804058074951172,-36.995967864990234,-51.871341705322266,-93.6048583984375
0,324026,-13.822288513183594,48.76584243774414,12.15640926361084,-17.227985382080078
0,324028,14.221476554870605,64.95476531982422,45.51030731201172,3.1273984909057617
0,324030,-9.121171951293945,-5.946933269500732,-7.465547561645508,24.29862403869629
0,324032,-0.8073829412460327,-131.5941162109375,-159.86634826660156,-13.696281433105469
0,324034,-3.382937431335449,-82.33609771728516,-104.07356262207031,-55.78581237792969
0,324036,12.111767768859863,89.99205780029297,101.60029602050781,20.249197006225586
0,324038,35.31342315673828,134.46194458007812,116.6269760131836,54.455848693847656
0,324040,-10.04500675201416,-13.564117431640625,30.848600387573242,-15.012361526489258
0,324042,-26.81354522705078,-81.78755187988281,-34.80165100097656,-19.088102340698242
0,324044,-8.254239082336426,-39.50447082519531,-49.23969650268555,-9.220843315124512
0,324046,30.273935317993164,22.126245498657227,-4.634974479675293,-25.831422805786133
0,324048,11.076327323913574,109.0461654663086,71.85005950927734,16.817583084106445
0,324050,-43.914249420166016,4.472868919372559,49.26311492919922,32.82949447631836
0,324051,-3.1725313663482666,-113.37928771972656,-106.34722137451172,-7.873315811157227
0,324054,24.68018341064453,-70.78959655761719,-114.56890869140625,-16.2606201171875
0,324055,-3.334240198135376,-23.586227416992188,-8.946223258972168,-12.163520812988281
0,324058,-5.729633331298828,135.32823181152344,151.0523681640625,16.833528518676758
0,324060,18.91840171813965,118.40203094482422,104.52271270751953,21.47535514831543
0,324061,7.704719066619873,-126.61217498779297,-122.3923568725586,-27.977014541625977
0,324064,-20.44239044189453,-67.88316345214844,-70.05716705322266,-8.026143074035645
0,324065,6.529972553253174,57.846778869628906,30.892152786254883,12.115382194519043
0,324068,0.11136005818843842,63.01442337036133,79.43637084960938,11.643290519714355
0,324069,-19.829294204711914,32.04214096069336,61.239051818847656,18.826276779174805
0,324072,11.498455047607422,-89.92996978759766,-109.04989624023438,-31.200740814208984
0,324073,-2.512368679046631,-71.75089263916016,-101.64810180664062,-22.008150100708008
0,324076,14.683337211608887,45.26749801635742,40.12302017211914,34.878173828125
0,324077,0.16868357360363007,64.36473083496094,65.58370971679688,16.80036735534668
0,324080,-43.768829345703125,19.272253036499023,53.54849624633789,-29.580978393554688
0,324081,20.43471336364746,-64.7041015625,-13.668829917907715,-23.97757339477539
0,324084,11.135974884033203,-63.282379150390625,-52.9554443359375,32.66473388671875
0,324085,-34.918792724609375,22.15256118774414,-16.199893951416016,5.836338043212891
0,324088,23.526100158691406,100.22462463378906,56.66127014160156,-25.86886978149414
0,324089,28.83942222595215,61.134159088134766,71.99884033203125,25.262052536010742
0,324092,-17.09442138671875,-122.84761047363281,-103.85639953613281,22.141130447387695
0,324093,-5.134660720825195,-99.74261474609375,-92.76397705078125,-32.479434967041016
0,324096,-1.5771692991256714,53.719600677490234,55.79421615600586,-30.852773666381836
0,324097,12.93084716796875,75.24700164794922,41.21265411376953,50.06896209716797
0,324100,9.239714622497559,36.965023040771484,43.209449768066406,14.579049110412598
0,324101,-23.986492156982422,-50.18653869628906,-7.253347396850586,-65.32215118408203
0,324104,4.595643520355225,-69.8810806274414,-85.839111328125,23.08523178100586
0,324105,20.744159698486328,17.206201553344727,-12.024578094482422,63.60685729980469
0,324108,-9.79383373260498,105.4061279296875,101.08467864990234,-36.77174377441406
0,324109,-11.304398536682129,53.5760498046875,67.05290222167969,-38.83681106567383
0,324112,-7.21107816696167,-125.41172790527344,-99.80072784423828,35.054866790771484
0,324113,-4.414882659912109,-78.78424835205078,-98.10753631591797,6.515091896057129
0,324116,13.822502136230469,71.71414947509766,28.32195472717285,-24.034618377685547
0,324117,2.5672078132629395,66.6593017578125,88.69327545166016,-32.8704719543457
0,324120,-4.42667293548584,26.09511375427246,69.98434448242188,-15.389208793640137
0,324121,10.614767074584961,-58.02882766723633,-57.05906295776367,59.733177185058594
0,324124,-5.843692779541016,-85.85957336425781,-109.48631286621094,16.682451248168945
0,324125,-9.662912368774414,7.843172550201416,-22.2155704498291,-44.07233810424805
0,324128,28.821819305419922,104.12261962890625,119.32373046875,8.871933937072754
0,324129,10.283578872680664,50.38349151611328,95.6478271484375,31.39570426940918
0,324131,-45.68388748168945,-97.74893188476562,-101.93633270263672,-17.63585090637207
0,324134,-7.254166603088379,-88.07847595214844,-141.24327087402344,-43.03087615966797
0,324135,30.243427276611328,7.536586761474609,2.227586269378662,26.193769454956055
0,324138,-8.589632034301758,135.27923583984375,165.01405334472656,63.3686408996582
0,324139,14.358743667602539,91.3238754272461,100.21741485595703,8.684784889221191
0,324142,10.399492263793945,-123.34568786621094,-113.3546142578125,-49.44670486450195
0,324143,-44.49188995361328,-109.46857452392578,-115.06327056884766,-49.650638580322266
0,324146,3.1327686309814453,50.231929779052734,35.04823684692383,21.422096252441406
0,324147,45.28183364868164,116.85050201416016,90.17387390136719,40.37881088256836
0,324150,-3.309720516204834,-18.16849708557129,4.112486839294434,12.522385597229004
0,324151,-42.5393180847168,-95.64722442626953,-61.19241714477539,-20.85956573486328
0,324154,-16.552526473999023,-32.91148376464844,-53.61831283569336,-52.4293327331543
0,324155,25.044288635253906,12.695958137512207,-9.059475898742676,-3.17876935005188
0,324158,22.932348251342773,129.5311279296875,112.33636474609375,67.87230682373047
0,324159,6.291497707366943,41.64461135864258,70.39439392089844,36.52267074584961
0,324162,-21.21246910095215,-148.8450927734375,-95.1783447265625,-66.53087615966797
0,324163,-22.95944595336914,-65.7046890258789,-83.97161102294922,-50.15040588378906
0,324166,17.467334747314453,83.83577728271484,21.80422592163086,39.262046813964844
0,324167,18.446895599365234,107.00605010986328,107.53504180908203,34.019935607910156
0,324170,-1.1474546194076538,-15.013017654418945,22.14440155029297,-12.456023216247559
0,324171,-16.23708152770996,-96.70130157470703,-93.87126922607422,-30.997352600097656
0,324174,-12.1015625,-53.087188720703125,-66.31676483154297,-25.561059951782227
0,324175,2.1093406677246094,15.329272270202637,5.2009100914001465,72.9027099609375
0,324178,19.69970703125,133.18199157714844,130.83229064941406,63.869285583496094
0,324179,17.465421676635742,41.458980560302734,76.99713134765625,-79.98961639404297
0,324182,-10.657110214233398,-156.9547882080078,-116.64222717285156,-46.27908706665039
0,324183,-14.764525413513184,-54.29967498779297,-107.19132995605469,3.134469985961914
0,324186,5.694856643676758,92.28573608398438,37.93929672241211,32.332275390625
0,324187,17.610267639160156,98.61640930175781,111.04314422607422,55.62537384033203
0,324190,-28.29732894897461,-31.66696548461914,-9.863290786743164,-32.46097183227539
0,324191,-22.248241424560547,-109.63436126708984,-68.67405700683594,-34.164886474609375
0,324194,22.844579696655273,-17.730247497558594,-19.786537170410156,4.4590654373168945
0,324195,20.14685821533203,12.03812313079834,-21.8929386138916,-11.406026840209961
0,324198,12.508315086364746,105.30370330810547,103.10155487060547,41.084041595458984
0,324199,-22.692564010620117,67.13385772705078,79.64807891845703,24.943334579467773
0,324202,-14.113691329956055,-141.5408172607422,-128.56478881835938,-45.316246032714844
0,324203,3.7053580284118652,-91.89682006835938,-98.26889038085938,-33.36807632446289
0,324206,2.864549160003662,84.27922821044922,58.3498649597168,2.521829605102539
0,324207,23.37082290649414,127.41743469238281,131.61888122558594,49.65837097167969
0,324210,-9.564117431640625,-22.973831176757812,19.124223709106445,23.07674217224121
0,324211,-31.613616943359375,-104.36174011230469,-119.0902099609375,-45.482479095458984
0,324214,1.175520896911621,-42.26155471801758,-72.91554260253906,-36.602603912353516
0,324215,39.73093795776367,10.271544456481934,15.682884216308594,28.07454490661621
0,324218,25.93438720703125,139.66070556640625,125.39606475830078,47.34363555908203
0,324220,-38.44038772583008,48.34575271606445,55.69200134277344,-5.465725898742676
0,324222,-22.315479278564453,-153.81912231445312,-138.59349060058594,-40.62669372558594
0,324224,6.980527400970459,-70.13819122314453,-59.144691467285156,-12.790154457092285
0,324226,2.057314872741699,74.34928894042969,75.84535217285156,26.714143753051758
0,324228,20.20636558532715,78.02264404296875,66.15013885498047,16.92339324951172
0,324230,-30.19749641418457,-25.087787628173828,4.0777740478515625,-25.671010971069336
0,324232,0.3053184747695923,-83.2153091430664,-93.61312866210938,-20.959959030151367
0,324234,47.46392059326172,-20.398418426513672,-49.39083480834961,4.517227649688721
0,324236,-29.5963134765625,87.91397857666016,107.7287368774414,60.21322250366211
0,324238,-3.2701187133789062,92.24575805664062,75.91852569580078,37.56851577758789
0,324240,31.24207878112793,-46.985694885253906,-40.2869873046875,-67.67832946777344
0,324242,-23.72365379333496,-92.48859405517578,-74.68264770507812,-53.76396560668945
0,324244,-20.45359230041504,-16.439895629882812,-61.01529312133789,8.961237907409668
0,324246,14.783614158630371,13.606864929199219,8.482987403869629,71.94220733642578
0,324248,13.083901405334473,57.67909622192383,106.31037902832031,11.07595157623291
0,324250,-23.030736923217773,34.84477615356445,78.13883209228516,-76.5645980834961
0,324252,-15.745352745056152,-70.2011947631836,-110.13135528564453,-22.374082565307617
0,324254,35.2181396484375,-40.533897399902344,-106.80874633789062,11.90059757232666
0,324256,7.690860271453857,79.92070007324219,84.94097900390625,36.78632736206055
0,324258,-13.300338745117188,82.78845977783203,92.53609466552734,49.53807830810547
0,324260,-6.912364959716797,-82.40214538574219,-30.261987686157227,38.61272048950195
0,324262,-19.939056396484375,-89.84196472167969,-69.51348876953125,-21.626379013061523
0,324264,0.7484316825866699,23.437271118164062,-29.432912826538086,-117.56367492675781
0,324266,21.959484100341797,36.84805679321289,34.15598678588867,41.80143356323242
0,324268,9.22989559173584,70.3504638671875,68.66143035888672,89.7086410522461
0,324270,-2.4586596488952637,-5.542356491088867,32.90160369873047,-130.7882080078125
0,324272,1.3572125434875488,-123.41842651367188,-93.59127044677734,17.461851119995117
0,324274,-5.145272254943848,-54.41432189941406,-109.648193359375,121.59797668457031
0,324276,3.7579305171966553,134.17538452148438,94.37064361572266,-82.88444519042969
0,324278,9.203251838684082,112.24469757080078,142.70143127441406,-47.32169723510742
0,324280,-3.679725170135498,-103.9774169921875,-40.98799514770508,36.24094772338867
0,324282,-11.409152030944824,-87.94659423828125,-97.88492584228516,-0.13999620079994202
0,324284,-1.2841973304748535,14.803548812866211,-36.92122268676758,-2.0398621559143066
0,324286,16.882354736328125,42.40047073364258,23.27487564086914,14.629762649536133
0,324288,-11.671062469482422,73.5189208984375,97.58623504638672,24.138818740844727
0,324290,-25.38972282409668,-13.875297546386719,11.407090187072754,-8.080759048461914
0,324292,16.421619415283203,-113.7941665649414,-111.02550506591797,-24.48373794555664
0,324294,10.74810791015625,-44.117431640625,-50.824913024902344,-1.0261310338974
0,324296,-15.188743591308594,121.52496337890625,76.71820831298828,37.98436737060547
0,324298,-0.0257990974932909,78.02093505859375,91.69163513183594,14.608708381652832
0,324299,13.178668022155762,-82.84268188476562,-29.0673828125,-52.06578063964844
0,324302,-17.666461944580078,-55.02873229980469,-90.67098999023438,-30.45581817626953
0,324303,10.244158744812012,-12.822250366210938,-30.25225067138672,10.743402481079102
0,324306,50.302345275878906,45.517642974853516,55.023460388183594,21.437881469726562
0,324307,-12.638945579528809,118.82832336425781,87.19558715820312,22.513681411743164
0,324310,-43.9666862487793,-29.12493324279785,2.133514165878296,-4.359494686126709
0,324311,2.3113090991973877,-99.08304595947266,-56.24796676635742,29.58443260192871
0,324314,27.31610870361328,-42.676124572753906,-53.65143966674805,44.56063461303711
0,324315,-18.348541259765625,-24.22708511352539,-41.71492004394531,-57.51789855957031
0,324318,-19.60853385925293,116.0453872680664,96.98587036132812,-126.09305572509766
0,324319,4.956134796142578,53.565773010253906,59.90094757080078,-50.92931365966797
0,324322,1.3803315162658691,-103.53620147705078,-102.6692886352539,90.86817932128906
0,324323,12.913256645202637,-44.583675384521484,-45.644798278808594,80.47408294677734
0,324326,7.920495510101318,67.8530044555664,64.24728393554688,100.51358032226562
0,324328,-2.173173427581787,72.42093658447266,75.21294403076172,36.911415100097656
0,324329,4.501381874084473,-31.74764060974121,-9.947362899780273,-186.60797119140625
0,324332,-9.31251335144043,-72.38136291503906,-100.6243896484375,-152.51417541503906
0,324333,-22.023799896240234,-55.08095932006836,-48.282222747802734,15.90461254119873
0,324336,25.28811264038086,81.12617492675781,89.82655334472656,205.26470947265625
0,324337,32.163856506347656,119.80615997314453,93.30057525634766,144.04156494140625
0,324340,-35.47519302368164,-72.55896759033203,-15.090909004211426,-114.08773803710938
0,324341,-39.02777862548828,-116.82738494873047,-95.78279876708984,-86.17910766601562
0,324344,47.315185546875,-2.0315067768096924,-68.73938751220703,-28.684743881225586
0,324345,22.498979568481445,26.05167579650879,-3.2386391162872314,-13.42665958404541
0,324348,-48.86750793457031,61.583885192871094,95.28759002685547,141.7848358154297
0,324349,16.698137283325195,80.62638854980469,107.52986907958984,62.90807342529297
0,324352,11.645455360412598,-84.84256744384766,-96.22261047363281,-194.81298828125
0,324353,-32.71718215942383,-117.08529663085938,-102.34133911132812,-119.88106536865234
0,324356,29.488861083984375,102.14616394042969,95.70020294189453,62.970306396484375
0,324357,25.658361434936523,138.2062530517578,85.13164520263672,114.31590270996094
0,324360,-37.77707290649414,-74.10052490234375,-38.97667694091797,105.83170318603516
0,324361,-4.855185508728027,-133.23106384277344,-75.95291900634766,-44.48823165893555
0,324364,18.82999038696289,-8.176800727844238,-28.69521713256836,-166.2720947265625
0,324365,-2.3738725185394287,76.34909057617188,20.10140037536621,-69.34746551513672
0,324368,13.919761657714844,79.22409057617188,66.41130065917969,157.35678100585938
0,324369,-14.874434471130371,-10.662508010864258,65.39318084716797,168.18907165527344
0,324372,-51.481971740722656,-109.68220520019531,-117.51687622070312,-145.85279846191406
0,324373,-4.612980365753174,-76.4627685546875,-142.3805694580078,-152.6273193359375
0,324376,60.922637939453125,106.68582153320312,101.02948760986328,257.5059814453125
0,324377,36.49072265625,135.74441528320312,135.0811004638672,141.33395385742188
0,324380,-44.123111724853516,-81.3652114868164,-9.574000358581543,-252.22317504882812
0,324381,-42.27261734008789,-90.2442398071289,-74.66279602050781,-74.66926574707031
0,324384,25.268817901611328,34.85680389404297,-48.23543930053711,74.20753479003906
0,324385,12.912362098693848,15.775407791137695,23.696443557739258,-30.329965591430664
0,324388,-2.541325092315674,51.49782943725586,87.38278198242188,-106.47808837890625
0,324389,13.106546401977539,26.527238845825195,48.839141845703125,-154.14064025878906
0,324392,-21.93881607055664,-128.39358520507812,-140.07090759277344,233.3345184326172
0,324393,-3.251535654067993,-75.47467803955078,-112.40135955810547,357.4767761230469
0,324396,26.584753036499023,119.66988372802734,125.63985443115234,-204.41477966308594
0,324397,5.312656402587891,101.0965805053711,106.10578155517578,-259.1230773925781
0,324400,-32.04325866699219,-57.95207977294922,-33.86637878417969,65.54271697998047
0,324401,4.298395156860352,-68.89186096191406,-59.757755279541016,49.95919418334961
0,324404,49.347267150878906,-23.865690231323242,-59.25156784057617,52.965972900390625
0,324405,-11.973517417907715,57.81175994873047,20.9925537109375,134.1532440185547
0,324408,-18.60365867614746,106.61016845703125,125.74819946289062,19.79416847229004
0,324409,1.6040847301483154,-26.800683975219727,25.40753936767578,-96.62796783447266
0,324412,-33.82184982299805,-95.86024475097656,-136.19705200195312,-172.62754821777344
0,324413,-7.553223133087158,-53.37812423706055,-47.787288665771484,-58.40506362915039
0,324416,45.98265075683594,43.546512603759766,90.29202270507812,178.4540252685547
0,324417,3.150388479232788,81.61719512939453,20.145872116088867,209.2443084716797
0,324420,-46.628440856933594,-50.267704010009766,-12.98251724243164,-200.77735900878906
0,324421,8.964820861816406,-59.34003829956055,3.015212059020996,-437.4398498535156
0,324424,29.71122169494629,24.68305778503418,-59.404537200927734,274.2075500488281
0,324425,4.9492974281311035,34.54785919189453,-11.451517105102539,415.6990661621094
0,324428,12.295028686523438,44.42574691772461,77.7240982055664,-146.2172088623047
0,324429,-42.4232292175293,-26.175350189208984,34.01369857788086,-164.5868682861328
0,324432,-15.595601081848145,-76.76242065429688,-89.8251724243164,7.867611885070801
0,324433,40.61715316772461,9.503107070922852,-65.66741180419922,-40.58454132080078
0,324436,-0.5560288429260254,100.44503021240234,104.2532958984375,-147.39456176757812
0,324437,17.83637046813965,76.25637817382812,77.41073608398438,181.03514099121094
0,324440,-2.4804391860961914,-51.275054931640625,-39.226078033447266,462.84539794921875
0,324442,-53.914085388183594,-134.44561767578125,-65.66464233398438,-140.19696044921875
0,324444,-7.706712245941162,-69.74665069580078,-80.86273956298828,-797.8490600585938
0,324446,10.526457786560059,51.3177375793457,16.911588668823242,-230.33074951171875
0,324450,35.184913635253906,82.02922058105469,107.89137268066406,779.075439453125
0,324450,49.78201675415039,35.71315383911133,39.1431999206543,412.3464660644531
0,324451,-22.7246036529541,14.328855514526367,-18.944042205810547,-336.4156799316406
0,324454,-34.647674560546875,-99.75232696533203,-95.1675033569336,14.014118194580078
0,324455,-10.37401294708252,-76.70897674560547,-87.87466430664062,20.635385513305664
0,324458,4.454362869262695,172.48838806152344,162.05081176757812,-193.20733642578125
0,324459,17.74176025390625,75.47176361083984,141.64955139160156,93.70291900634766
0,324462,-6.824985027313232,-129.6687774658203,-138.11239624023438,-7.030794143676758
0,324463,9.76590633392334,-69.89940643310547,-114.45344543457031,36.24238204956055
0,324466,-18.531984329223633,72.79104614257812,64.31792449951172,-63.45100021362305
0,324467,-23.622028350830078,129.01072692871094,103.02088165283203,-294.55633544921875
0,324470,41.53657913208008,-72.42887115478516,-14.285916328430176,67.31900787353516
0,324471,-33.25599670410156,-139.71536254882812,-67.69378662109375,402.30126953125
0,324474,-6.660820960998535,3.979685068130493,-50.07187271118164,360.56732177734375
0,324475,61.43120193481445,19.982580184936523,-39.131526947021484,-166.66452026367188
0,324478,-44.667884826660156,66.9376220703125,98.83283996582031,-856.783203125
0,324479,-64.90428161621094,-8.227375030517578,44.19581985473633,-561.083984375
0,324482,65.27113342285156,-42.903839111328125,-74.52286529541016,922.6318359375
0,324483,86.11201477050781,63.751487731933594,6.761836528778076,949.2567138671875
0,324486,-56.19024658203125,7.4745025634765625,9.259206771850586,-659.6423950195312
0,324487,-64.51486206054688,30.0297908782959,42.525428771972656,-653.797119140625
0,324490,28.646949768066406,-44.169532775878906,-2.441272020339966,596.3748168945312
0,324491,-0.6542287468910217,-119.61589050292969,-105.47868347167969,124.8619155883789
0,324494,17.52815818786621,27.318422317504883,-13.436922073364258,-624.2562866210938
0,324495,33.75480270385742,63.731266021728516,65.58560943603516,131.46823120117188
0,324498,-2.072986125946045,102.9939193725586,124.90411376953125,326.22637939453125
0,324499,0.7968544960021973,17.58289909362793,24.462055206298828,8.11854362487793
0,324502,-65.65644073486328,-160.40895080566406,-153.4049530029297,56.41886901855469
0,324503,-6.565611839294434,-51.42682647705078,-64.28448486328125,33.828941345214844
0,324506,42.19950485229492,103.92807006835938,64.89310455322266,5.010919570922852
0,324507,-8.952129364013672,90.50077819824219,68.84391784667969,-65.24654388427734
0,324510,9.50523567199707,-60.70772171020508,-15.124874114990234,-403.1448669433594
0,324511,1.721150279045105,-87.18283081054688,-52.4598503112793,-50.3546028137207
0,324514,-11.602192878723145,37.17631149291992,-6.186944961547852,558.6906127929688
0,324515,-3.961735725402832,24.155370712280273,14.679311752319336,255.86717224121094
0,324518,-1.634057879447937,26.948686599731445,22.969703674316406,-376.39825439453125
0,324519,-3.641913890838623,-7.38628625869751,-27.084182739257812,-549.4562377929688
0,324522,16.251243591308594,-69.51895141601562,-47.11138916015625,108.21247863769531
0,324523,5.059981822967529,-9.971142768859863,7.73024845123291,426.0237121582031
0,324526,-4.567266941070557,67.9007339477539,54.186546325683594,118.93020629882812
0,324527,12.811819076538086,79.52657318115234,83.5579833984375,-87.06925201416016
0,324530,-11.304251670837402,-65.48394775390625,-16.010034561157227,-248.23785400390625
0,324531,-25.107952117919922,-73.05997467041016,-65.5391616821289,-305.72906494140625
0,324534,15.850635528564453,-13.033516883850098,-45.665077209472656,0.1076323539018631
0,324535,11.519166946411133,3.7424838542938232,-27.05612564086914,414.0079345703125
0,324538,-11.35979175567627,141.3673858642578,149.4694061279297,240.7205352783203
0,324539,12.491145133972168,20.756200790405273,70.88260650634766,-11.316446304321289
0,324542,17.221630096435547,-159.0544891357422,-171.2808074951172,28.678447723388672
0,324543,-29.413227081298828,-59.99118423461914,-96.6200942993164,-168.54248046875
0,324546,-34.82133865356445,83.43048095703125,70.79334259033203,-70.30968475341797
0,324547,41.102874755859375,120.38867950439453,132.15237426757812,36.06638717651367
0,324550,29.04830551147461,-41.89164352416992,9.996274948120117,-58.66218948364258
0,324551,-50.46405029296875,-92.16410827636719,-131.8155059814453,93.92676544189453
0,324554,4.243819713592529,17.923595428466797,-62.44708251953125,-10.84672737121582
0,324555,25.574716567993164,10.768627166748047,39.57332229614258,-33.630714416503906
0,324558,-17.49065399169922,52.79082489013672,85.4730453491211,-82.974609375
0,324559,14.885064125061035,22.86962127685547,43.26630783081055,0.015338370576500893
0,324562,-27.873743057250977,-105.677001953125,-67.77328491210938,104.38856506347656
0,324563,-7.8583784103393555,-63.378204345703125,-70.5726318359375,-49.699092864990234
0,324566,49.41194152832031,106.67766571044922,55.70390701293945,38.02831268310547
0,324567,33.23300552368164,123.40196228027344,113.6734619140625,-155.33544921875
0,324571,-12.639612197875977,-106.38443756103516,-71.37229919433594,-164.32679748535156
0,324571,-20.258028030395508,-62.88005828857422,-84.73876190185547,177.6487274169922
0,324574,-31.855194091796875,31.56099510192871,27.6263370513916,121.62014770507812
0,324575,-43.53862762451172,-48.088356018066406,-22.72565460205078,-125.5931396484375
0,324578,68.65071105957031,103.30583953857422,95.17864990234375,65.662353515625
0,324579,9.995221138000488,47.61191177368164,60.89946365356445,443.5909729003906
0,324582,-70.98287200927734,-143.27635192871094,-120.3912353515625,-65.6487045288086
0,324583,25.14961051940918,-36.98651123046875,-59.06938171386719,-529.3284301757812
0,324586,47.29146957397461,112.6516342163086,45.67037582397461,-149.27374267578125
0,324587,-9.195205688476562,92.5323715209961,77.68029022216797,279.6468200683594
0,324590,-62.763999938964844,-116.09285736083984,-15.503554344177246,372.7853088378906
0,324591,12.504414558410645,-81.53251647949219,-44.14516830444336,68.27304077148438
0,324594,88.93490600585938,102.159423828125,19.244516372680664,-464.8493957519531
0,324595,-7.890340805053711,5.011667251586914,-12.173829078674316,-453.8034973144531
0,324598,-53.707008361816406,15.456249237060547,-3.9264912605285645,326.50030517578125
0,324599,-3.6320910453796387,11.585813522338867,-10.629779815673828,527.9788818359375
0,324602,-26.377286911010742,-138.95059204101562,-15.44922161102295,104.23129272460938
0,324603,-9.100253105163574,-28.03072166442871,23.198795318603516,-207.7190399169922
0,324606,60.19350814819336,143.4561309814453,51.82170867919922,-584.6354370117188
0,324607,17.345905303955078,84.65361022949219,93.68278503417969,-674.7183227539062
0,324610,-4.405972957611084,-71.77146911621094,-89.10154724121094,817.7808227539062
0,324611,-29.869508743286133,-83.12422943115234,-159.8670196533203,1319.1890869140625
0,324614,-47.29883575439453,-27.266088485717773,44.59497833251953,-525.6765747070312
0,324615,39.9943733215332,41.66431427001953,44.791873931884766,-837.5135498046875
0,324618,3.5825705528259277,90.8442611694336,71.20471954345703,-99.55929565429688
0,324619,-50.57911682128906,-38.74599838256836,63.216896057128906,103.04447174072266
0,324622,63.25936508178711,-68.93155670166016,-102.72349548339844,220.38706970214844
0,324623,45.379859924316406,8.69731330871582,-103.49955749511719,157.58963012695312
0,324626,-57.79035568237305,46.36236572265625,15.29127311706543,108.04458618164062
0,324627,31.81979751586914,67.1747817993164,125.81461334228516,244.07272338867188
0,324630,20.793123245239258,-23.841609954833984,16.66179084777832,-155.79745483398438
0,324631,-85.59492492675781,-104.87833404541016,-101.24278259277344,-459.5047607421875
0,324634,-7.99308967590332,-51.31465530395508,-8.946749687194824,-110.41220092773438
0,324635,67.90882110595703,75.08407592773438,53.41128158569336,37.81113052368164
0,324638,25.152212142944336,141.4364776611328,105.36153411865234,330.67840576171875
0,324639,-36.75114059448242,-7.82151985168457,1.0473837852478027,69.61436462402344
0,324642,-43.733699798583984,-154.40011596679688,-171.7430419921875,-260.7038879394531
0,324643,2.190317392349243,-73.76700592041016,-73.93405151367188,146.7708282470703
0,324646,14.70123291015625,66.65736389160156,70.27450561523438,-78.2681884765625
0,324647,21.8071346282959,119.35086822509766,113.51478576660156,-389.04833984375
0,324650,-3.6207468509674072,-12.461186408996582,17.442520141601562,148.5229034423828
0,324651,-53.609840393066406,-59.10062026977539,-53.97314453125,371.1783447265625
0,324654,44.86442565917969,-13.320047378540039,-32.75304412841797,281.5536193847656
0,324655,46.58738327026367,-20.6389102935791,-40.668888092041016,-89.40696716308594
0,324658,-27.85009002685547,83.67516326904297,80.0405044555664,-532.7915649414062
0,324659,30.7244815826416,40.79090118408203,67.55157470703125,-84.34951782226562
0,324662,-23.61223793029785,-110.96945190429688,-83.23735809326172,211.8650360107422
0,324663,-64.21337127685547,-67.38545989990234,-73.22006225585938,129.91111755371094
0,324666,36.33608627319336,96.30012512207031,56.363914489746094,129.23814392089844
0,324667,45.88811111450195,107.36184692382812,91.91577911376953,-39.55732345581055
0,324670,-32.35860061645508,-100.44161224365234,-57.75416946411133,-109.23760986328125
0,324671,-21.06451416015625,-86.10848236083984,-66.23336029052734,-8.973018646240234
0,324674,20.62823486328125,47.75299072265625,5.383522033691406,-9.739387512207031
0,324675,11.684538841247559,45.49523162841797,19.483612060546875,-16.54957389831543
0,324678,-14.997881889343262,85.11965942382812,89.71337890625,-71.83639526367188
0,324679,-20.27762222290039,-11.596761703491211,-6.244100093841553,-35.24409484863281
0,324682,24.594552993774414,-131.40869140625,-109.29986572265625,352.66461181640625
0,324684,-11.980795860290527,-64.03533172607422,-27.37152862548828,130.4886932373047
0,324686,-2.4096691608428955,96.84276580810547,92.01288604736328,-286.50689697265625
0,324688,47.53772735595703,118.0347671508789,134.28993225097656,-198.47950744628906
0,324690,-25.9599666595459,-97.5379867553711,-102.10871887207031,-101.75711059570312
0,324692,-43.72828674316406,-85.29901885986328,-170.36143493652344,140.43023681640625
0,324694,12.347033500671387,54.09073257446289,65.60346221923828,158.25782775878906
0,324696,31.11149787902832,52.002593994140625,99.68898010253906,-24.386730194091797
0,324699,21.2982234954834,45.15085220336914,24.974624633789062,136.85641479492188
0,324701,-5.398655891418457,-35.372169494628906,-60.4521484375,-123.72779846191406
0,324702,-34.11900329589844,-88.99411010742188,-104.01671600341797,-395.98919677734375
0,324703,-7.339714050292969,-19.778470993041992,-1.5090726613998413,208.0848846435547
0,324706,29.2634334564209,97.52484130859375,110.90583801269531,277.5586242675781
0,324707,-9.018498420715332,85.3548812866211,112.53562927246094,110.73926544189453
0,324710,-40.06864929199219,-102.43777465820312,-70.98643493652344,157.70106506347656
0,324711,-24.822792053222656,-118.92171478271484,-128.2198944091797,-585.0050659179688
0,324714,0.6607398390769958,14.537694931030273,34.86407470703125,-629.8713989257812
0,324715,49.030460357666016,83.97404479980469,73.75764465332031,487.0186462402344
0,324718,51.1123046875,116.2484359741211,50.412086486816406,766.4564819335938
0,324719,-26.168718338012695,-42.43461227416992,-52.47757339477539,-13.617486953735352
0,324722,-38.59767532348633,-148.05892944335938,-107.01280212402344,-359.0071716308594
0,324723,42.08933639526367,-2.105306625366211,12.182133674621582,-83.37580108642578
0,324726,60.28838348388672,120.48776245117188,64.6458511352539,-172.49252319335938
0,324727,-4.620375633239746,92.0707015991211,36.372379302978516,-295.47027587890625
0,324730,-105.48295593261719,-78.71696472167969,-45.44827651977539,467.759033203125
0,324731,-40.10378646850586,-113.81723022460938,-26.996877670288086,812.6014404296875
0,324734,63.8492431640625,-11.961309432983398,-9.332357406616211,-306.8798828125
0,324735,3.6659300327301025,48.054996490478516,6.569561958312988,-527.3140869140625
0,324738,12.9912691116333,110.4987564086914,138.9259033203125,-144.2252655029297
0,324739,-27.27984619140625,-11.311461448669434,-23.999427795410156,-431.3546447753906
0,324742,-54.61538314819336,-157.90994262695312,-150.2874298095703,411.2229309082031
0,324743,41.69862365722656,-26.761322021484375,8.352211952209473,655.6428833007812
0,324746,56.38488006591797,149.52700805664062,86.033203125,-422.11920166015625
0,324747,6.042302131652832,81.31977081298828,55.76414108276367,-249.4871063232422
0,324750,-41.11475372314453,-124.40132904052734,-87.1261215209961,286.5845947265625
0,324751,-9.99559497833252,-60.66992950439453,-57.640960693359375,12.704032897949219
0,324754,53.70256042480469,64.45645141601562,43.76025390625,-330.5289001464844
0,324755,6.0489325523376465,23.494897842407227,5.779531002044678,-48.21418762207031
0,324758,-28.8493709564209,54.75176239013672,72.35295867919922,451.90606689453125
0,324759,-15.142814636230469,-37.97077560424805,-4.770770072937012,209.43919372558594
0,324762,-25.61799430847168,-154.69076538085938,-145.30201721191406,-299.28314208984375
0,324763,-1.629077672958374,-6.4582343101501465,-25.41122055053711,-377.5015563964844
0,324766,38.881282806396484,187.62022399902344,147.6045684814453,198.17320251464844
0,324767,13.401894569396973,88.88919067382812,116.30122375488281,387.8532409667969
0,324770,-31.703481674194336,-154.69178771972656,-109.88449096679688,-294.8749694824219
0,324771,-0.6893094182014465,-67.57476043701172,-109.71845245361328,-232.8754425048828
0,324774,-11.270425796508789,36.744140625,2.912919282913208,287.8079833984375
0,324775,17.92888832092285,47.54803466796875,62.3785400390625,232.98025512695312
0,324778,54.94614791870117,101.01319885253906,125.10482025146484,-125.43115997314453
0,324779,-25.268741607666016,-43.79222106933594,-19.262094497680664,-338.8395080566406
0,324782,-44.432029724121094,-137.4160614013672,-106.32959747314453,-2.155076742172241
0,324783,-17.36559295654297,-42.131160736083984,-60.507381439208984,229.05184936523438
0,324786,22.97617530822754,113.24244689941406,34.52206802368164,-64.04618072509766
0,324787,30.50380516052246,108.60892486572266,95.50434875488281,14.44046401977539
0,324790,-29.281522750854492,-109.0373306274414,-56.956199645996094,228.8545379638672
0,324791,-24.446353912353516,-115.2985610961914,-88.4827880859375,27.84920883178711
0,324794,42.86935806274414,49.64733123779297,29.26509666442871,-329.55230712890625
0,324795,58.724327087402344,100.49417114257812,63.26667022705078,-267.1405944824219
0,324798,-29.44085693359375,50.06831359863281,77.02589416503906,324.2109375
0,324799,-55.62955856323242,-62.32201385498047,-2.7161920070648193,284.7200622558594
0,324802,7.690053462982178,-78.41934204101562,-123.9891357421875,-286.4607238769531
0,324803,6.671134948730469,-13.610577583312988,-67.8675765991211,-185.7539825439453
0,324806,3.417292356491089,82.44688415527344,118.92472839355469,255.10256958007812
0,324807,8.554475784301758,82.79825592041016,110.08287048339844,87.17046356201172
0,324810,-33.167640686035156,-98.9920883178711,-90.96378326416016,-161.96290588378906
0,324811,5.242325305938721,-67.01614379882812,-70.53546142578125,-41.056602478027344
0,324814,52.946250915527344,27.167194366455078,7.550926685333252,73.46659088134766
0,324815,-17.530014038085938,31.89875030517578,-0.668044924736023,50.72852325439453
0,324818,-48.40263366699219,76.02338409423828,90.7104263305664,-26.57547950744629
0,324819,17.40758514404297,-22.590776443481445,-1.7041654586791992,32.224246978759766
0,324822,30.263843536376953,-85.30670166015625,-114.76073455810547,27.586488723754883
0,324824,-17.23841094970703,-25.387136459350586,-10.309350967407227,-66.43218231201172
0,324826,-4.130859375,69.1046371459961,94.9477310180664,-19.732011795043945
0,324828,0.9959762096405029,62.2106819152832,64.81627655029297,33.43042755126953
0,324830,-12.569439888000488,-84.769775390625,-97.28572845458984,-31.020360946655273
0,324832,13.672357559204102,-44.62704849243164,-60.79711151123047,-75.33882141113281
0,324834,18.84929847717285,55.0850944519043,32.81526184082031,25.93603515625
0,324836,3.183953046798706,37.94066619873047,26.517013549804688,108.5831069946289
0,324838,1.7897884845733643,33.547515869140625,87.49970245361328,-4.139129161834717
0,324840,-26.361696243286133,-39.991641998291016,-5.758484363555908,-73.04794311523438
0,324842,-22.832271575927734,-96.01346588134766,-103.54924011230469,-4.521305084228516
0,324844,19.618083953857422,-4.663974761962891,-35.64667510986328,49.16896057128906
0,324846,46.325077056884766,123.30540466308594,63.01063919067383,46.04491424560547
0,324847,18.525943756103516,64.0954360961914,107.81141662597656,-18.53988265991211
0,324850,-66.49606323242188,-111.81409454345703,-53.04569625854492,-76.6473388671875
0,324851,-25.260210037231445,-67.61245727539062,-115.3744125366211,-34.673038482666016
0,324854,43.15494155883789,22.05137825012207,10.752832412719727,37.527469635009766
0,324855,-10.46446704864502,32.99643325805664,13.85310173034668,13.010736465454102
0,324858,-6.373575687408447,84.6259994506836,74.91011047363281,3.1073367595672607
0,324859,30.86294174194336,-8.11289119720459,64.96710205078125,41.83130645751953
0,324862,0.3211056888103485,-90.5582275390625,-115.62012481689453,8.475152015686035
0,324863,-15.07046127319336,-37.787960052490234,-80.94709777832031,-37.544525146484375
0,324866,-12.328099250793457,67.64595031738281,95.07788848876953,-7.924048900604248
0,324867,22.911073684692383,98.60448455810547,112.48944091796875,-0.9925522208213806
0,324870,8.706589698791504,-101.9475326538086,-73.59274291992188,-16.763734817504883
0,324871,-39.842227935791016,-80.73115539550781,-97.12841033935547,49.83412551879883
0,324874,4.039571762084961,44.8868408203125,17.894243240356445,-21.88273048400879
0,324875,25.046621322631836,40.47393035888672,38.07537841796875,-118.8244400024414
0,324878,-22.28508758544922,85.21871948242188,94.88227081298828,92.99913787841797
0,324879,-26.69712257385254,-48.05830383300781,-18.072145462036133,99.29582977294922
0,324882,15.439170837402344,-133.71961975097656,-155.01646423339844,-101.21104431152344
0,324883,11.84010124206543,-16.515958786010742,-39.646446228027344,16.84881591796875
0,324886,9.1710205078125,122.57574462890625,114.99006652832031,53.739356994628906
0,324887,3.427128314971924,103.5589599609375,91.14201354980469,-62.332237243652344
0,324890,-12.812601089477539,-93.3657455444336,-88.33332824707031,-1.643652319908142
0,324891,-4.031702518463135,-89.68009948730469,-62.8053092956543,86.16026306152344
0,324894,17.596004486083984,32.04343795776367,31.764678955078125,-18.741159439086914
0,324895,26.83041000366211,53.66226577758789,25.588342666625977,-114.97367095947266
0,324898,-21.740442276000977,42.1479377746582,103.74111938476562,-36.165367126464844
0,324899,-10.261041641235352,-19.169204711914062,21.793853759765625,56.505123138427734
0,324902,19.150157928466797,-72.0273208618164,-128.82821655273438,126.05744171142578
0,324903,-31.465282440185547,-47.97934341430664,-79.84899139404297,-29.38323402404785
0,324906,-11.948979377746582,91.97386169433594,85.57365417480469,-72.68543243408203
0,324907,38.55741882324219,105.63890838623047,114.97796630859375,62.80769729614258
0,324910,-9.779827117919922,-99.25810241699219,-68.34677124023438,-28.987035751342773
0,324911,-6.498424053192139,-86.685302734375,-77.3299331665039,-17.5507755279541
0,324914,30.637248992919922,34.82725524902344,-19.389205932617188,80.14759826660156
0,324915,-9.045541763305664,53.0496940612793,8.595795631408691,-23.949329376220703
0,324918,-15.837052345275879,44.671356201171875,115.97953796386719,-153.69476318359375
0,324919,-2.5216407775878906,-53.24806213378906,1.7439087629318237,-11.070283889770508
0,324922,-17.327457427978516,-69.18180847167969,-124.57549285888672,132.4193878173828
0,324923,-10.765554428100586,-1.2779967784881592,-30.284523010253906,-0.2800970673561096
0,324926,24.2911376953125,73.40907287597656,87.35767364501953,-11.096821784973145
0,324927,18.110591888427734,79.43463134765625,115.45146942138672,13.303105354309082
0,324930,-11.509148597717285,-110.99708557128906,-53.896297454833984,37.125404357910156
0,324931,-18.3612003326416,-90.76473236083984,-128.0842742919922,22.406131744384766
0,324934,-14.908424377441406,64.61644744873047,-9.765122413635254,-199.3677978515625
0,324935,18.38507080078125,60.15756607055664,53.74183654785156,-107.51732635498047
0,324938,29.0991153717041,65.33448791503906,88.5010757446289,224.60105895996094
0,324939,-15.062603950500488,-43.5401611328125,-20.362300872802734,147.12901306152344
0,324942,-30.976850509643555,-111.85552215576172,-113.42495727539062,-104.76422119140625
0,324943,30.38878059387207,-8.770285606384277,-3.145655870437622,-64.30615997314453
0,324946,31.2901611328125,106.16613006591797,94.43217468261719,-0.9694326519966125
0,324947,-39.39225387573242,67.62574005126953,67.01748657226562,-9.467020988464355
0,324950,-18.669713973999023,-90.05705261230469,-62.637508392333984,-1.6909992694854736
0,324951,33.614837646484375,-45.62174606323242,-67.24762725830078,44.84952163696289
0,324954,6.582310676574707,25.537076950073242,-4.633584499359131,23.657638549804688
0,324955,-18.5201473236084,22.85617446899414,26.731557846069336,17.23638343811035
0,324958,18.58263397216797,57.02992630004883,104.41404724121094,-15.991695404052734
0,324959,-3.834606409072876,-22.549917221069336,-5.533512592315674,-66.79930877685547
0,324962,0.3836960792541504,-78.93580627441406,-120.97056579589844,95.61080932617188
0,324963,26.32188606262207,-34.50389099121094,-80.09968566894531,-15.025450706481934
0,324966,-82.555908203125,46.37101364135742,73.91419219970703,-229.65322875976562
0,324967,-25.57941436767578,98.92123413085938,166.22811889648438,54.62743377685547
0,324970,106.64506530761719,-29.882238388061523,-48.127349853515625,178.82846069335938
0,324971,-9.353947639465332,-80.34133911132812,-117.0580825805664,-8.698346138000488
0,324974,-48.138389587402344,-0.6189790964126587,-15.077457427978516,-35.159934997558594
0,324976,38.51538848876953,65.54654693603516,26.217409133911133,-49.076053619384766
0,324978,-2.57641339302063,50.03937530517578,116.30802917480469,111.6440200805664
0,324980,-31.899690628051758,-70.41553497314453,20.01709747314453,90.68898010253906
0,324982,2.8759560585021973,-61.71934127807617,-142.32943725585938,-160.03668212890625
0,324984,4.295006275177002,10.327319145202637,-66.57876586914062,-61.04390335083008
0,324986,10.555456161499023,73.0497055053711,85.25867462158203,72.9798583984375
0,324988,-5.013076305389404,50.33761215209961,98.79993438720703,-108.874755859375
0,324990,-6.376068592071533,-93.13693237304688,-65.91758728027344,-39.57955551147461
0,324992,11.979753494262695,-71.25589752197266,-95.98207092285156,213.31326293945312
0,324994,-5.534255027770996,32.51529312133789,23.734954833984375,-12.147317886352539
0,324996,15.776799201965332,74.93119049072266,84.41769409179688,-111.7074966430664
0,324998,22.66370391845703,69.2694320678711,66.87552642822266,107.8915023803711
0,325000,-30.937644958496094,-52.591121673583984,-73.08970642089844,39.042362213134766
0,325001,-50.08707809448242,-100.03711700439453,-73.98628997802734,-167.1929168701172
0,325004,18.58375358581543,-7.049673557281494,-10.326026916503906,38.94813537597656
0,325007,67.32379913330078,89.87874603271484,59.37907028198242,247.98446655273438
0,325007,8.974786758422852,70.0265884399414,132.09825134277344,-37.5700798034668
0,325010,-71.20719909667969,-101.53557586669922,-88.20610809326172,-288.4563903808594
0,325012,-41.94709777832031,-77.60880279541016,-114.09233093261719,-93.51390838623047
0,325014,65.915771484375,56.64022445678711,53.38542938232422,130.86024475097656
0,325016,43.58321762084961,63.146156311035156,22.947786331176758,45.611114501953125
0,325018,-43.520118713378906,44.10536193847656,52.36524963378906,52.5303840637207
0,325020,-20.040454864501953,-51.507904052734375,-10.963648796081543,24.183340072631836
0,325022,6.648332118988037,-74.09083557128906,-81.35625457763672,-108.46820831298828
0,325024,-2.7883758544921875,1.8369700908660889,-7.460472583770752,6.475358963012695
0,325026,36.357078552246094,66.611572265625,44.321651458740234,60.67936325073242
0,325028,13.725825309753418,54.70855712890625,78.36202239990234,-55.184364318847656
0,325030,-27.364547729492188,-66.4804916381836,-29.753488540649414,44.80792999267578
0,325032,-6.992119312286377,-76.98782348632812,-103.3754653930664,86.39969635009766
0,325034,-29.96661376953125,0.1853535920381546,-32.182273864746094,-116.72588348388672
0,325036,-13.41950511932373,73.65762329101562,72.04264068603516,-9.641422271728516
0,325038,44.18563461303711,77.61151123046875,113.5208511352539,140.03707885742188
0,325040,17.166593551635742,-58.92558670043945,-43.870304107666016,-101.83190155029297
0,325042,-31.794736862182617,-78.47413635253906,-105.59734344482422,-173.63555908203125
0,325044,-5.179957866668701,5.171966075897217,-2.707345962524414,89.77995300292969
0,325046,34.98430252075195,85.39187622070312,80.54293060302734,180.7290802001953
0,325048,10.086353302001953,71.76168823242188,70.88404083251953,-32.29268264770508
0,325050,-15.585489273071289,-99.90467834472656,-81.97429656982422,-150.87283325195312
0,325052,-20.787628173828125,-78.51457977294922,-67.45606994628906,75.11262512207031
0,325054,6.282389163970947,62.56123733520508,31.26587677001953,136.33518981933594
0,325056,55.31925964355469,59.72159194946289,39.64862823486328,-3.4604110717773438
0,325058,-16.76875877380371,4.719114780426025,50.01987075805664,-144.8538360595703
0,325060,-64.72341918945312,-60.67853546142578,-50.712554931640625,-97.80729675292969
0,325062,-24.356552124023438,-90.11158752441406,-104.94567108154297,102.1399917602539
0,325064,17.653480529785156,5.219427108764648,0.9960035681724548,3.9158730506896973
0,325066,65.53389739990234,148.0889892578125,120.77175903320312,-50.05082702636719
0,325068,-0.3198763132095337,76.47991180419922,90.26649475097656,9.51943588256836
0,325070,-49.27053451538086,-128.7362518310547,-92.29999542236328,51.94502639770508
0,325072,6.2454657554626465,-89.80699920654297,-97.91329193115234,104.41261291503906
0,325074,27.71652603149414,60.754398345947266,25.146459579467773,-22.83937644958496
0,325076,-6.143036365509033,64.83894348144531,72.31541442871094,-133.46157836914062
0,325078,-16.340608596801758,31.61922836303711,71.62078857421875,48.759544372558594
0,325080,2.705829381942749,-33.730770111083984,-73.00154113769531,86.3136978149414
0,325082,-12.700654029846191,-120.30242156982422,-136.48439025878906,-91.89307403564453
0,325084,1.1600863933563232,-32.031551361083984,-4.115082263946533,-30.434303283691406
0,325086,34.36846160888672,148.192138671875,129.96414184570312,46.59173583984375
0,325088,8.546252250671387,90.20772552490234,101.58992004394531,5.644868850708008
0,325090,-28.959360122680664,-125.73713684082031,-106.1754150390625,-15.041274070739746
0,325092,-26.243408203125,-102.51567840576172,-105.22209167480469,-33.517303466796875
0,325094,12.735954284667969,49.8060188293457,38.81043243408203,0.8675023317337036
0,325096,16.261777877807617,77.257080078125,76.89877319335938,26.56891441345215
0,325098,18.79039192199707,60.13212585449219,81.51638793945312,35.082305908203125
0,325100,-5.078035831451416,-47.458675384521484,-48.43941879272461,13.879767417907715
0,325102,-16.060312271118164,-122.00985717773438,-134.4599151611328,-16.306861877441406
0,325104,27.074377059936523,10.87172794342041,-12.004707336425781,-60.62604904174805
0,325106,-17.461668014526367,130.25021362304688,133.0975799560547,-29.802005767822266
0,325108,-37.145572662353516,25.646032333374023,67.48762512207031,9.079780578613281
0,325110,15.627264976501465,-104.96320343017578,-128.865234375,18.99346160888672
0,325112,29.12651824951172,-37.252769470214844,-62.46685791015625,124.96082305908203
0,325114,8.444953918457031,34.35238265991211,40.110939025878906,-40.587120056152344
0,325116,-5.7123212814331055,56.10631561279297,64.66448211669922,-75.9396743774414
0,325118,-30.492563247680664,54.514015197753906,99.28520965576172,63.19212341308594
0,325120,-1.1652065515518188,-57.21027374267578,-66.56986236572266,-28.5915470123291
0,325122,28.5531005859375,-92.31848907470703,-134.2265625,1.0640506744384766
0,325124,-5.0917463302612305,18.070585250854492,8.420351028442383,55.69610595703125
0,325126,-5.9984049797058105,98.1251449584961,110.94146728515625,-62.69230270385742
0,325128,-10.096917152404785,25.345813751220703,43.67021942138672,-37.14067077636719
0,325130,-2.8034770488739014,-111.60965728759766,-81.91613006591797,78.00659942626953
0,325132,-19.759241104125977,-64.41641998291016,-41.72184371948242,-19.493566513061523
0,325134,-1.4165834188461304,59.4354248046875,-38.64860534667969,-7.249697685241699
0,325136,54.271087646484375,65.61183166503906,5.28148078918457,-42.71206283569336
0,325138,-16.49129867553711,35.92205810546875,120.5125732421875,-84.02039337158203
0,325140,-25.203493118286133,-15.758289337158203,-0.9584801197052002,119.5565414428711
0,325142,30.152849197387695,-77.6674575805664,-71.339599609375,67.12565612792969
0,325144,10.921501159667969,-29.652746200561523,-8.011012077331543,-27.41083335876465
0,325146,4.425930023193359,97.02470397949219,63.1187858581543,-51.95113754272461
0,325148,-11.838689804077148,70.41018676757812,75.31864929199219,-25.181537628173828
0,325150,-15.952044486999512,-105.13704681396484,-113.97467041015625,73.2984390258789
0,325152,-9.13298511505127,-108.4039077758789,-126.3034439086914,-44.37071990966797
0,325153,-6.31799840927124,18.396499633789062,57.83702087402344,-62.09746170043945
0,325156,34.67155456542969,128.48370361328125,146.67982482910156,64.11917877197266
0,325157,8.068228721618652,75.8260498046875,64.36959075927734,43.51389694213867
0,325160,-19.140642166137695,-102.51535034179688,-110.5374755859375,-26.372556686401367
0,325161,-11.2710542678833,-79.58895874023438,-94.33963012695312,-24.044849395751953
0,325164,-8.574182510375977,9.744954109191895,0.18096108734607697,2.5508792400360107
0,325165,20.696653366088867,89.92533111572266,57.281429290771484,29.301570892333984
0,325168,-14.794722557067871,44.151519775390625,85.69976043701172,23.368404388427734
0,325169,-25.99553680419922,-44.49972152709961,7.929860591888428,-2.9550797939300537
0,325172,19.37200927734375,-45.06997299194336,-130.8046875,-49.28492736816406
0,325173,1.4585200548171997,-76.61128997802734,-77.70979309082031,-148.83822631835938
0,325176,12.842488288879395,103.43934631347656,145.96823120117188,31.6622371673584
0,325177,29.48562240600586,122.24030303955078,104.40901947021484,245.41986083984375
0,325180,-26.066869735717773,-123.3096923828125,-90.83258056640625,-29.920452117919922
0,325183,-21.613309860229492,-97.087158203125,-97.53894805908203,-162.705810546875
0,325184,8.946102142333984,16.1402587890625,-1.4641143083572388,36.016273498535156
0,325185,3.038630723953247,83.19139099121094,59.59613037109375,75.46062469482422
0,325188,10.889189720153809,57.51176834106445,35.23798751831055,-0.8546983003616333
0,325189,-17.27359390258789,-98.9085922241211,-9.066683769226074,-31.170989990234375
0,325192,-15.05730152130127,-59.6840934753418,-29.740962982177734,-16.643171310424805
0,325193,48.949920654296875,37.108524322509766,-40.82014846801758,-8.601994514465332
0,325196,3.335517644882202,92.42977905273438,84.42011260986328,27.31397247314453
0,325197,-33.56529998779297,62.07670593261719,84.4844970703125,25.37691307067871
0,325200,-7.6106061935424805,-110.6892318725586,-100.69317626953125,-34.78541564941406
0,325201,-8.330060958862305,-83.05670928955078,-106.37238311767578,-42.746341705322266
0,325204,14.544501304626465,25.688257217407227,1.4744733572006226,5.686967849731445
0,325205,20.169832229614258,93.24830627441406,104.9691390991211,53.13444519042969
0,325208,14.714776992797852,72.48334503173828,96.08875274658203,30.412822723388672
0,325209,-19.786401748657227,-65.02446746826172,-55.47702407836914,-26.78246307373047
0,325212,-20.782894134521484,-91.3905258178711,-132.52418518066406,-43.326759338378906
0,325213,29.26521110534668,-18.161319732666016,-42.973995208740234,-12.768295288085938
0,325216,16.0148868560791,116.50578308105469,122.28488159179688,37.8809928894043
0,325217,-21.531320571899414,63.8007926940918,107.08963012695312,35.40769958496094
0,325220,-39.87851333618164,-111.43561553955078,-55.353885650634766,-54.76984786987305
0,325221,-0.616860032081604,-75.91000366210938,-102.53607940673828,5.384919166564941
0,325224,55.467472076416016,7.367434501647949,-37.85115432739258,67.03214263916016
0,325225,15.779175758361816,105.14460754394531,85.7294692993164,-67.5423583984375
0,325228,-64.41686248779297,67.9539566040039,71.94705200195312,-0.3172159790992737
0,325229,-12.748270988464355,-76.14622497558594,-27.290273666381836,77.64563751220703
0,325232,54.0446891784668,-91.52869415283203,-93.37184143066406,-66.37553405761719
0,325233,-1.5633020401000977,-10.392132759094238,-46.48670959472656,-175.4661407470703
0,325236,-18.504112243652344,113.99842071533203,128.031982421875,69.0190658569336
0,325237,-7.109347820281982,37.28150939941406,42.54770278930664,231.24220275878906
0,325240,-3.938140392303467,-93.20240020751953,-113.50257110595703,-57.05060577392578
0,325241,12.93871021270752,-52.316402435302734,-43.47355270385742,-57.66442108154297
0,325244,6.489901542663574,22.313295364379883,33.503055572509766,3.5800960063934326
0,325245,4.959667205810547,76.11692810058594,79.7947769165039,-40.761383056640625
0,325248,3.2865984439849854,42.06263732910156,72.59368896484375,83.30807495117188
0,325249,3.836696147918701,-42.44847106933594,-36.79996109008789,23.191818237304688
0,325252,2.353729724884033,-64.0621337890625,-100.72618103027344,-81.89076232910156
0,325253,-27.796865463256836,-36.0001106262207,-50.56752395629883,-11.402369499206543
0,325256,0.5278162956237793,96.23833465576172,99.85517120361328,14.2691068649292
0,325257,28.386606216430664,88.53224182128906,94.02786254882812,-18.246334075927734
0,325260,-26.302526473999023,-109.31697845458984,-80.39067840576172,-0.2630256116390228
0,325261,-19.368478775024414,-81.53606414794922,-106.38776397705078,-26.179224014282227
0,325264,25.221141815185547,33.232933044433594,-6.498053073883057,-19.866167068481445
0,325265,9.120749473571777,84.96138000488281,99.26041412353516,47.31686019897461
0,325268,2.5430221557617188,54.125179290771484,80.1735610961914,52.23630905151367
0,325269,-24.020837783813477,-80.87625885009766,-57.214229583740234,-17.79216194152832
0,325272,-22.98194694519043,-91.52867126464844,-106.7677993774414,-39.63508987426758
0,325273,30.850393295288086,0.0817810520529747,-0.5522996187210083,19.188478469848633
0,325276,12.072972297668457,112.37088012695312,96.7682113647461,48.34328079223633
0,325277,3.5907845497131348,61.580596923828125,31.294233322143555,9.099365234375
0,325280,-14.73388957977295,-97.05772399902344,-60.55113983154297,-60.92720031738281
0,325281,-22.82186508178711,-84.80176544189453,-67.96452331542969,-39.10605239868164
0,325284,28.790302276611328,23.177616119384766,3.24398136138916,45.279945373535156
0,325285,22.817035675048828,118.86249542236328,99.00016784667969,50.54658889770508
0,325288,-19.857572555541992,32.83395767211914,45.165794372558594,-41.3702507019043
0,325289,-11.039700508117676,-85.73638916015625,-58.00778579711914,-201.91433715820312
0,325292,8.545592308044434,-47.60740661621094,-87.43696594238281,53.17914962768555
0,325293,-8.853683471679688,5.5301594734191895,-25.384668350219727,287.3165283203125
0,325296,7.029469013214111,66.74354553222656,123.90422058105469,-67.27738952636719
0,325297,13.932195663452148,44.86430358886719,60.2917594909668,-95.3475341796875
0,325300,-5.750797748565674,-58.06178283691406,-84.54833221435547,41.73237228393555
0,325301,-0.049480944871902466,-70.0047378540039,-59.97782516479492,-32.477622985839844
0,325304,-13.625665664672852,-13.7044038772583,-10.13151741027832,-13.67580795288086
0,325305,-5.427817344665527,105.21875762939453,81.4974594116211,36.22561264038086
0,325308,23.817119598388672,61.50506591796875,53.74913024902344,33.899776458740234
0,325309,-5.411914348602295,-115.11489868164062,-57.64030838012695,-27.945045471191406
0,325312,-13.873616218566895,-53.147891998291016,-52.06199645996094,-14.92170238494873
0,325313,0.027373572811484337,16.90790557861328,-20.025941848754883,1.1142170429229736
0,325316,7.32118558883667,90.30707550048828,93.78266906738281,-4.007526874542236
0,325317,11.989631652832031,80.3575210571289,62.160980224609375,17.720603942871094
0,325320,-19.013891220092773,-115.78300476074219,-80.44480895996094,-23.255685806274414
0,325321,-42.44914245605469,-93.13617706298828,-69.26163482666016,-25.51424217224121
0,325324,22.770612716674805,18.398361206054688,-24.054052352905273,5.0997419357299805
0,325325,41.286834716796875,94.84242248535156,74.6839828491211,-81.00462341308594
0,325328,-2.771728038787842,67.5214614868164,76.7823486328125,38.92711639404297
0,325329,2.735858917236328,-65.30665588378906,-24.08678436279297,230.45071411132812
0,325332,-10.655742645263672,-71.48248291015625,-98.45972442626953,-51.76950454711914
0,325333,-1.3844794034957886,-22.334489822387695,-41.22279739379883,-169.0823516845703
0,325336,2.234672784805298,94.44692993164062,103.49620819091797,40.42521667480469
0,325337,17.52240562438965,89.958251953125,64.44686126708984,39.12376022338867
0,325340,8.095094680786133,-103.56214141845703,-45.47386932373047,-46.98198318481445
0,325341,-50.11909103393555,-74.7036361694336,-89.21480560302734,-40.11792755126953
0,325344,2.4857027530670166,53.47532272338867,-27.81679344177246,47.55601501464844
0,325345,50.20287322998047,60.0215950012207,82.94084167480469,41.52939224243164
0,325348,-26.257083892822266,4.326556205749512,57.18461608886719,-18.866762161254883
0,325349,-61.40748596191406,-64.12281799316406,-32.04720687866211,-22.16168975830078
0,325352,8.425694465637207,-47.677730560302734,-66.94294738769531,-7.236039638519287
0,325353,49.98320770263672,-12.479992866516113,-41.9306640625,4.922542572021484
0,325356,16.670595169067383,107.56244659423828,97.93842315673828,22.801795959472656
0,325357,-13.095330238342285,85.73656463623047,90.72266387939453,-7.4867658615112305
0,325360,-22.82318878173828,-126.6176986694336,-88.36589050292969,-27.511133193969727
0,325361,-4.705997943878174,-67.23623657226562,-75.50001525878906,22.858348846435547
0,325364,14.115958213806152,22.971641540527344,20.20309829711914,36.56690979003906
0,325366,13.47777271270752,59.406272888183594,76.9271469116211,22.931026458740234
0,325368,-22.04627227783203,37.28363037109375,27.10015869140625,-23.074359893798828
0,325370,-20.64818000793457,-63.31633758544922,-74.38460540771484,-40.251007080078125
0,325372,41.486324310302734,-41.06820297241211,-50.1336669921875,4.407461643218994
0,325374,1.675714373588562,-12.687163352966309,-8.603191375732422,-16.713199615478516
0,325375,-20.972797393798828,90.40946960449219,53.172218322753906,-5.929775238037109
0,325378,7.749020576477051,73.08540344238281,82.12733459472656,42.75465393066406
0,325379,5.726733207702637,-88.10462951660156,-22.116628646850586,0.13991889357566833
0,325382,4.443418979644775,-74.98778533935547,-101.18212890625,-26.566152572631836
0,325383,6.753424644470215,20.94698143005371,-22.38834571838379,2.7270760536193848
0,325386,14.944755554199219,90.60910034179688,90.3267593383789,39.80568313598633
0,325387,-18.288602828979492,67.88029479980469,69.39701080322266,-7.808381080627441
0,325390,-18.716428756713867,-78.63123321533203,-64.64470672607422,-50.409698486328125
0,325391,-3.4692223072052,-75.39249420166016,-63.96792221069336,-0.7157775163650513
0,325394,-4.707762718200684,14.81192684173584,-1.6599891185760498,42.85935974121094
0,325395,30.040206909179688,34.46909713745117,29.651432037353516,40.34743118286133
0,325398,8.877838134765625,58.1375732421875,88.13017272949219,-43.96385955810547
0,325399,-27.74555206298828,-48.80301284790039,-16.68898582458496,-2.119826316833496
0,325402,-12.49110221862793,-96.4831314086914,-103.18208312988281,16.326648712158203
0,325403,10.421219825744629,19.943323135375977,-30.06148338317871,-153.1011962890625
0,325406,15.269038200378418,104.97257995605469,110.323486328125,37.90052795410156
0,325407,5.249853134155273,44.95875930786133,101.04925537109375,200.943115234375
0,325410,-16.775821685791016,-100.34329223632812,-106.95790100097656,-29.208019256591797
0,325411,-12.29495906829834,-63.40788650512695,-90.76249694824219,-94.14625549316406
0,325414,25.387107849121094,20.940256118774414,22.518024444580078,-47.34467697143555
0,325415,7.895201206207275,67.63833618164062,45.590641021728516,20.999706268310547
0,325418,-14.207894325256348,70.88133239746094,67.23283386230469,57.70980453491211
0,325419,-10.598698616027832,-78.90807342529297,-54.02742385864258,20.127330780029297
0,325422,-11.917040824890137,-77.81815338134766,-106.7603988647461,-25.69403076171875
0,325423,6.469851970672607,23.502317428588867,0.055332913994789124,-53.01013946533203
0,325426,15.381579399108887,87.25729370117188,101.88822174072266,23.62727928161621
0,325427,14.224761962890625,80.92320251464844,110.04116821289062,45.35621643066406
0,325430,8.295201301574707,-89.79153442382812,-82.61809539794922,-22.91792869567871
0,325431,-39.590206146240234,-98.9491195678711,-119.14892578125,-62.96652603149414
0,325434,-9.074350357055664,25.501636505126953,11.967838287353516,-1.9700044393539429
0,325435,37.46811294555664,58.05646896362305,59.42784881591797,76.64322662353516
0,325438,-14.363423347473145,42.74818801879883,104.24996948242188,31.00213050842285
0,325439,-15.800618171691895,-34.94274139404297,-11.154170989990234,-28.16684341430664
0,325442,8.169404983520508,-72.79743194580078,-116.16312408447266,-28.02593421936035
0,325443,12.160452842712402,-29.475048065185547,-48.49409484863281,7.873945236206055
0,325446,25.125112533569336,91.21183013916016,81.72139739990234,23.71507453918457
0,325447,-0.47318020462989807,108.64726257324219,109.79224395751953,9.327932357788086
0,325450,-31.253826141357422,-111.44258880615234,-84.20622253417969,-21.8978328704834
0,325451,-30.16631507873535,-104.11663818359375,-100.46733856201172,-34.18647384643555
0,325454,0.9524366855621338,55.044288635253906,12.112029075622559,10.21994400024414
0,325455,47.942291259765625,56.54172897338867,37.956756591796875,23.03614616394043
0,325458,11.864980697631836,52.9572639465332,93.33058166503906,5.346061706542969
0,325459,-15.833027839660645,-42.460182189941406,-3.216439962387085,-14.90478229522705
0,325462,-21.100536346435547,-98.97917938232422,-103.8809585571289,-26.085214614868164
0,325463,-28.5244083404541,-9.01264476776123,-48.64850616455078,-8.221572875976562
0,325466,29.232820510864258,109.90386199951172,77.95699310302734,61.33863067626953
0,325467,36.020233154296875,87.91197204589844,114.48420715332031,37.94905471801758
0,325470,-15.775659561157227,-109.07382202148438,-72.61551666259766,-85.05565643310547
0,325471,-20.3800106048584,-89.2276840209961,-107.16527557373047,-35.357242584228516
0,325474,12.444001197814941,32.92616653442383,21.764041900634766,37.545654296875
0,325475,-3.9184160232543945,78.1168212890625,53.05813217163086,8.522505760192871
0,325478,4.104101657867432,67.18513488769531,55.361759185791016,13.80645751953125
0,325479,15.465271949768066,-71.60354614257812,-13.310400009155273,15.99933910369873
0,325482,-25.637348175048828,-100.02024841308594,-82.88043975830078,-10.545976638793945
0,325483,-2.6646792888641357,5.598756790161133,-43.30774688720703,-10.46642780303955
0,325486,24.589929580688477,114.90052032470703,75.05801391601562,29.435108184814453
0,325487,0.010286875069141388,72.04729461669922,117.03975677490234,-7.7718424797058105
0,325490,-38.89669418334961,-117.09718322753906,-63.73191452026367,-71.3012924194336
0,325491,-6.979568958282471,-95.02261352539062,-125.99665832519531,-1.3043745756149292
0,325494,33.234535217285156,48.784332275390625,21.06639862060547,63.7273063659668
0,325495,1.1543766260147095,83.48417663574219,85.33348846435547,14.636883735656738
0,325498,-16.647483825683594,29.849668502807617,61.7293701171875,-10.500146865844727
0,325499,-8.195294380187988,-47.71452713012695,-41.01047897338867,-22.964895248413086
0,325502,39.10761260986328,-58.404666900634766,-102.18709564208984,-19.09328842163086
0,325503,21.44948959350586,-16.478612899780273,-24.69295310974121,2.3922345638275146
0,325506,-46.303489685058594,75.64704132080078,95.30570983886719,3.928375720977783
0,325507,-22.67609214782715,62.59063720703125,94.86512756347656,34.725582122802734
0,325510,25.209096908569336,-83.64962768554688,-83.98092651367188,-5.725018501281738
0,325511,10.394598960876465,-63.173683166503906,-90.45108032226562,-29.214059829711914
0,325514,-0.059228476136922836,35.738853454589844,23.559757232666016,36.54780578613281
0,325515,23.51874542236328,51.731876373291016,44.903480529785156,-0.35386931896209717
0,325518,-11.275774002075195,52.40019226074219,62.7841911315918,-25.098772048950195
0,325519,-46.0298957824707,-41.14711380004883,-42.37556838989258,2.7565927505493164
0,325522,-6.2665581703186035,-98.32794189453125,-99.69391632080078,6.0548248291015625
0,325523,28.41482925415039,-7.756256580352783,-12.670564651489258,17.797239303588867
0,325526,19.29425621032715,101.97438049316406,87.60257720947266,-18.49286460876465
0,325527,-7.689015865325928,70.01908111572266,96.79119110107422,-8.312453269958496
0,325530,-15.50717830657959,-91.77472686767578,-76.82686614990234,24.90142059326172
0,325531,-0.33405759930610657,-83.63481903076172,-86.90394592285156,-6.307880401611328
0,325534,16.467201232910156,30.684743881225586,10.072843551635742,-24.518272399902344
0,325535,7.3694963455200195,76.00834655761719,56.58663558959961,24.298912048339844
0,325538,-32.06084442138672,34.08216094970703,99.85260772705078,-8.863398551940918
0,325539,-2.8667144775390625,-58.69178771972656,-29.54298210144043,-52.69763946533203
0,325542,37.62602233886719,-58.61592102050781,-113.81855010986328,36.682594299316406
0,325543,-6.059987545013428,-33.22977066040039,-46.460784912109375,33.69384765625
0,325546,-13.512399673461914,75.53553009033203,89.88368225097656,-0.5891807079315186
0,325547,3.662545680999756,111.83001708984375,106.58531188964844,18.673425674438477
0,325550,-16.757652282714844,-91.87642669677734,-93.64813232421875,-44.938232421875
0,325551,5.750746726989746,-106.13240814208984,-94.80303955078125,-32.91202163696289
0,325554,31.60708236694336,54.001747131347656,33.59656524658203,40.9765739440918
0,325555,-10.452600479125977,104.01966857910156,67.13093566894531,7.8851776123046875
0,325558,-21.927677154541016,18.75339698791504,66.15045166015625,-19.39084243774414
0,325559,-0.015376339666545391,-92.75982666015625,-46.821922302246094,-0.29986572265625
0,325562,9.365971565246582,-38.100284576416016,-85.93008422851562,17.695533752441406
0,325564,3.1292479038238525,3.537208080291748,-21.10213279724121,-16.337459564208984
0,325566,8.42620849609375,54.35466003417969,65.72488403320312,-11.35271167755127
0,325568,18.001739501953125,77.21048736572266,87.53701782226562,42.145416259765625
0,325570,-27.876842498779297,-85.8344497680664,-70.28514099121094,-10.888362884521484
0,325572,-18.785253524780273,-75.84136199951172,-72.5311279296875,-9.144801139831543
1,325576,39.1169319152832,111.98912048339844,69.04365539550781,30.25579833984375
1,325576,16.64748191833496,88.86148834228516,54.462955474853516,-20.50424575805664
1,325577,-5.098426342010498,-76.33661651611328,-11.154732704162598,-88.969482421875
1,325580,-40.655487060546875,-82.97260284423828,-45.14944839477539,17.957046508789062
1,325581,-46.04847717285156,-30.55916976928711,-75.24042510986328,124.34860229492188
1,325584,42.60378646850586,12.632760047912598,-4.525299072265625,-29.948427200317383
1,325585,32.26776123046875,94.37207794189453,85.86932373046875,-37.991458892822266
1,325588,-22.56421661376953,13.566191673278809,19.8444766998291,9.226075172424316
1,325589,-17.872905731201172,-94.97080993652344,-47.62163162231445,-38.30744934082031
1,325592,9.854736328125,-35.06477355957031,-42.85490798950195,-1.5034223794937134
1,325593,27.85807991027832,12.82929515838623,-6.608626842498779,26.484975814819336
1,325596,-8.235020637512207,94.14566040039062,117.4728012084961,51.258567810058594
1,325597,-37.51412582397461,62.40890884399414,63.476627349853516,18.986595153808594
1,325600,11.842406272888184,-74.714111328125,-88.598876953125,-47.3508186340332
1,325601,20.604679107666016,-68.93895721435547,-75.6504898071289,-26.2559814453125
1,325604,5.021157264709473,16.92920684814453,-26.11836051940918,-7.447636604309082
1,325605,26.9533634185791,93.50669860839844,90.93272399902344,10.122903823852539
1,325608,-19.198116302490234,2.2966012954711914,79.21360778808594,19.790279388427734
1,325609,-36.36258316040039,-88.28782653808594,-78.19271087646484,-14.356847763061523
1,325612,-5.590817451477051,-69.6980209350586,-115.61711120605469,-25.633054733276367
1,325613,4.950118064880371,5.18787145614624,-27.111791610717773,-7.328218936920166
1,325616,10.216711044311523,145.9272918701172,152.50086975097656,55.87997055053711
1,325617,11.839397430419922,42.53007507324219,99.03546905517578,31.321104049682617
1,325620,13.853760719299316,-112.62702178955078,-100.81193542480469,-29.288747787475586
1,325621,-6.434067726135254,-40.38083267211914,-73.11199188232422,-19.171266555786133
1,325624,-15.456920623779297,20.746431350708008,1.3161170482635498,-42.26292037963867
1,325625,21.296457290649414,78.79144287109375,71.80536651611328,13.65060806274414
1,325628,-8.931501388549805,13.434187889099121,42.40810775756836,57.326900482177734
1,325629,-34.44464874267578,-93.37223052978516,-61.43461227416992,-15.983259201049805
1,325632,24.339746475219727,-34.39847946166992,-63.57431411743164,-22.245939254760742
1,325633,7.553783416748047,26.264179229736328,-22.175201416015625,-8.335614204406738
1,325636,1.6765021085739136,103.83439636230469,105.35271453857422,42.075008392333984
1,325637,21.003131866455078,35.764488220214844,59.1642951965332,19.329442977905273
1,325640,-20.591402053833008,-108.5087661743164,-82.24685668945312,-98.78916931152344
1,325641,-34.219520568847656,-65.00260162353516,-50.7117919921875,4.571108341217041
1,325644,11.724751472473145,34.46712875366211,4.596730709075928,83.86003875732422
1,325645,45.369869232177734,111.35513305664062,80.40036010742188,11.901126861572266
1,325648,-20.023405075073242,-5.103060722351074,34.99158477783203,-37.61520004272461
1,325649,-38.066200256347656,-106.65167236328125,-69.46769714355469,-29.504920959472656
1,325652,32.48173522949219,-20.814712524414062,-77.51515197753906,6.047403335571289
1,325653,10.554353713989258,16.835155487060547,-9.692906379699707,-18.224634170532227
1,325656,-18.782859802246094,105.06404876708984,150.86793518066406,29.371498107910156
1,325657,-1.490547776222229,45.91899108886719,53.336952209472656,31.45981216430664
1,325660,-4.344924449920654,-126.44113159179688,-138.84442138671875,-39.34040451049805
1,325661,-12.487419128417969,-63.757564544677734,-71.03534698486328,-17.965560913085938
1,325664,11.486114501953125,69.68193054199219,38.2689208984375,39.13929748535156
1,325665,48.85853576660156,108.85585021972656,100.72456359863281,30.7640380859375
1,325668,-19.894113540649414,-36.18353271484375,10.7677640914917,-136.4540252685547
1,325669,-48.54540252685547,-114.36624145507812,-90.61668395996094,-28.776830673217773
1,325672,24.12183952331543,-7.839690685272217,-30.085994720458984,194.19973754882812
1,325673,10.321941375732422,6.15059757232666,-0.9080536961555481,-5.938241481781006
1,325676,-4.88015604019165,100.3842544555664,91.57736206054688,-69.2696304321289
1,325677,11.001792907714844,76.570556640625,86.65325164794922,35.14258575439453
1,325680,-9.374547958374023,-136.69493103027344,-102.70076751708984,-11.915287017822266
1,325681,-24.7786922454834,-85.91259002685547,-96.87777709960938,-33.230743408203125
1,325684,11.483155250549316,72.5554428100586,27.23030662536621,4.705174922943115
1,325685,43.73099899291992,118.75279235839844,118.68257141113281,58.635257720947266
1,325688,3.73233962059021,-8.40356159210205,20.999374389648438,-6.76296854019165
1,325689,-32.66980743408203,-101.35108184814453,-89.26031494140625,-67.701416015625
1,325692,-3.144183874130249,-37.5751838684082,-33.66234588623047,8.530695915222168
1,325693,12.3443021774292,-2.9405622482299805,-41.8626823425293,9.846975326538086
1,325696,-16.590538024902344,109.853759765625,88.8660659790039,-0.24858097732067108
1,325697,-21.487247467041016,48.705814361572266,87.3706283569336,12.090600967407227
1,325700,24.755428314208984,-104.09902954101562,-108.35597229003906,-0.4662131369113922
1,325701,22.583711624145508,-39.82646942138672,-44.09196472167969,28.145931243896484
1,325704,-29.359586715698242,12.006324768066406,27.87587547302246,-43.52204895019531
1,325705,-8.277763366699219,85.14916229248047,54.56131362915039,-35.14348602294922
1,325708,8.671628952026367,10.94271183013916,31.51589584350586,49.91551971435547
1,325963,19.298290252685547,-22.308332443237305,10.943345069885254,66.92410278320312
1,325966,1.564560055732727,21.690217971801758,2.952209234237671,2.29463529586792
1,325967,-44.75876235961914,-111.95246124267578,-109.25776672363281,-105.58873748779297
1,325970,17.854482650756836,-25.77228355407715,-39.63936233520508,-4.1997551918029785
1,327275,60.530006408691406,96.69206237792969,77.50009155273438,24.663944244384766
1,327275,-34.597103118896484,1.8894070386886597,5.516998767852783,-29.67064094543457
1,327278,-38.528831481933594,-86.95521545410156,-65.44144439697266,23.754976272583008
1,327279,27.633277893066406,-35.18521499633789,-25.132070541381836,9.3405122756958
1,327282,24.402456283569336,82.53661346435547,28.365894317626953,-11.208295822143555
1,327283,32.31437683105469,130.85369873046875,118.24913024902344,38.73868179321289
1,327286,-34.95296859741211,0.18441708385944366,62.2214241027832,27.67181396484375
1,327287,-73.77363586425781,-121.4120101928711,-80.02323913574219,-42.818260192871094
1,327290,11.7710542678833,-41.330360412597656,-77.49183654785156,-30.484140396118164
1,327291,45.05295181274414,-7.710877418518066,-49.45253372192383,6.919002532958984
1,327294,12.797000885009766,42.511043548583984,61.8428840637207,19.73394203186035
1,327295,-8.483433723449707,66.28924560546875,68.424560546875,24.319896697998047
1,327298,-14.40843391418457,-74.04009246826172,-68.43229675292969,-7.482763767242432
1,327299,-3.789086103439331,-59.81528854370117,-59.14794921875,-51.29645538330078
1,327302,21.610803604125977,87.30616760253906,57.07910919189453,17.11201286315918
1,327303,5.1103434562683105,105.5899658203125,118.36373901367188,70.49600982666016
1,327306,-22.73264503479004,-23.326982498168945,8.375568389892578,-30.290725708007812
1,327307,-15.104235649108887,-99.83374786376953,-72.84123992919922,-28.73815155029297
1,327310,12.29151725769043,-55.99821090698242,-87.09834289550781,9.089067459106445
1,327311,8.664555549621582,6.134035110473633,-52.639766693115234,-34.46175003051758
1,327314,-5.575226306915283,107.20164489746094,127.5196533203125,29.51479148864746
1,327315,25.952167510986328,42.184059143066406,70.4410629272461,36.891090393066406
1,327318,-9.509061813354492,-114.44978332519531,-120.90765380859375,-53.61463928222656
1,327319,-46.677894592285156,-57.258399963378906,-62.6178092956543,-3.8106870651245117
1,327322,28.42949867248535,68.4111557006836,71.45040130615234,39.945350646972656
1,327323,31.094106674194336,78.73484802246094,108.8257064819336,5.452771186828613
1,327326,-37.901771545410156,-2.302898406982422,1.9097052812576294,-6.973867893218994
1,327327,-9.530680656433105,-49.28665542602539,-82.43215942382812,-25.448911666870117
1,327330,28.064720153808594,-55.41196060180664,-58.661598205566406,-18.275514602661133
1,327331,5.510792255401611,-6.640391826629639,-30.45533561706543,6.759581565856934
1,327334,10.455223083496094,96.20263671875,112.8964614868164,22.65789222717285
1,327335,-6.809755802154541,27.913904190063477,90.93330383300781,26.106124877929688
1,327338,-22.781267166137695,-104.46310424804688,-108.65727996826172,-13.469039916992188
1,327339,17.845970153808594,-49.29182052612305,-85.54850006103516,-23.76302146911621
1,327342,-3.8016631603240967,46.91706085205078,23.521209716796875,-0.39204561710357666
1,327343,-13.82667064666748,106.05323028564453,77.14248657226562,11.647525787353516
1,327346,10.526725769042969,16.437952041625977,40.5406494140625,16.522384643554688
1,327347,0.9134480357170105,-92.52320098876953,-43.3324089050293,2.2733559608459473
1,327350,-15.931103706359863,-59.91754913330078,-91.67832946777344,-22.97784996032715
1,327351,-7.167377471923828,-10.834020614624023,-22.948410034179688,-43.315040588378906
1,327354,30.99243927001953,140.880126953125,138.16079711914062,45.248252868652344
1,327355,13.961806297302246,62.59043884277344,61.449119567871094,50.986080169677734
1,327358,-36.655609130859375,-151.77381896972656,-111.10523986816406,-59.93872833251953
1,327359,-28.61009979248047,-61.6201171875,-85.03302001953125,-19.826356887817383
1,327362,41.419071197509766,63.275787353515625,16.705921173095703,28.0058650970459
1,327363,36.47348403930664,87.74028015136719,113.41459655761719,21.196439743041992
1,327366,-56.33586120605469,-12.934822082519531,50.81447982788086,-6.495296001434326
1,327367,2.315305471420288,-84.45584106445312,-63.683685302734375,-22.776575088500977
1,327370,64.717529296875,-31.402084350585938,-92.00057983398438,3.9854841232299805
1,327371,-51.132511138916016,14.473627090454102,-61.246131896972656,-23.755521774291992
1,327374,-21.644145965576172,109.97578430175781,130.85556030273438,38.157928466796875
1,327375,37.23002624511719,26.540294647216797,124.35384368896484,54.18549346923828
1,327378,-27.797225952148438,-119.87055206298828,-104.58625793457031,-62.621612548828125
1,327379,-14.801971435546875,-44.91311264038086,-125.95964813232422,-45.807003021240234
1,327382,11.922042846679688,45.58111572265625,49.236045837402344,16.584848403930664
1,327383,33.51354217529297,93.40824890136719,132.49761962890625,44.376190185546875
1,327386,0.8592066764831543,8.458053588867188,-11.281350135803223,4.10247802734375
1,327387,-33.79341506958008,-102.45350646972656,-70.51766967773438,-29.25103759765625
1,327390,12.15727424621582,-21.44776725769043,-46.06486129760742,10.787737846374512
1,327391,19.884132385253906,27.506460189819336,-38.81071472167969,-5.679476737976074
1,327394,4.137540340423584,55.114830017089844,114.6572036743164,7.884081840515137
1,327396,-8.060432434082031,32.4591178894043,77.81880187988281,3.5149929523468018
1,327398,-30.412471771240234,-72.20803833007812,-129.30870056152344,-39.900840759277344
1,327400,-4.5875630378723145,-38.50908279418945,-76.48743438720703,58.99972915649414
1,327402,31.315670013427734,27.515840530395508,69.6326675415039,39.200225830078125
1,327404,13.396669387817383,75.37659454345703,100.90142822265625,-65.77084350585938
1,327406,-14.82851791381836,19.297687530517578,-6.438372611999512,-44.97764587402344
1,327408,-31.858983993530273,-78.44464874267578,-86.95600128173828,9.4505615234375
1,327410,7.868208408355713,-34.454158782958984,-39.20931625366211,53.03215026855469
1,327412,19.438541412353516,12.65617561340332,-4.808021068572998,-6.997733116149902
1,327414,-10.262843132019043,67.4195785522461,92.56657409667969,6.712123394012451
1,327416,34.64276885986328,21.288280487060547,78.40470886230469,30.51448631286621
1,327418,9.650806427001953,-88.64349365234375,-98.14598846435547,-43.642555236816406
1,327420,-53.306365966796875,-52.178863525390625,-88.79817199707031,-56.66427230834961
1,327421,8.395289421081543,23.551450729370117,9.572205543518066,10.197524070739746
1,327424,23.48012924194336,100.43760681152344,90.26419067382812,79.53950500488281
1,327425,-20.057083129882812,50.519901275634766,103.05115509033203,18.17084312438965
1,327428,5.428187847137451,-95.6693344116211,-85.49905395507812,-45.24847412109375
1,327429,10.036104202270508,-52.88824462890625,-106.6279067993164,-5.028604984283447
1,327432,-6.852714538574219,25.993770599365234,32.44835662841797,-19.54149627685547
1,327435,3.792722225189209,68.65701293945312,68.24175262451172,-10.518939018249512
1,327436,-8.320053100585938,37.33696365356445,38.82307052612305,38.97571563720703
1,327437,-7.17112922668457,-83.5546875,-60.63865661621094,-8.64453411102295
1,327440,4.0070881843566895,-56.08122634887695,-84.92131042480469,-25.62279510498047
1,327441,17.51713752746582,16.858057022094727,-7.772405624389648,13.02961254119873
1,327444,5.593069553375244,89.13744354248047,93.0228500366211,10.530730247497559
1,327445,-26.857152938842773,55.58838653564453,62.185787200927734,17.398880004882812
1,327448,-6.990701675415039,-114.56380462646484,-71.40914916992188,-1.5622433423995972
1,327449,-6.959452152252197,-83.88806915283203,-64.17707824707031,-65.61991119384766
1,327452,15.585428237915039,63.10224914550781,39.872493743896484,-6.66428804397583
1,327453,25.397659301757812,74.45907592773438,58.3267936706543,72.68305206298828
1,327456,-18.81730842590332,17.489328384399414,11.840706825256348,16.896862030029297
1,327457,0.5328595638275146,-50.250518798828125,-26.0362606048584,-23.891572952270508
1,327460,12.168800354003906,-56.80571365356445,-53.632911682128906,-27.159339904785156
1,327461,-8.050774574279785,-2.754014253616333,-27.076385498046875,-7.932097911834717
1,327464,0.9969796538352966,82.28377532958984,87.14423370361328,33.133358001708984
1,327465,0.09395460784435272,68.99309539794922,90.66471099853516,31.211589813232422
1,327468,-16.26600456237793,-101.35115814208984,-106.95622253417969,-23.76732635498047
1,327469,11.496366500854492,-83.93087005615234,-104.95436096191406,-37.68606948852539
1,327472,27.482585906982422,69.54053497314453,30.08917236328125,16.1085262298584
1,327473,-1.6690739393234253,72.4873046875,80.63372802734375,11.831664085388184
1,327476,-23.548635482788086,-10.752850532531738,80.17401885986328,-5.533712387084961
1,327477,-36.22264862060547,-40.55990219116211,-69.85923767089844,-17.876968383789062
1,327480,3.3749852180480957,-57.05580139160156,-115.46843719482422,-9.42353630065918
1,327481,38.397682189941406,-9.119621276855469,2.795991897583008,24.65938949584961
1,327484,13.74481201171875,120.27206420898438,114.0507583618164,39.811702728271484
1,327485,-20.58635139465332,36.63264846801758,102.80979919433594,23.431066513061523
1,327488,3.2289681434631348,-120.32788848876953,-122.61312866210938,-61.15945816040039
1,327489,25.359861373901367,-33.62504959106445,-120.7482681274414,-26.81839942932129
1,327492,-32.17293167114258,61.16069793701172,95.43952941894531,40.307167053222656
1,327493,-18.244285583496094,49.379451751708984,89.59147644042969,-3.204570770263672
1,327496,-3.8544540405273438,-17.3741455078125,-16.910797119140625,-41.45423889160156
1,327497,-19.415523529052734,-83.95095825195312,-69.13690948486328,-43.05185317993164
1,327500,14.234256744384766,-28.75113296508789,-55.94075393676758,31.513425827026367
1,327501,43.778602600097656,53.708309173583984,3.592733860015869,56.05438995361328
1,327504,33.706016540527344,102.21399688720703,107.7804183959961,12.462881088256836
1,327505,-36.02244567871094,10.632258415222168,70.21781158447266,2.2591552734375
1,327508,-22.634557723999023,-118.92314910888672,-113.16988372802734,-14.806004524230957
1,327509,5.147886276245117,-61.09656524658203,-93.93824768066406,-39.965999603271484
1,327512,-12.357389450073242,49.38809585571289,43.1558837890625,1.2210917472839355
1,327513,16.624534606933594,99.51629638671875,84.57682037353516,43.58623123168945
1,327516,41.66153335571289,60.53339767456055,64.20056915283203,30.163219451904297
1,327517,-6.961525917053223,-86.44913482666016,-39.354373931884766,22.329696655273438
1,327520,-32.133445739746094,-127.46040344238281,-125.44027709960938,-39.85266876220703
1,327521,-5.074803829193115,26.30340576171875,-34.29295349121094,-76.5296401977539
1,327524,-17.221134185791016,140.60533142089844,127.58304595947266,13.90131664276123
1,327525,-19.41796875,30.09040069580078,82.37910461425781,3.4515931606292725
1,327528,-23.177963256835938,-157.05128479003906,-116.89025115966797,-62.305564880371094
1,327529,9.586969375610352,-85.63716888427734,-70.72611999511719,44.51968002319336
1,327532,102.41964721679688,126.12120819091797,86.79598236083984,111.61141204833984
1,327533,38.060611724853516,131.81031799316406,48.4736213684082,18.9322566986084
1,327536,-74.74610137939453,-34.81830596923828,-9.41539478302002,-64.85783386230469
1,327537,-11.982128143310547,-84.56101989746094,-36.502647399902344,-39.54664611816406
1,327540,-16.433395385742188,-56.08882522583008,-83.70909881591797,-6.698878288269043
1,327541,-11.060969352722168,-27.349504470825195,-3.5547542572021484,6.000210285186768
1,327544,55.32670593261719,113.27056884765625,122.16139221191406,51.86932373046875
1,327545,-0.7914423942565918,93.02930450439453,63.07001876831055,2.8249776363372803
1,327548,-22.223134994506836,-109.1293716430664,-105.85513305664062,-49.62759780883789
1,327549,-10.329121589660645,-102.80677032470703,-93.26001739501953,-30.698997497558594
1,327552,-0.5274556279182434,64.8782958984375,51.90955352783203,33.793697357177734
1,327553,19.38300323486328,98.25717163085938,90.97636413574219,72.9595947265625
1,327556,-6.23983097076416,-20.044836044311523,2.886275291442871,-24.015771865844727
1,327557,-3.3641507625579834,-63.351497650146484,-58.5574836730957,-55.20274353027344
1,327560,-6.7989301681518555,-28.74281883239746,-44.35920333862305,-19.57723617553711
1,327561,-8.349434852600098,-3.695410966873169,-18.103944778442383,-11.741329193115234
1,327564,29.218883514404297,94.74317169189453,107.14765167236328,36.96984100341797
1,327565,6.091435432434082,37.40275955200195,70.42292022705078,66.5295181274414
1,327568,-25.05215835571289,-93.91173553466797,-114.14244842529297,-21.24951934814453
1,327569,-25.8255672454834,-23.002748489379883,-73.07454681396484,-77.8480453491211
1,327572,17.243864059448242,39.217708587646484,50.81730270385742,11.450631141662598
1,327573,15.507801055908203,55.560081481933594,79.88993072509766,32.80604553222656
1,327576,-34.674598693847656,-32.9560661315918,3.113246202468872,5.442285060882568
1,327577,18.41704750061035,-88.87016296386719,-70.1509780883789,33.925987243652344
1,327580,17.63408851623535,-5.475514888763428,-66.53694915771484,-22.499771118164062
1,327582,-2.8921685218811035,31.12259292602539,8.139335632324219,-41.61713790893555
1,327584,21.916460037231445,75.13665771484375,120.31781005859375,48.639320373535156
1,327586,-29.02376365661621,35.28083419799805,46.4629020690918,1.5276684761047363
1,327588,-19.439912796020508,-93.07071685791016,-121.89424133300781,-43.31160354614258
1,327590,27.771320343017578,-74.80078125,-59.8930778503418,49.363460540771484
1,327592,9.830134391784668,65.19896697998047,75.50131225585938,0.23179183900356293
1,327594,-12.659258842468262,80.88768005371094,72.44617462158203,-82.00282287597656
1,327596,-6.390714168548584,-12.812515258789062,6.781050682067871,32.447181701660156
1,327598,0.789616584777832,-57.66453170776367,-67.58707427978516,36.87257385253906
1,327600,-16.695688247680664,-45.10056686401367,-78.62098693847656,-48.981842041015625
1,327602,15.41631031036377,23.436840057373047,21.294063568115234,20.8607120513916
1,327604,30.555402755737305,83.32518005371094,104.87078094482422,50.76278305053711
1,327606,-6.763483047485352,16.05400276184082,34.02573776245117,-0.22844929993152618
1,327607,-20.69178009033203,-62.36779022216797,-77.38373565673828,-43.073486328125
1,327610,-4.750280380249023,-52.74859619140625,-109.8290786743164,-24.080055236816406
1,327611,-5.979522228240967,-17.028532028198242,-12.153404235839844,-23.449573516845703
1,327614,-1.7558584213256836,106.309814453125,165.5303497314453,23.087984085083008
1,327615,11.527656555175781,54.017662048339844,76.03959655761719,57.81801223754883
1,327618,-3.432241439819336,-91.04922485351562,-106.31798553466797,-35.2877082824707
1,327619,15.389877319335938,-28.364418029785156,-58.136322021484375,5.81152868270874
1,327622,0.1140381470322609,-1.746532917022705,12.258989334106445,12.061039924621582
1,327623,-0.303163081407547,73.59203338623047,71.18207550048828,11.892824172973633
1,327626,2.042520523071289,29.977588653564453,23.894033432006836,2.0653085708618164
1,327627,-28.970903396606445,-100.03601837158203,-80.37712097167969,-66.2191390991211
1,327630,4.437460422515869,-37.04234313964844,-53.1306037902832,-5.990078926086426
1,327631,13.439746856689453,43.86741256713867,14.273591041564941,61.142967224121094
1,327634,12.936775207519531,101.54132080078125,96.99322509765625,56.58561706542969
1,327635,-14.632018089294434,-36.70408630371094,19.037324905395508,-71.74317932128906
1,327638,-28.846214294433594,-127.23396301269531,-82.00477600097656,-44.76806640625
1,327639,34.65500259399414,17.187541961669922,-36.880821228027344,79.96361541748047
1,327642,7.591037273406982,78.76829528808594,17.99196434020996,-16.923805236816406
1,327643,-15.078378677368164,63.10380554199219,94.38107299804688,-61.20404815673828
1,327646,5.760319709777832,-54.40058898925781,9.456110000610352,13.998772621154785
1,327647,-8.619215965270996,-86.06977081298828,-88.34561920166016,30.895246505737305
1,327650,19.375473022460938,4.622710227966309,-40.61489486694336,9.172067642211914
1,327651,5.144043922424316,-16.458162307739258,-6.210916042327881,-15.670580863952637
1,327654,-35.969276428222656,98.11701965332031,99.93021392822266,-23.023418426513672
1,327655,13.383099555969238,82.78839874267578,41.22811508178711,1.0992627143859863
1,327658,8.252501487731934,-89.98040008544922,-99.25399017333984,31.282386779785156
1,327659,-15.057782173156738,-70.31190490722656,-39.01251220703125,21.516489028930664
1,327662,53.1929931640625,85.95056915283203,37.5718879699707,9.65044116973877
1,327663,32.72464370727539,148.07374572753906,122.4664077758789,23.72249412536621
1,327666,-77.91661834716797,-140.39158630371094,-1.4081672430038452,-62.64968490600586
1,327667,-92.90965270996094,-163.8654327392578,-129.7958221435547,-84.74864196777344
1,327670,50.938453674316406,55.1204719543457,-36.472381591796875,57.528839111328125
1,327671,92.52896881103516,14.929412841796875,-10.036381721496582,71.85250854492188
1,327674,-19.15064811706543,89.43755340576172,124.0160903930664,3.320117235183716
1,327675,-21.250505447387695,60.28940200805664,96.22846221923828,-0.05110069736838341
1,327678,-16.134449005126953,-136.55429077148438,-128.9031524658203,-36.2636833190918
1,327679,-27.208412170410156,-48.24828338623047,-85.54450225830078,-67.75712585449219
1,327682,2.6640677452087402,49.603755950927734,16.83502960205078,-24.373239517211914
1,327683,-1.7745128870010376,85.951416015625,76.16783142089844,37.70410919189453
1,327686,27.65224838256836,38.93927001953125,50.9798583984375,71.40352630615234
1,327687,24.994688034057617,-92.53540802001953,-55.463375091552734,-12.309289932250977
1,327690,-8.382030487060547,-50.889549255371094,-62.94269561767578,-42.338863372802734
1,327691,-8.3873291015625,8.966876983642578,-11.674201965332031,48.240047454833984
1,327694,6.048009872436523,99.16788482666016,96.8921127319336,12.440924644470215
1,327695,39.943336486816406,53.39540100097656,87.5787353515625,-1.622443675994873
1,327698,-36.40951156616211,-127.0639877319336,-101.42741394042969,-30.638652801513672
1,327699,-62.11355209350586,-73.72257232666016,-106.08898162841797,-85.52156829833984
1,327702,70.91522216796875,76.47743225097656,59.83454895019531,85.95339965820312
1,327703,48.45096969604492,102.66927337646484,96.75987243652344,94.7938461303711
1,327706,-80.9822769165039,-26.191240310668945,-26.857431411743164,-91.72295379638672
1,327707,-26.750558853149414,-72.16790008544922,-82.3163833618164,-29.660232543945312
1,327710,79.54498291015625,-14.711798667907715,-25.37844467163086,72.29978942871094
1,327711,-10.23832893371582,13.451309204101562,12.873968124389648,-8.2893648147583
1,327714,-69.21385192871094,72.4246826171875,99.78821563720703,-58.58478927612305
1,327715,-0.8378092050552368,4.844812870025635,31.675254821777344,-55.43690872192383
1,327718,42.2902717590332,-68.55548858642578,-100.3606185913086,41.020240783691406
1,327719,33.34199142456055,-19.453197479248047,-46.468162536621094,99.44617462158203
1,327722,-24.28936004638672,12.273231506347656,31.2195987701416,-62.31442642211914
1,327723,-5.473484039306641,58.15919876098633,95.77865600585938,-21.91240882873535
1,327726,-26.538543701171875,-2.910513401031494,9.40363883972168,30.3494873046875
1,327727,-19.972143173217773,-92.2082748413086,-84.06141662597656,-64.80511474609375
1,327730,47.53197479248047,-36.473876953125,-55.647911071777344,32.81435775756836
1,327731,20.712661743164062,51.48737335205078,-7.9972758293151855,94.7579116821289
1,327734,-8.194205284118652,127.54264068603516,130.1041259765625,-11.80893611907959
1,327735,-60.877166748046875,-11.076988220214844,56.70060729980469,-133.07362365722656
1,327738,4.3655619621276855,-170.4236602783203,-146.11813354492188,-7.828959941864014
1,327739,86.1559829711914,19.65183448791504,-59.40979766845703,143.23988342285156
1,327742,7.762921333312988,120.3577651977539,82.91366577148438,13.079313278198242
1,327743,-32.666778564453125,14.754178047180176,97.91690063476562,-20.317935943603516
1,327746,-63.25489807128906,-42.87750244140625,-11.024827003479004,-77.47407531738281
1,327747,-20.102153778076172,-35.703372955322266,-98.38502502441406,-78.5362777709961
1,327750,88.68605041503906,11.241360664367676,-11.813224792480469,135.61570739746094
1,327751,14.18686294555664,-4.398224353790283,15.235122680664062,31.37342643737793
1,327754,-76.23585510253906,35.411373138427734,39.00080871582031,-122.22529602050781
1,327756,-21.982912063598633,-0.7110956311225891,27.260332107543945,-62.60685348510742
1,327758,53.45612335205078,-82.73444366455078,-63.02244186401367,61.38784408569336
1,327760,7.0342020988464355,-24.3693904876709,-49.28623962402344,120.50753784179688
1,327762,-12.361856460571289,79.25782775878906,35.63755798339844,7.3022027015686035
1,327764,33.332984924316406,90.98860168457031,94.93706512451172,-31.490310668945312
1,327766,-21.5333309173584,-62.847652435302734,-16.30620765686035,-31.443025588989258
1,327768,-4.30320930480957,-51.4870491027832,-64.21589660644531,-21.766469955444336
1,327770,26.37592315673828,18.150653839111328,-29.831787109375,27.866065979003906
1,327772,11.396527290344238,5.748248100280762,19.15382194519043,19.053794860839844
1,327774,-15.560694694519043,62.443626403808594,120.86341094970703,-55.86749267578125
1,327776,-89.55110931396484,-9.142584800720215,-23.843257904052734,-87.64805603027344
1,327778,19.209260940551758,-79.96817016601562,-111.29581451416016,90.1944808959961
1,327780,80.37754821777344,-32.21493148803711,-4.081422328948975,104.3104019165039
1,327781,-47.726600646972656,-8.58047866821289,-19.369625091552734,-112.15483093261719
1,327784,7.270990371704102,95.25748443603516,73.92030334472656,-10.307293891906738
1,327785,36.84419250488281,72.76795196533203,119.1229019165039,91.18511962890625
1,327788,-38.771080017089844,-107.51936340332031,-107.91643524169922,-27.81825065612793
1,327789,-7.887388706207275,-62.46329116821289,-94.55242919921875,6.094025135040283
1,327792,37.550689697265625,70.43677520751953,51.54130935668945,0.8623815774917603
1,327793,1.757149338722229,67.44835662841797,36.643009185791016,-111.72109985351562
1,327796,-29.588123321533203,-16.28122329711914,36.83256912231445,33.112850189208984
1,327797,15.095672607421875,-78.47993469238281,-34.14194869995117,156.1186981201172
1,327801,0.2571670114994049,-48.538848876953125,-84.99940490722656,-178.60897827148438
1,327802,-30.929262161254883,41.802520751953125,19.69474220275879,-90.03246307373047
1,327803,17.801971435546875,104.57586669921875,118.10047149658203,289.3814697265625
1,327806,40.22183609008789,4.891971588134766,-0.7858790159225464,-38.975982666015625
1,327807,-35.23489761352539,-79.31713104248047,-108.06514739990234,-235.884033203125
1,327810,-41.56483840942383,-76.18115234375,-24.95050811767578,40.25647735595703
1,327811,23.664936065673828,-30.521371841430664,4.5691351890563965,124.64625549316406
1,327814,24.292804718017578,152.2542724609375,95.52467346191406,56.777374267578125
1,327815,3.3271288871765137,79.25667572021484,67.68158721923828,35.994239807128906
1,327818,-4.555281639099121,-126.63719940185547,-105.70906066894531,-64.535888671875
1,327819,-6.4622673988342285,-76.47311401367188,-82.19865417480469,-83.96478271484375
1,327822,-0.12347362190485,51.65581130981445,56.90069580078125,36.844879150390625
1,327823,-3.0349490642547607,84.63594818115234,107.65962219238281,25.567543029785156
1,327826,15.630172729492188,-10.792587280273438,-53.8088264465332,-34.754638671875
1,327827,28.881898880004883,-60.04471969604492,-69.15808868408203,-6.736701488494873
1,327830,-39.192359924316406,-25.841022491455078,28.744659423828125,19.413066864013672
1,327831,-19.806249618530273,56.71928024291992,-19.79889488220215,-34.748104095458984
1,327834,24.14602279663086,85.2494125366211,116.19231414794922,-13.902678489685059
1,327835,-18.949810028076172,-63.32917022705078,45.52231979370117,64.40583038330078
1,327838,9.880393981933594,-89.11741638183594,-184.62924194335938,20.732656478881836
1,327839,39.43034362792969,19.9805965423584,-39.1264533996582,-31.270538330078125
1,327842,-13.82143497467041,40.590858459472656,72.44952392578125,-31.2750301361084
1,327843,-44.973915100097656,40.41537857055664,63.63149642944336,-5.787772178649902
1,327846,-11.627224922180176,-37.36505889892578,-3.456732988357544,17.49883270263672
1,327847,28.65593147277832,-61.83359146118164,-55.04218673706055,5.849374771118164
1,327850,-12.00043773651123,-1.3267003297805786,-36.19952392578125,-44.25603485107422
1,327851,-2.891629219055176,27.077409744262695,18.41336441040039,4.522759437561035
1,327854,82.56909942626953,124.89693450927734,136.9424591064453,141.17286682128906
1,327855,16.129621505737305,44.786216735839844,7.312677383422852,28.613801956176758
1,327858,-73.5223159790039,-153.92835998535156,-152.16867065429688,-115.31852722167969
1,327859,-42.11305618286133,-95.00276947021484,-54.72571563720703,-78.67160034179688
1,327862,34.794803619384766,65.63822174072266,86.34648895263672,7.824737071990967
1,327863,21.201644897460938,93.27442169189453,108.21914672851562,56.79109573364258
1,327866,-36.683189392089844,-18.5793399810791,-50.94789505004883,19.11473846435547
1,327867,11.885128021240234,-61.5531120300293,-91.07803344726562,-11.726188659667969
1,327870,32.987281799316406,-6.0100603103637695,-4.888772010803223,4.648096084594727
1,327871,-22.40201187133789,-13.81705379486084,-23.375619888305664,-17.28447723388672
1,327874,-36.44218826293945,71.11892700195312,86.40603637695312,-71.97122955322266
1,327875,10.51742935180664,46.95366668701172,101.79376983642578,19.486230850219727
1,327878,29.050207138061523,-74.30352020263672,-82.9178237915039,104.29022216796875
1,327879,22.28314781188965,-22.184064865112305,-83.50830841064453,11.502666473388672
1,327882,-24.49349594116211,10.890764236450195,20.90015411376953,-74.82199096679688
1,327883,-20.03901481628418,57.02869415283203,87.63401794433594,-9.293963432312012
1,327886,15.766684532165527,-24.88024139404297,2.011387586593628,31.02691650390625
1,327887,-17.6160888671875,-72.06381225585938,-67.61650848388672,-15.325727462768555
1,327890,37.48745346069336,8.09232234954834,-36.07194519042969,30.616159439086914
1,327891,12.760102272033691,11.307987213134766,-18.694608688354492,46.62545394897461
1,327894,-34.13938522338867,93.29964447021484,100.91265869140625,-12.790669441223145
1,327895,17.605791091918945,50.269432067871094,56.18415451049805,-23.046497344970703
1,327898,-7.656002521514893,-108.6230239868164,-95.07904815673828,-25.338424682617188
1,327899,-39.3802375793457,-94.40240478515625,-78.48121643066406,-50.95869064331055
1,327902,-22.859783172607422,57.032413482666016,35.654754638671875,-44.19560623168945
1,327903,36.10619354248047,101.16809844970703,112.55606079101562,44.41774368286133
1,327906,38.3683967590332,-26.063289642333984,5.883899211883545,66.34847259521484
1,327907,-31.708396911621094,-91.13811492919922,-78.84056854248047,-7.004022598266602
1,327910,4.562751770019531,41.73683547973633,-43.71125793457031,0.15294195711612701
1,327911,76.96612548828125,117.23099517822266,39.81751251220703,45.2005615234375
1,327914,-17.013608932495117,-33.425262451171875,88.56690216064453,-15.185569763183594
1,327915,-90.65092468261719,-108.49248504638672,-27.30647850036621,-97.6731948852539
1,327918,22.23824119567871,-26.990711212158203,-82.10589599609375,5.352871894836426
1,327919,40.887306213378906,-5.586487770080566,-29.443233489990234,85.97423553466797
1,327922,-31.79715347290039,59.65428924560547,16.230165481567383,6.404972553253174
1,327923,35.79025650024414,120.58672332763672,81.68350219726562,34.56987762451172
1,327926,-2.4406981468200684,-21.216644287109375,36.22206497192383,-38.813087463378906
1,327927,-87.34736633300781,-100.98424530029297,-81.58261108398438,-203.2023162841797
1,327930,29.632789611816406,-95.12107849121094,-73.37583923339844,69.0573501586914
1,327931,38.50830841064453,-32.661041259765625,13.693801879882812,204.70799255371094
1,327934,-4.854412078857422,163.0098114013672,106.58023071289062,-28.813249588012695
1,327935,23.14820671081543,76.5511245727539,39.27809524536133,-60.29457473754883
1,327938,-38.698490142822266,-123.77954864501953,-120.5130615234375,-73.9068832397461
1,327939,-31.153430938720703,-57.92803192138672,-60.83500671386719,-13.861814498901367
1,327942,53.98881912231445,97.99037170410156,109.30516052246094,105.21134185791016
1,327943,24.134931564331055,111.53712463378906,124.20933532714844,17.25090789794922
1,327946,-48.05251693725586,-107.8777084350586,-76.69659423828125,-87.28610229492188
1,327947,-24.706390380859375,-100.0844497680664,-86.84554290771484,-18.394926071166992
1,327950,29.480968475341797,33.278743743896484,6.085509777069092,79.0079116821289
1,327951,52.50246810913086,25.708507537841797,-7.470099925994873,54.53157424926758
1,327954,1.1003148555755615,105.24993133544922,97.46617889404297,-7.839937210083008
1,327955,-55.422203063964844,12.6448335647583,24.594099044799805,-102.84370422363281
1,327958,-42.306304931640625,-186.19175720214844,-137.9356231689453,-142.3635711669922
1,327959,-6.224777698516846,-60.13078689575195,-64.4129638671875,0.988416314125061
1,327962,74.67060852050781,156.63290405273438,98.23674011230469,172.99876403808594
1,327963,34.94636154174805,115.88806915283203,122.56061553955078,112.15660858154297
1,327966,-47.51610565185547,-72.22992706298828,-47.33152770996094,-48.3947639465332
1,327967,11.802857398986816,-96.96530151367188,-98.619140625,-35.77677536010742
1,327970,16.613262176513672,15.365915298461914,-12.465930938720703,-33.843379974365234
1,327971,-24.305774688720703,28.655353546142578,1.3517426252365112,-21.283397674560547
1,327974,-35.43814468383789,52.88144302368164,84.73847198486328,62.09302520751953
1,327975,-4.860223293304443,-7.784355163574219,58.04744338989258,-0.3328925371170044
1,327978,53.255348205566406,-66.53105163574219,-86.36385345458984,-7.41124153137207
1,327981,16.308849334716797,-7.514758586883545,-45.87514114379883,17.947362899780273
1,327982,-18.860740661621094,39.320491790771484,52.95069885253906,-41.25849151611328
1,327984,-4.8614020347595215,68.86329650878906,62.43305587768555,5.835292816162109
1,327986,-36.88019943237305,-82.00940704345703,-103.07550811767578,-60.93140411376953
1,327988,-37.84746551513672,-97.83364868164062,-95.38453674316406,-132.96615600585938
1,327990,28.90196990966797,50.84629821777344,72.38900756835938,98.4804458618164
1,327992,35.12091827392578,41.910247802734375,31.45354652404785,162.45680236816406
1,327994,27.762399673461914,98.9009017944336,112.29903411865234,13.691697120666504
1,327996,22.954980850219727,32.9094123840332,57.798736572265625,-34.810367584228516
1,327998,-58.43455123901367,-171.64942932128906,-185.5671844482422,-63.014686584472656
1,328000,-52.772865295410156,-82.2559814453125,-73.37357330322266,-42.766944885253906
1,328002,52.11562728881836,127.38136291503906,112.02587890625,27.177045822143555
1,328004,32.727760314941406,90.91519165039062,61.97227478027344,35.52476119995117
1,328006,-13.135069847106934,-85.70567321777344,-63.838321685791016,3.8545982837677
1,328008,2.7641117572784424,-62.72164535522461,-19.320274353027344,13.813497543334961
1,328010,-21.23581314086914,5.206324100494385,4.870302677154541,-34.224605560302734
1,328012,-7.9876227378845215,29.05583953857422,-41.933624267578125,-50.566951751708984
1,328014,18.587379455566406,126.50267028808594,106.04379272460938,62.04409408569336
1,328016,22.357234954833984,34.68962478637695,58.91340255737305,31.772136688232422
1,328018,-24.618860244750977,-158.5465545654297,-127.69817352294922,-48.98970413208008
1,328020,-53.74467849731445,-110.30274200439453,-91.70140838623047,-36.92533874511719
1,328022,39.249359130859375,110.63504791259766,70.6380615234375,38.539974212646484
1,328024,63.363059997558594,131.62582397460938,156.1251220703125,104.88825988769531
1,328026,-35.85542297363281,-82.3603515625,-59.22821044921875,-69.75819396972656
1,328028,-42.31873321533203,-68.7910385131836,-113.35445404052734,-80.69247436523438
1,328030,33.641746520996094,47.99216079711914,16.708837509155273,43.552818298339844
1,328032,-3.9254353046417236,-7.304691791534424,-2.4225144386291504,-22.78701400756836
1,328034,-35.85002136230469,41.5366096496582,78.5087661743164,-25.682199478149414
1,328036,32.72351837158203,7.847477436065674,42.61517333984375,27.66005516052246
1,328038,1.6554343700408936,-111.71871185302734,-116.11624908447266,54.76969909667969
1,328040,-24.630468368530273,-6.4740447998046875,-58.944828033447266,-6.913216590881348
1,328042,27.138280868530273,104.63397979736328,104.15265655517578,-24.523860931396484
1,328044,1.6082136631011963,68.3027114868164,99.81333923339844,40.44161605834961
1,328046,5.980695724487305,-62.53982925415039,-77.80830383300781,21.742189407348633
1,328048,3.9375662803649902,-95.80484771728516,-94.8304443359375,-42.10145950317383
1,328050,-28.143749237060547,0.07791987806558609,4.202398300170898,-80.10560607910156
1,328052,-2.337883472442627,52.246883392333984,44.657798767089844,18.892841339111328
1,328054,26.63106346130371,52.55487060546875,105.09271240234375,118.83467864990234
1,328056,7.632790565490723,-24.92255401611328,0.7381677031517029,-19.013330459594727
1,328058,3.463822603225708,-51.96883773803711,-137.68418884277344,-90.01952362060547
1,328060,13.7098970413208,-10.822418212890625,-47.530826568603516,-38.548301696777344
1,328062,-53.23563766479492,22.562164306640625,66.1169204711914,-3.939851999282837
1,328064,-23.256362915039062,74.65032958984375,79.1689453125,111.81314086914062
1,328066,51.079559326171875,-25.15412139892578,-3.132084608078003,56.810428619384766
1,328068,3.651010751724243,-58.0430793762207,-36.97565841674805,-70.9090805053711
1,328070,-53.119964599609375,-16.510717391967773,-47.60758972167969,-29.593841552734375
1,328072,-10.871246337890625,-4.4809088706970215,-26.969385147094727,-4.96684455871582
1,328074,73.65113830566406,111.37890625,126.11555480957031,13.927029609680176
1,328076,-1.9510724544525146,10.734676361083984,41.44354248046875,17.76418685913086
1,328078,-75.97594451904297,-125.4324722290039,-149.25328063964844,-21.695396423339844
1,328080,36.0654411315918,-38.33599090576172,-70.01852416992188,-1.3198610544204712
1,328082,46.99006271362305,110.23416900634766,101.25865936279297,15.109061241149902
1,328084,-7.972839832305908,95.48908996582031,118.5135726928711,15.631793022155762
1,328086,-4.477394104003906,-119.34638977050781,-52.413429260253906,-5.605803489685059
1,328088,-11.978590965270996,-69.44654083251953,-86.33824920654297,-23.730113983154297
1,328090,7.990136623382568,37.44851303100586,-26.39883041381836,-22.8082275390625
1,328092,-18.24022102355957,10.835602760314941,-2.357844114303589,-1.421531319618225
1,328094,-29.86951446533203,84.83635711669922,127.23328399658203,15.999710083007812
1,328096,8.972504615783691,5.40929651260376,36.701805114746094,-14.6696138381958
1,328098,27.865503311157227,-116.92443084716797,-147.6005859375,28.041948318481445
1,328100,8.934131622314453,-31.480573654174805,-43.72434997558594,26.86423110961914
1,328102,-1.376898169517517,107.35546112060547,99.43628692626953,-17.657058715820312
1,328104,21.51748275756836,84.53535461425781,98.3054428100586,24.252239227294922
1,328106,-17.645278930664062,-70.76686096191406,-53.72417068481445,-15.512505531311035
1,328108,-40.98286056518555,-89.38301849365234,-97.54354858398438,-46.71812057495117
1,328110,24.179590225219727,5.794370174407959,-21.485551834106445,-0.23314042389392853
1,328112,29.32819938659668,59.46165084838867,35.96310806274414,20.5183162689209
1,328114,-26.386062622070312,38.155494689941406,107.15117645263672,24.716617584228516
1,328116,-12.947359085083008,-49.79700469970703,-20.846269607543945,1.814672827720642
1,328118,6.838107109069824,-64.9275894165039,-111.67994689941406,39.362945556640625
1,328120,-18.862903594970703,-20.57944107055664,-45.03566360473633,-150.4370880126953
1,328122,20.236064910888672,78.55776977539062,89.6978759765625,-40.27095031738281
1,328124,32.82502746582031,104.99576568603516,131.32284545898438,284.7066955566406
1,328126,-37.45166015625,-81.67108154296875,-75.93864440917969,-152.2959442138672
1,328128,-19.06550407409668,-91.33666229248047,-85.23552703857422,-180.16346740722656
1,328130,28.827585220336914,28.5150203704834,-10.927990913391113,219.51934814453125
1,328132,3.5683205127716064,52.51203155517578,23.471744537353516,67.6126708984375
1,328134,2.2354800701141357,95.57044982910156,125.28388214111328,-32.139278411865234
1,328136,-0.8807795643806458,-41.84772872924805,-29.95071792602539,3.6849489212036133
1,328138,-14.363927841186523,-134.70875549316406,-126.49464416503906,-105.91590881347656
1,328140,20.560422897338867,5.018280506134033,-12.350921630859375,-26.26192283630371
1,328142,9.86496639251709,91.32389831542969,65.06246185302734,92.83536529541016
1,328144,-22.450702667236328,55.01913070678711,81.89259338378906,12.211432456970215
1,328145,-15.069963455200195,-55.28990936279297,-21.59910774230957,-26.43897247314453
1,328148,14.385540962219238,-70.40135192871094,-85.39844512939453,-28.6978702545166
1,328149,-2.129598379135132,-16.045429229736328,-51.62587356567383,-39.37589645385742
1,328152,-5.885669231414795,63.39848709106445,65.90938568115234,8.189149856567383
1,328153,30.952198028564453,67.6562728881836,94.01718139648438,52.632659912109375
1,328156,-13.353925704956055,-53.8119010925293,-43.93018341064453,-12.45292854309082
1,328157,-23.78200340270996,-70.45008087158203,-60.91577911376953,-24.105907440185547
1,328160,3.6940267086029053,-6.35856294631958,-38.34515380859375,25.54962921142578
1,328161,13.59689998626709,43.16416549682617,-2.09926438331604,12.982251167297363
1,328164,9.714316368103027,77.37751770019531,116.35931396484375,9.470245361328125
1,328165,-17.822092056274414,13.302348136901855,62.10971450805664,2.2710225582122803
1,328170,11.128900527954102,-126.74674224853516,-159.58848571777344,-50.61934280395508
1,328170,4.687527179718018,-66.4448013305664,-97.23982238769531,-34.74560546875
1,328172,-6.369941711425781,141.4056396484375,161.0355987548828,51.17230224609375
1,328174,21.071388244628906,113.46864318847656,109.27268981933594,21.932048797607422
1,328176,-15.644360542297363,-73.44013214111328,-62.63475799560547,-17.666357040405273
1,328178,-23.319164276123047,-109.82532501220703,-86.15290069580078,-21.589435577392578
1,328180,-1.507391095161438,-20.64659881591797,-42.90927505493164,-18.226640701293945
1,328182,17.942781448364258,76.0760269165039,57.581607818603516,45.747642517089844
1,328184,17.65391731262207,83.89065551757812,108.33349609375,48.9265022277832
1,328186,-30.99285125732422,-71.22502899169922,-59.326271057128906,-21.64373016357422
1,328188,-12.595820426940918,-88.48145294189453,-102.65808868408203,-50.64714813232422
1,328190,40.85006332397461,37.64604949951172,16.922822952270508,2.1094319820404053
1,328192,25.334976196289062,65.44801330566406,29.4727783203125,31.015045166015625
1,328194,-30.852415084838867,40.11045455932617,83.42454528808594,-0.047252774238586426
1,328196,-24.438007354736328,-47.72883605957031,21.80059242248535,-9.394667625427246
1,328198,5.0446062088012695,-80.7771224975586,-116.83666229248047,-13.921353340148926
1,328200,-11.961321830749512,-27.00697135925293,-63.862159729003906,-34.42605209350586
1,328202,21.571563720703125,84.61227416992188,96.98421478271484,33.02643585205078
1,328204,25.680999755859375,102.48515319824219,109.84563446044922,63.29762268066406
1,328206,-28.54234504699707,-94.04411315917969,-80.87267303466797,-25.541715621948242
1,328208,-24.79547691345215,-89.08732604980469,-86.69959259033203,-23.2121524810791
1,328210,10.445034980773926,44.06299591064453,-0.33899423480033875,-14.622054100036621
1,328212,16.855388641357422,39.99002456665039,16.449506759643555,-44.987342834472656
1,328214,10.289791107177734,52.916595458984375,108.6777114868164,55.82406234741211
1,328216,6.989980697631836,-8.765300750732422,1.940693736076355,73.02383422851562
1,328218,-21.76824951171875,-111.05625915527344,-136.75296020507812,-87.30062866210938
1,328220,-26.355697631835938,-21.543720245361328,-28.484769821166992,-53.360809326171875
1,328222,30.002849578857422,123.45167541503906,107.30233764648438,61.37267303466797
1,328224,33.526493072509766,63.737022399902344,75.93962097167969,60.72783279418945
1,328226,-26.943925857543945,-77.3003921508789,-75.40220642089844,-14.860930442810059
1,328228,-17.180959701538086,-78.96556091308594,-54.63263702392578,-26.352079391479492
1,328230,16.890777587890625,-4.134811878204346,1.5012423992156982,4.216009140014648
1,328232,0.09859132021665573,65.1837158203125,22.153108596801758,-69.34736633300781
1,328234,-5.854569911956787,64.796142578125,113.07392120361328,28.08639907836914
1,328236,24.961265563964844,-40.75760269165039,-9.412585258483887,64.59757232666016
1,328238,-13.16965103149414,-89.98023223876953,-142.6730194091797,-41.811771392822266
1,328240,-45.408294677734375,-32.78600311279297,-54.1901969909668,-21.830862045288086
1,328242,30.594741821289062,101.60099792480469,90.10539245605469,17.588666915893555
1,328244,45.21718978881836,95.0323715209961,108.53473663330078,0.08572033047676086
1,328246,-39.499088287353516,-108.89077758789062,-53.70438766479492,-22.29790496826172
1,328248,-35.67955017089844,-78.10814666748047,-73.86090850830078,0.026511821895837784
1,328250,34.58709716796875,52.645938873291016,-12.807109832763672,8.854408264160156
1,328252,4.251955986022949,40.61869812011719,23.395273208618164,4.220160961151123
1,328254,-11.529924392700195,56.48802185058594,121.45472717285156,39.26163101196289
1,328256,10.884088516235352,-22.593017578125,-7.58595609664917,12.276816368103027
1,328258,-26.05113983154297,-121.83866119384766,-156.95448303222656,-34.64008331298828
1,328260,-7.100637435913086,-29.432710647583008,-51.200931549072266,-3.5032365322113037
1,328262,36.582576751708984,119.5775146484375,103.2988510131836,28.029800415039062
1,328264,8.099723815917969,108.26079559326172,123.86542510986328,72.76644134521484
1,328266,-24.173263549804688,-98.28560638427734,-64.35775756835938,-133.2445068359375
1,328268,-17.621070861816406,-110.29814910888672,-104.85660552978516,-103.07553100585938
1,328270,26.461191177368164,40.904441833496094,20.58997917175293,196.59022521972656
1,328272,12.216447830200195,62.18543243408203,49.025333404541016,-26.974292755126953
1,328274,-9.796761512756348,44.63518524169922,69.27076721191406,-71.27452850341797
1,328276,4.213914394378662,-37.17529296875,-6.795919895172119,58.45374298095703
1,328278,-14.153467178344727,-63.474700927734375,-92.28839874267578,-48.99436950683594
1,328280,-4.04974365234375,-15.939268112182617,-39.49896240234375,-18.6231632232666
1,328282,12.182032585144043,67.61051177978516,48.15757751464844,86.29513549804688
1,328284,21.49373435974121,96.65090942382812,69.27862548828125,64.71277618408203
1,328286,-5.8230180740356445,-106.86726379394531,-45.063011169433594,-174.96241760253906
1,328288,-36.936927795410156,-104.71924591064453,-49.50178527832031,-154.4921417236328
1,328290,-1.196020245552063,70.98028564453125,18.659393310546875,224.42945861816406
1,328292,34.18191146850586,55.66548156738281,20.04605484008789,179.18873596191406
1,328294,3.6547226905822754,27.963850021362305,70.7757797241211,-144.1652069091797
1,328296,-39.307682037353516,-30.720705032348633,-36.368343353271484,-77.1549301147461
1,328298,-7.13938570022583,-68.73857879638672,-122.50959777832031,22.001056671142578
1,328300,18.901683807373047,-23.388662338256836,8.441673278808594,-22.592016220092773
1,328302,26.60724639892578,70.11516571044922,139.4059600830078,11.312808990478516
1,328304,15.716547966003418,107.27287292480469,68.2542495727539,36.713932037353516
1,328306,-31.025781631469727,-90.47935485839844,-132.0906524658203,48.231197357177734
1,328308,-28.62447166442871,-108.59703063964844,-75.28943634033203,-13.220311164855957
1,328310,5.428734302520752,53.37979507446289,44.24341583251953,-50.69700622558594
1,328312,22.968053817749023,64.17314147949219,45.33265686035156,18.79770278930664
1,328314,19.12555503845215,50.473445892333984,73.49808502197266,35.288063049316406
1,328316,-2.2032723426818848,-28.32665252685547,-31.125354766845703,-2.577775478363037
1,328318,-24.686439514160156,-83.45985412597656,-97.96219635009766,-31.829938888549805
1,328320,6.811692714691162,-42.7144889831543,-8.2092866897583,-21.999168395996094
1,328322,19.55893898010254,74.19422149658203,73.56846618652344,-0.06603944301605225
1,328324,-23.69734001159668,100.82528686523438,88.75979614257812,7.298831939697266
1,328326,-1.9901249408721924,-91.66927337646484,-74.41756439208984,-21.449249267578125
1,328328,16.862581253051758,-82.3169174194336,-108.32982635498047,-32.120567321777344
1,328330,-16.744346618652344,47.250396728515625,24.775421142578125,80.20368957519531
