Aktueller Finger,timestamp_ms,sensor_0,sensor_1,sensor_2,sensor_3
0,108402,2396.897705078125,2373.934814453125,2363.059326171875,2376.6474609375
0,108404,2147.280517578125,2127.94775390625,2132.202880859375,2136.170654296875
0,108406,-2226.596435546875,-2200.718017578125,-2203.043212890625,-2212.650146484375
0,108408,-1292.5003662109375,-1279.3712158203125,-1295.1207275390625,-1302.1177978515625
0,108410,522.80419921875,506.88922119140625,534.4130249023438,523.7002563476562
0,108412,-344.51361083984375,-327.03961181640625,-333.2964172363281,-311.9230041503906
0,108414,-241.0429229736328,-257.3047790527344,-252.91676330566406,-228.3199920654297
0,108416,-229.2593231201172,-268.65643310546875,-208.01535034179688,-240.9618682861328
0,108427,-442.2637939453125,-380.9922180175781,-422.0378112792969,-437.894287109375
0,108427,-498.97955322265625,-461.13226318359375,-512.6312255859375,-485.11016845703125
0,108427,-387.99786376953125,-425.03448486328125,-386.22259521484375,-404.972900390625
0,108427,-235.68882751464844,-234.56736755371094,-220.4113311767578,-246.06890869140625
0,108428,-34.20640563964844,-27.252967834472656,-44.73187255859375,-10.641158103942871
0,108429,166.4026641845703,162.5140838623047,135.2315216064453,159.8505859375
0,108430,282.96929931640625,285.2377624511719,291.34503173828125,248.021484375
0,108432,299.10601806640625,268.72674560546875,324.31719970703125,297.53082275390625
0,108434,212.9959716796875,170.92788696289062,168.62510681152344,218.36074829101562
0,108436,34.091835021972656,69.71439361572266,34.65077590942383,52.79608917236328
0,108438,-92.42158508300781,-37.60563278198242,-65.20443725585938,-80.16980743408203
0,108440,-119.72057342529297,-147.3133087158203,-151.36598205566406,-149.87469482421875
0,108442,-176.9404754638672,-206.1367950439453,-159.67752075195312,-157.41397094726562
0,108444,-125.57261657714844,-103.67393493652344,-87.30868530273438,-88.68116760253906
0,108446,48.957237243652344,67.43852233886719,34.638519287109375,5.677781105041504
0,108448,141.53109741210938,142.9054412841797,97.5966796875,92.66226959228516
0,108470,159.06027221679688,155.3686981201172,176.5614471435547,200.24212646484375
0,108470,149.52691650390625,152.7821044921875,180.42173767089844,180.95785522460938
0,108470,98.88589477539062,117.1648178100586,77.75048828125,76.13694763183594
0,108471,16.218141555786133,-5.229840278625488,6.269979000091553,0.42586514353752136
0,108471,-84.06275939941406,-94.28610229492188,-75.11994934082031,-69.34854888916016
0,108471,-125.0291519165039,-110.07682800292969,-121.42632293701172,-90.70388793945312
0,108471,-93.4698257446289,-131.24996948242188,-99.62702941894531,-104.7514877319336
0,108471,-68.8259506225586,-85.9965591430664,-57.3306770324707,-86.59719848632812
0,108471,-10.549448013305664,3.1936240196228027,6.107072830200195,-14.77884578704834
0,108472,64.54854583740234,68.18206787109375,58.742576599121094,49.93255615234375
0,108472,85.93077087402344,93.73062133789062,70.03056335449219,93.23371124267578
0,108473,82.31047821044922,112.0272216796875,99.0219955444336,110.86012268066406
0,108474,68.72675323486328,61.74884033203125,83.49585723876953,65.43389892578125
0,108476,-7.138288974761963,-35.17763900756836,-13.523514747619629,-8.386883735656738
0,108478,-60.886146545410156,-46.243743896484375,-64.9433822631836,-70.26544189453125
0,108480,-56.363224029541016,-55.26517105102539,-73.82011413574219,-100.90049743652344
0,108482,-58.21355438232422,-52.37456130981445,-77.11846160888672,-60.10806655883789
0,108484,-48.09159469604492,-33.3377685546875,-43.52974319458008,-12.114876747131348
0,108486,-26.376434326171875,-18.61590576171875,1.5936388969421387,14.298111915588379
0,108488,26.63860511779785,29.576719284057617,21.65591049194336,9.439948081970215
0,108490,78.29131317138672,39.74742889404297,33.66024398803711,25.238574981689453
0,108492,66.92423248291016,36.088172912597656,55.05173873901367,77.64656829833984
0,108494,14.858819007873535,44.126487731933594,54.755496978759766,55.27897262573242
0,108496,-11.263204574584961,-0.8218961954116821,-1.4138002395629883,-4.074850559234619
0,108529,-12.987480163574219,-7.159125804901123,-42.65556335449219,-46.14868927001953
0,108529,-28.408754348754883,4.982698917388916,-33.67875289916992,-55.42966079711914
0,108530,-61.49687194824219,-77.37123107910156,-34.17334747314453,-36.499507904052734
0,108530,-49.86125564575195,-73.14593505859375,-8.171539306640625,-16.334716796875
0,108530,9.480877876281738,19.544048309326172,5.204983234405518,7.192691326141357
0,108530,47.64535903930664,41.769805908203125,-8.61037826538086,3.726025342941284
0,108530,33.957969665527344,39.02898406982422,19.265804290771484,26.205617904663086
0,108531,22.030057907104492,34.141151428222656,53.59592056274414,59.494136810302734
0,108531,23.593486785888672,13.697173118591309,46.95526885986328,25.94776725769043
0,108531,3.598329782485962,-5.940512180328369,-6.5088300704956055,-33.317054748535156
0,108531,-21.998992919921875,-36.020957946777344,-42.13551330566406,-25.806917190551758
0,108531,-35.89327621459961,-31.84102439880371,-17.67038917541504,3.6817212104797363
0,108531,-14.025055885314941,-15.289972305297852,-7.087573528289795,-2.91988468170166
0,108531,-8.70311450958252,-31.191272735595703,-24.605104446411133,-13.524128913879395
0,108532,-14.520126342773438,-11.96117115020752,-1.3703471422195435,-16.793529510498047
0,108532,15.069499015808105,26.197261810302734,15.178168296813965,24.322986602783203
0,108532,18.45560073852539,47.24654006958008,18.007137298583984,23.8061580657959
0,108533,2.493010997772217,12.738733291625977,34.31309509277344,6.932796478271484
0,108533,26.535505294799805,-13.45946979522705,2.1452255249023438,12.60063648223877
0,108536,32.082218170166016,-1.0936801433563232,-9.096277236938477,-2.192025661468506
0,108538,-13.202840805053711,-0.05911833047866821,-0.3675146698951721,12.03213119506836
0,108540,-32.64400100708008,42.09341049194336,-24.856769561767578,-31.11799430847168
0,108542,-24.831573486328125,-7.937921047210693,-10.39439582824707,-56.98546600341797
0,108544,-8.343282699584961,-81.59039306640625,-31.082279205322266,3.8354909420013428
0,108546,-6.549902439117432,-15.115323066711426,-23.574424743652344,1.0971394777297974
0,108548,12.674686431884766,64.38860321044922,42.86697006225586,-3.360121965408325
0,108550,31.567394256591797,25.036113739013672,23.046524047851562,17.18885612487793
0,108552,-11.915483474731445,-34.440067291259766,-4.242659568786621,6.040256023406982
0,108554,9.281769752502441,13.81506633758545,9.390542984008789,21.013595581054688
0,108556,8.402134895324707,5.731147766113281,-0.937409520149231,36.51460266113281
0,108558,-15.940125465393066,-12.135981559753418,-7.363403797149658,-12.887228012084961
0,108604,-3.4758658409118652,9.237032890319824,13.073890686035156,-47.029380798339844
0,108604,-15.470212936401367,-10.83193302154541,-16.98142433166504,2.192678928375244
0,108604,0.915799081325531,-18.14790153503418,-31.01844024658203,17.888015747070312
0,108604,-5.216041564941406,-27.116777420043945,19.72946548461914,-2.8490047454833984
0,108605,-3.240079879760742,21.04053497314453,25.415264129638672,4.8390326499938965
0,108605,31.32129669189453,45.78139877319336,-9.501893043518066,-4.972239971160889
0,108605,19.05120086669922,-12.149659156799316,-3.7281923294067383,-1.9896081686019897
0,108605,-20.303062438964844,-5.119668483734131,2.3224122524261475,11.140247344970703
0,108605,-12.339340209960938,17.144716262817383,0.9665947556495667,-8.197341918945312
0,108606,19.251941680908203,-7.18179988861084,13.994921684265137,-2.7614951133728027
0,108606,19.01881980895996,-24.69419288635254,-29.079666137695312,12.00400161743164
0,108606,-22.074939727783203,-17.07581329345703,-10.819961547851562,-25.54370880126953
0,108606,-38.85688781738281,7.574520587921143,30.485485076904297,-3.429333209991455
0,108606,14.630488395690918,34.07787322998047,-4.630959987640381,24.466583251953125
0,108606,34.19969940185547,5.348382949829102,0.5147620439529419,-5.167573928833008
0,108607,-1.527240514755249,-16.832094192504883,8.875977516174316,24.0202693939209
0,108607,-22.29316520690918,31.381284713745117,-0.9808743596076965,10.908005714416504
0,108607,1.4636616706848145,11.043012619018555,8.422425270080566,-24.94317626953125
0,108607,20.52545166015625,-30.870189666748047,9.1642427444458,-4.575192451477051
0,108607,2.5602970123291016,1.9241715669631958,-10.767141342163086,-0.07595524191856384
0,108607,-3.616044521331787,14.279500007629395,-5.260153770446777,-15.194148063659668
0,108608,-11.900823593139648,-12.916568756103516,-3.3510985374450684,-13.81707763671875
0,108608,-9.894250869750977,-22.079139709472656,-10.646865844726562,10.362552642822266
0,108609,5.341482639312744,-14.913603782653809,-16.54332733154297,13.254583358764648
0,108609,-17.528663635253906,6.260333061218262,-17.94782257080078,-8.028270721435547
0,108610,1.0235016345977783,19.545387268066406,25.267414093017578,0.43569108843803406
0,108612,26.470260620117188,-30.95046615600586,13.682486534118652,9.534262657165527
0,108614,-19.07625389099121,-49.039852142333984,-12.13965892791748,0.3126923739910126
0,108616,-23.89786720275879,9.684464454650879,6.35529088973999,3.314850091934204
0,108618,22.08937644958496,54.46269226074219,5.252965450286865,-13.561962127685547
0,108620,21.420265197753906,48.6171760559082,-9.546184539794922,1.5741926431655884
0,108622,-4.28470516204834,-22.789907455444336,-12.94653606414795,22.589752197265625
0,108624,1.5969401597976685,-41.515655517578125,8.069623947143555,-3.412018060684204
0,108626,-11.165045738220215,6.524694919586182,6.412783145904541,-11.113411903381348
0,108628,-13.86971378326416,41.74933624267578,3.609630584716797,-12.001543045043945
0,108630,17.845590591430664,30.32707405090332,14.219771385192871,9.322033882141113
0,108632,8.051871299743652,-48.98904037475586,-12.11380386352539,-4.454613208770752
0,108634,-2.3464441299438477,-42.66982650756836,-8.917577743530273,-1.0880815982818604
0,108636,8.04293441772461,18.951908111572266,18.966163635253906,29.593530654907227
0,108694,-14.699989318847656,14.83329963684082,-12.172481536865234,-8.088315963745117
0,108694,-22.90053939819336,-11.738114356994629,-11.998900413513184,5.401415824890137
0,108694,16.404054641723633,-16.303651809692383,21.675249099731445,0.4904956519603729
0,108695,24.25778579711914,4.489945888519287,-12.828292846679688,-23.528120040893555
0,108695,-25.177461624145508,9.246315002441406,-14.356216430664062,6.543361663818359
0,108695,-15.898578643798828,-1.4054932594299316,18.824249267578125,16.95428466796875
0,108695,25.72209358215332,5.217540740966797,6.98390007019043,-11.915898323059082
0,108695,3.419175148010254,22.507593154907227,2.0868148803710938,-18.186845779418945
0,108695,-1.2455452680587769,6.287264823913574,-7.3507890701293945,4.100245475769043
0,108696,-7.768247604370117,-21.4489688873291,-12.555540084838867,-9.937824249267578
0,108696,-19.53776741027832,-4.12370491027832,10.663338661193848,0.21720193326473236
0,108696,23.01712989807129,15.961331367492676,9.20251178741455,2.227245807647705
0,108696,14.097558975219727,-0.47169438004493713,0.13048581779003143,-6.422372817993164
0,108696,-5.180030345916748,2.3926830291748047,4.601817607879639,23.566118240356445
0,108697,9.16506290435791,6.945371150970459,7.530117511749268,13.78189468383789
0,108697,-3.349905014038086,-13.287068367004395,-3.8392395973205566,-21.673463821411133
0,108697,-3.832094192504883,6.255565643310547,-9.833081245422363,-6.492266654968262
0,108697,-7.764904499053955,24.468721389770508,4.346226692199707,28.583269119262695
0,108697,10.055715560913086,8.942120552062988,-3.598954439163208,-4.101202011108398
0,108697,23.730228424072266,0.4898139238357544,-7.524580955505371,-37.402503967285156
0,108698,-13.598184585571289,-10.755424499511719,15.476951599121094,12.571846008300781
0,108698,-22.097980499267578,-0.9525578022003174,-0.0024778293445706367,26.13115692138672
0,108698,-6.284773826599121,-3.3388755321502686,-24.444820404052734,-12.37308120727539
0,108698,-7.021689414978027,-40.23728561401367,-0.07011934369802475,-3.341442108154297
0,108698,5.614808082580566,4.490394592285156,6.022548198699951,9.200760841369629
0,108698,14.049142837524414,40.705318450927734,-1.511888027191162,-13.684017181396484
0,108699,-3.547574758529663,-10.662734985351562,8.758440017700195,-3.210984468460083
0,108699,-9.883975982666016,-24.044076919555664,2.948070764541626,11.851679801940918
0,108699,7.244294166564941,-6.0095319747924805,-23.12204933166504,-10.074063301086426
0,108700,7.984501361846924,23.270179748535156,-12.517931938171387,-7.422387599945068
0,108700,-24.047380447387695,9.271061897277832,25.8143367767334,6.228877067565918
0,108701,-15.679733276367188,-26.182266235351562,10.441184997558594,5.939999103546143
0,108702,24.972938537597656,8.679239273071289,-8.512916564941406,-0.46163275837898254
0,108703,17.654502868652344,8.480548858642578,4.979861736297607,-9.20844841003418
0,108706,-11.53040599822998,-27.960168838500977,5.806077480316162,-9.2766752243042
0,108707,-4.333467483520508,0.15094684064388275,-18.1003475189209,-8.23854923248291
0,108710,-1.2727192640304565,30.692243576049805,-12.375012397766113,30.27167320251465
0,108711,-18.09637451171875,-28.266435623168945,-2.4435312747955322,25.76305389404297
0,108714,2.1090681552886963,-37.32398223876953,0.9255892634391785,-17.45570945739746
0,108715,23.89356803894043,14.305411338806152,35.410987854003906,10.305381774902344
0,108718,15.287168502807617,30.317153930664062,13.919593811035156,-6.382510662078857
0,108719,3.7498691082000732,31.202346801757812,-17.58759880065918,-16.92344856262207
0,108722,-19.932344436645508,-19.750810623168945,-2.0378541946411133,12.734918594360352
0,108723,-16.22203826904297,-18.6794490814209,-5.938666820526123,-2.1241064071655273
0,108726,1.5213035345077515,14.931463241577148,-8.922222137451172,-6.6382269859313965
0,108727,3.305097818374634,17.203767776489258,12.240188598632812,-13.953737258911133
0,108730,20.578155517578125,10.287235260009766,3.9467554092407227,-7.9636712074279785
0,108731,-5.231407642364502,-37.83866500854492,-11.113219261169434,21.418682098388672
0,108803,-10.84128189086914,2.256044387817383,-1.2460880279541016,1.0156934261322021
0,108803,-2.824951171875,40.11050796508789,5.45775032043457,-13.348372459411621
0,108803,-22.617660522460938,-22.573863983154297,6.0850114822387695,8.754045486450195
0,108803,26.127538681030273,-16.93500518798828,-14.709293365478516,14.59766674041748
0,108803,18.73206901550293,-2.926694631576538,-4.880845069885254,-1.822708249092102
0,108803,-15.080013275146484,1.6493018865585327,21.373441696166992,-12.707016944885254
0,108804,24.76738929748535,7.590869426727295,-12.469267845153809,-0.09106434881687164
0,108804,-2.9429705142974854,-9.979178428649902,-8.625473022460938,13.140077590942383
0,108804,-25.722877502441406,15.25853443145752,27.72113037109375,5.757200717926025
0,108804,15.70565128326416,20.689138412475586,-0.6432803273200989,-18.636701583862305
0,108804,3.0049307346343994,-13.608312606811523,-18.593568801879883,-8.045551300048828
0,108804,-9.731565475463867,-1.1840828657150269,4.210246562957764,7.476061820983887
0,108805,-5.602652072906494,2.9761171340942383,7.197811603546143,-1.46480131149292
0,108805,1.3477082252502441,-29.006378173828125,-9.464791297912598,-2.666133165359497
0,108805,13.143299102783203,0.11940742284059525,-24.88748550415039,6.680305480957031
0,108805,-15.73554515838623,20.24114418029785,6.387139797210693,14.626405715942383
0,108805,-7.019766807556152,-9.862491607666016,27.841930389404297,1.9376860857009888
0,108806,-5.567173004150391,-12.956757545471191,-9.818257331848145,-14.734046936035156
0,108806,-2.335456132888794,12.0925931930542,-8.902477264404297,-8.285575866699219
0,108806,19.198518753051758,0.1389789879322052,16.412477493286133,12.918702125549316
0,108806,6.239724159240723,-10.88098430633545,-1.8751269578933716,0.3593004047870636
0,108806,10.850712776184082,8.94114875793457,-17.32505226135254,-15.53341007232666
0,108806,-18.771944046020508,7.969529628753662,1.1534334421157837,7.23435115814209
0,108807,-29.203521728515625,-1.5652107000350952,20.74357795715332,11.385181427001953
0,108807,20.000164031982422,-2.547485113143921,3.6180472373962402,-5.985803127288818
0,108807,21.67888832092285,6.664371967315674,-12.89949893951416,-9.001193046569824
0,108807,-19.84780502319336,-10.997370719909668,2.0451912879943848,-3.7043240070343018
0,108807,-9.024836540222168,-24.166887283325195,-8.415820121765137,-7.016313552856445
0,108807,18.08317756652832,16.725282669067383,-4.810986518859863,8.417071342468262
0,108808,3.1818323135375977,30.162031173706055,25.518667221069336,12.079137802124023
0,108808,2.4715535640716553,0.0013472670689225197,-1.563135027885437,-18.511938095092773
0,108808,12.029664039611816,-11.057304382324219,-30.367677688598633,-11.51724624633789
0,108808,-3.3853180408477783,-7.828348636627197,14.230734825134277,8.27239990234375
0,108808,-11.060954093933105,21.550397872924805,23.330524444580078,-0.7378222942352295
0,108808,3.579235315322876,19.8284912109375,-26.581016540527344,-11.231659889221191
0,108810,-4.4600677490234375,-22.300186157226562,-7.777872085571289,32.95998764038086
0,108810,1.2717825174331665,4.186075687408447,29.394269943237305,36.28745651245117
0,108810,6.390297889709473,22.86740493774414,-0.3613279163837433,-23.373159408569336
0,108810,-5.407663345336914,-40.532684326171875,-19.604297637939453,-2.1803879737854004
0,108812,-14.618273735046387,-52.8477783203125,-9.62460994720459,8.716130256652832
0,108814,-27.43768882751465,2.1887574195861816,6.669206619262695,-8.986358642578125
0,108816,1.671584963798523,10.906769752502441,19.6661319732666,15.205840110778809
0,108818,25.599620819091797,23.009307861328125,1.8965169191360474,-2.2927842140197754
0,108820,4.128113746643066,9.438432693481445,-22.10540771484375,-9.365727424621582
0,108822,2.4942901134490967,-26.21836280822754,14.149574279785156,10.162010192871094
0,108824,11.92331314086914,18.591632843017578,26.4699649810791,-21.634292602539062
0,108826,-10.81157398223877,21.076950073242188,-55.58917236328125,-39.64626693725586
0,108828,-3.1373398303985596,-8.067296981811523,-11.038482666015625,-11.260635375976562
0,108830,10.136030197143555,12.954265594482422,50.48716735839844,16.07452964782715
0,108832,-6.650782108306885,8.988848686218262,-8.605380058288574,25.338354110717773
0,108834,9.680608749389648,-16.564922332763672,-4.090214729309082,25.91962242126465
0,108836,12.325663566589355,-30.38749122619629,-0.3203158676624298,-6.073730945587158
0,108838,-23.91785430908203,21.565017700195312,-9.52569580078125,-22.86566162109375
0,108840,-8.766883850097656,38.87721252441406,7.215232849121094,10.3962984085083
0,108842,12.882099151611328,-36.9995231628418,1.695685863494873,1.3970041275024414
0,108924,-8.128973960876465,-20.632312774658203,-3.651746988296509,-6.646162509918213
0,108924,-7.832408428192139,17.057998657226562,0.5948716402053833,22.770404815673828
0,108924,14.78321361541748,-2.1801390647888184,-3.3180079460144043,-17.481605529785156
0,108924,-1.5193815231323242,-3.668504238128662,-0.5869333744049072,-30.707815170288086
0,108924,-22.400964736938477,14.913727760314941,11.022594451904297,18.491382598876953
0,108924,18.83365821838379,32.03886032104492,6.507086753845215,7.336258888244629
0,108925,25.867874145507812,1.6446757316589355,-7.627116680145264,-7.561672687530518
0,108925,-18.065732955932617,-32.96601486206055,-14.307568550109863,2.9526379108428955
0,108925,-6.116339683532715,-17.018850326538086,-3.4678101539611816,3.548649549484253
0,108925,2.467747688293457,0.2497054636478424,-0.5036372542381287,7.615955352783203
0,108925,-12.770608901977539,5.3633928298950195,12.502548217773438,-7.797512054443359
0,108925,14.69045352935791,10.914570808410645,13.103959083557129,-5.700640678405762
0,108926,8.79001522064209,-0.917992353439331,-13.910248756408691,23.30597496032715
0,108926,-14.946664810180664,-10.294380187988281,6.326559543609619,-0.560395359992981
0,108926,10.268972396850586,4.978424072265625,0.753704845905304,-14.85363483428955
0,108926,6.088736057281494,5.9752516746521,-16.578447341918945,0.8380727767944336
0,108926,-28.463911056518555,4.765965461730957,18.522964477539062,-8.440868377685547
0,108927,10.152113914489746,1.8752351999282837,-6.938501358032227,-3.5890822410583496
0,108927,27.05038070678711,-14.61888313293457,-22.506242752075195,-7.2461419105529785
0,108927,-33.05156707763672,4.132255554199219,17.65146255493164,-2.109127998352051
0,108927,-7.563861846923828,1.2847402095794678,15.118542671203613,26.939123153686523
0,108927,32.99029541015625,-10.284903526306152,-7.202791213989258,-1.8591872453689575
0,108927,-7.253096580505371,4.553419589996338,-12.029664993286133,-4.561837196350098
0,108928,-4.477105617523193,15.62557601928711,1.7386513948440552,12.754332542419434
0,108928,10.837372779846191,11.480589866638184,15.848995208740234,-14.12548542022705
0,108928,-10.294079780578613,-7.727868556976318,0.6142948865890503,-4.927890300750732
0,108928,-3.1399521827697754,0.6508151292800903,-5.089452743530273,5.484302997589111
0,108928,-0.8713353872299194,1.7157588005065918,14.76115608215332,-4.747096061706543
0,108928,-3.175278425216675,-15.404520034790039,9.28678035736084,11.7940673828125
0,108929,6.4001617431640625,-1.165353775024414,-12.865643501281738,7.62913703918457
0,108929,19.037813186645508,6.997335433959961,-15.823286056518555,-19.204893112182617
0,108929,-2.1834299564361572,-13.342775344848633,-7.5377197265625,-3.9189836978912354
0,108929,-29.6513671875,-13.242053031921387,-8.59386157989502,11.062246322631836
0,108929,-0.5488872528076172,13.726371765136719,5.908848762512207,1.9290040731430054
0,108929,11.806236267089844,9.616493225097656,2.1601593494415283,0.9838841557502747
0,108930,-6.779747486114502,-19.235002517700195,-13.234150886535645,4.246497631072998
0,108930,-0.3196028470993042,1.7606500387191772,11.010815620422363,-6.027808666229248
0,108930,7.674652576446533,20.40184783935547,3.392683982849121,-7.575970649719238
0,108930,-1.838385820388794,-2.722470283508301,-11.228475570678711,3.5274534225463867
0,108930,-13.486328125,-16.850358963012695,13.273219108581543,-5.629125118255615
0,108930,5.125847816467285,5.65973424911499,9.782489776611328,-4.119603633880615
0,108932,22.76376724243164,-24.03847885131836,-12.766840934753418,18.823087692260742
0,108932,-16.52251625061035,-28.67020606994629,9.523575782775879,14.745128631591797
0,108932,2.455740451812744,52.17681121826172,13.87650203704834,-13.096439361572266
0,108932,15.966585159301758,-1.36200749874115,-10.95965576171875,-7.264400482177734
0,108933,-17.870569229125977,-49.00686264038086,4.633811950683594,8.382892608642578
0,108936,1.1790685653686523,15.24238109588623,7.0396199226379395,4.634377479553223
0,108937,19.84718132019043,28.657018661499023,-11.256053924560547,-9.080643653869629
0,108940,4.054135322570801,37.141544342041016,-9.48001766204834,-13.328201293945312
0,108942,-24.878448486328125,27.99964714050293,4.964118003845215,11.789957046508789
0,108944,-3.546048879623413,-21.540061950683594,4.567580223083496,0.3826472759246826
0,108946,18.82398223876953,-15.53614330291748,6.141619682312012,-11.92750072479248
0,108948,-9.071126937866211,17.65536117553711,0.43608394265174866,-10.265064239501953
0,108950,-21.122421264648438,-6.79318380355835,-13.665647506713867,-14.526739120483398
0,108952,8.41356372833252,-17.87371253967285,7.557986736297607,22.604528427124023
0,108954,25.85026741027832,11.875384330749512,4.8306427001953125,23.245298385620117
0,108956,-5.459834575653076,-19.57036018371582,-6.4367499351501465,4.029285907745361
0,108958,-29.252418518066406,-32.60232162475586,0.7261178493499756,-3.052997350692749
0,108960,9.575942993164062,-3.016448736190796,-25.734220504760742,-14.46236515045166
0,108962,35.13481903076172,24.86673927307129,2.625932216644287,-0.6634619235992432
0,108964,-17.286975860595703,6.466823577880859,25.604496002197266,8.918510437011719
0,108966,-25.391660690307617,-13.276272773742676,-22.379899978637695,2.7162535190582275
0,108969,16.008386611938477,35.79619216918945,3.9159510135650635,-6.822014808654785
0,109063,9.501864433288574,16.311365127563477,33.8806266784668,-12.096761703491211
0,109063,-0.7049217224121094,-27.825868606567383,-17.83255958557129,-17.779321670532227
0,109063,-1.0390379428863525,-7.390354633331299,-18.605695724487305,1.6879549026489258
0,109063,-13.1227445602417,16.739290237426758,19.000722885131836,16.465850830078125
0,109063,2.028128147125244,4.362541198730469,-7.674337387084961,-19.365032196044922
0,109063,1.3712568283081055,-23.077552795410156,-6.406315803527832,-4.188230514526367
0,109064,-11.899864196777344,-10.996550559997559,14.882829666137695,29.634994506835938
0,109064,9.664613723754883,13.457989692687988,-7.94864559173584,4.695230960845947
0,109064,4.128674030303955,-0.42601412534713745,-2.348083972930908,0.43764549493789673
0,109064,-8.942389488220215,-15.300078392028809,16.40388298034668,9.572115898132324
0,109064,-2.2193191051483154,9.731980323791504,-13.081442832946777,-0.7077831625938416
0,109064,7.731412410736084,25.565637588500977,-9.381795883178711,-13.565217018127441
0,109065,11.679481506347656,-5.607041358947754,3.481644868850708,-4.874730110168457
0,109065,-10.776460647583008,-30.314420700073242,2.799617290496826,21.259275436401367
0,109065,0.8766277432441711,8.800471305847168,13.150178909301758,2.0979044437408447
0,109065,19.85915756225586,19.858386993408203,-17.41391372680664,-17.012893676757812
0,109065,-5.481351852416992,-8.617504119873047,-6.102428913116455,-4.654125690460205
0,109065,-17.476478576660156,-1.9822300672531128,18.458988189697266,1.5955352783203125
0,109066,-2.089531898498535,-15.554996490478516,-1.0886023044586182,9.694209098815918
0,109066,27.443546295166016,9.795120239257812,1.1994690895080566,-10.642644882202148
0,109066,-3.2738287448883057,22.262910842895508,1.4211173057556152,-11.78011417388916
0,109066,-38.667842864990234,-26.016399383544922,-7.126740455627441,12.372254371643066
0,109066,5.0840559005737305,-0.6410033702850342,13.689541816711426,14.508560180664062
0,109067,21.000341415405273,24.731748580932617,5.447389125823975,-10.74623966217041
0,109067,4.920618057250977,-9.889102935791016,-15.673595428466797,-17.647666931152344
0,109067,-9.992015838623047,-6.646063327789307,-4.505091667175293,17.450239181518555
0,109067,-16.808452606201172,5.4909586906433105,8.019312858581543,7.952136039733887
0,109067,16.239492416381836,-6.4107136726379395,1.4264380931854248,-5.659505367279053
0,109067,10.641488075256348,-1.123286485671997,-11.942692756652832,-3.5561602115631104
0,109068,-22.853166580200195,-10.792439460754395,-2.7884814739227295,-0.505628228187561
0,109068,4.74449348449707,14.435696601867676,13.82370662689209,8.750741004943848
0,109068,28.729063034057617,25.339069366455078,-5.0857696533203125,1.9179236888885498
0,109068,1.0548090934753418,-24.830617904663086,-20.02028465270996,5.1946330070495605
0,109068,-28.680767059326172,-12.622775077819824,5.812193870544434,-1.6106891632080078
0,109068,2.3782835006713867,13.619172096252441,16.800514221191406,-13.437719345092773
0,109069,21.66813850402832,0.8308576345443726,0.5046020746231079,-5.165225982666016
0,109069,-16.77723503112793,-6.107762813568115,1.1806057691574097,-0.36660924553871155
0,109069,-9.512479782104492,5.247067928314209,10.820137977600098,2.9711079597473145
0,109069,12.960634231567383,7.237506866455078,-12.51695442199707,4.8130292892456055
0,109069,-11.163415908813477,-16.977930068969727,-15.774928092956543,-3.448862075805664
0,109069,-6.254046440124512,-9.647778511047363,3.157845973968506,-13.935355186462402
0,109070,28.277782440185547,4.51646089553833,-1.4321895837783813,0.20537351071834564
0,109070,-4.194772720336914,9.573812484741211,-4.415079116821289,20.566762924194336
0,109070,-34.89799118041992,16.544227600097656,7.02754545211792,-20.54130744934082
0,109070,19.36086654663086,-23.68267059326172,1.3166766166687012,-15.468286514282227
0,109070,10.001437187194824,-5.629068374633789,7.406148910522461,26.533946990966797
0,109070,-12.004437446594238,26.82431411743164,4.807040691375732,-13.968477249145508
0,109072,32.923519134521484,-19.12816047668457,-10.98514461517334,9.52104663848877
0,109072,-4.99029541015625,-15.070123672485352,3.4728150367736816,48.52845001220703
0,109072,-35.64301300048828,5.537261962890625,2.0802371501922607,-9.479899406433105
0,109072,14.018082618713379,-4.053693771362305,12.696449279785156,-31.663599014282227
0,109072,21.64542579650879,-1.2038750648498535,5.8794779777526855,11.141289710998535
0,109074,-2.0381784439086914,22.077091217041016,-3.3816704750061035,13.644851684570312
0,109076,-26.029817581176758,-0.16835758090019226,-11.78303050994873,-0.8545166254043579
0,109078,-7.614940166473389,-44.85661697387695,-16.549863815307617,-5.323734760284424
0,109081,32.36444854736328,5.390235900878906,20.108463287353516,-28.75252914428711
0,109082,-14.416339874267578,46.0877571105957,-1.5487253665924072,6.838174343109131
0,109085,-34.12815856933594,30.87789535522461,-3.315303087234497,14.477395057678223
0,109086,16.562114715576172,-9.307368278503418,23.620786666870117,-1.426995873451233
0,109087,27.220733642578125,-27.959646224975586,-22.856319427490234,4.855177402496338
0,109090,-13.228415489196777,8.690437316894531,-36.19182205200195,-52.116302490234375
0,109091,-13.289131164550781,12.942416191101074,26.418659210205078,-25.25636100769043
0,109094,19.33184051513672,-7.388726234436035,29.87409210205078,53.36467742919922
0,109095,0.8484206199645996,-21.227710723876953,-15.474771499633789,31.609695434570312
0,109098,-1.3198227882385254,-1.5516066551208496,-16.09693145751953,7.787383079528809
0,109099,8.274381637573242,17.49545669555664,-7.728992462158203,-2.0238847732543945
0,109102,-11.132467269897461,-11.650819778442383,7.093853950500488,-30.513813018798828
0,109103,-19.310518264770508,-14.28282356262207,16.67163848876953,-4.693997383117676
0,109106,11.43073844909668,5.915726661682129,2.185473680496216,20.48883628845215
0,109107,29.96303367614746,15.166219711303711,-5.615979194641113,-21.550783157348633
0,109213,-12.540478706359863,4.033830165863037,-12.789107322692871,-6.820638656616211
0,109213,-23.462873458862305,-19.130084991455078,-1.3398857116699219,21.931350708007812
0,109214,-2.945767641067505,4.892768859863281,10.459660530090332,0.3250143229961395
0,109214,7.959257125854492,26.824665069580078,-17.58732032775879,2.4586384296417236
0,109214,-2.4305508136749268,-19.171289443969727,5.740561008453369,6.825664043426514
0,109214,-6.369181156158447,-21.774078369140625,27.894250869750977,-3.7552378177642822
0,109214,24.72471046447754,11.00708293914795,-6.377565383911133,-7.149984836578369
0,109214,16.399805068969727,-10.974605560302734,-14.010196685791016,-4.332304954528809
0,109215,-19.11625862121582,4.3995537757873535,-6.051083087921143,6.703855037689209
0,109215,-22.864681243896484,10.723525047302246,5.850356578826904,7.3408026695251465
0,109215,8.707296371459961,-19.073331832885742,8.336706161499023,-1.541724681854248
0,109215,17.586219787597656,19.710124969482422,3.9377548694610596,-7.971790313720703
0,109215,-9.490958213806152,31.411178588867188,5.90183687210083,-2.7551472187042236
0,109215,0.7245348691940308,-23.288166046142578,-0.08381456881761551,10.974617958068848
0,109216,12.999860763549805,-4.897928714752197,-10.700459480285645,-22.471424102783203
0,109216,-9.203808784484863,23.362945556640625,-8.904075622558594,-14.922122955322266
0,109216,-3.101263999938965,-8.149682998657227,3.05461049079895,17.952171325683594
0,109216,3.9906277656555176,-3.36008358001709,5.737547397613525,7.456912040710449
0,109216,-0.41825640201568604,7.89317512512207,12.735174179077148,-0.7262834310531616
0,109216,1.1257132291793823,-3.5054028034210205,12.684881210327148,-11.254997253417969
0,109217,-4.947268486022949,-17.07777214050293,-26.001792907714844,15.57630443572998
0,109217,-11.168993949890137,-4.455461502075195,-12.791708946228027,19.82929229736328
0,109217,1.7488033771514893,30.64827537536621,20.866968154907227,-22.79929542541504
0,109217,14.80872917175293,-4.481418132781982,3.869612455368042,-23.126739501953125
0,109217,-10.511661529541016,-27.183971405029297,-17.3925724029541,-3.1023457050323486
0,109217,-0.6962438821792603,5.679899215698242,-12.797182083129883,16.721464157104492
0,109218,8.497817039489746,6.079658031463623,14.093152046203613,20.763248443603516
0,109218,-1.106337308883667,1.6309510469436646,-1.0368263721466064,-19.627859115600586
0,109218,5.42979621887207,-6.970893859863281,2.642378807067871,-16.477458953857422
0,109218,-11.110665321350098,3.115752696990967,14.2833833694458,32.75226593017578
0,109218,1.2833027839660645,9.096000671386719,-8.127850532531738,5.024541854858398
0,109218,5.600255489349365,-6.653219223022461,-23.899778366088867,-28.619609832763672
0,109219,4.783500671386719,0.9317888617515564,-6.1571784019470215,9.463438034057617
0,109219,-3.894449472427368,10.892302513122559,36.169776916503906,21.881412506103516
0,109219,-14.129165649414062,7.62653923034668,12.288848876953125,-1.5833200216293335
0,109219,13.204373359680176,-17.766803741455078,-28.312145233154297,1.1780152320861816
0,109219,-6.354933738708496,-10.234065055847168,4.237532615661621,1.6781562566757202
0,109220,-10.968426704406738,3.5938918590545654,23.13556480407715,-2.695312023162842
0,109220,12.341466903686523,4.646636009216309,-18.355220794677734,-12.61803150177002
0,109220,19.40962791442871,7.511456489562988,-28.18607521057129,-20.80027961730957
0,109220,-0.3817213475704193,-35.5679817199707,-6.645096778869629,7.784268856048584
0,109220,-26.554645538330078,-7.64340877532959,12.167978286743164,2.079585313796997
0,109220,12.322305679321289,43.06871795654297,5.14060115814209,-5.705147743225098
0,109221,23.183284759521484,-21.34908676147461,-0.29736223816871643,6.559516429901123
0,109221,-2.6584274768829346,-26.82976722717285,9.505577087402344,-4.442539691925049
0,109221,-11.252915382385254,15.351792335510254,1.9241997003555298,11.85884952545166
0,109221,-28.187490463256836,11.343131065368652,1.3826645612716675,5.885359764099121
0,109221,-7.628591060638428,17.176010131835938,-17.852367401123047,-19.67343521118164
0,109221,15.44018840789795,-19.81197166442871,3.2987074851989746,8.276835441589355
0,109222,-2.304489850997925,-4.830902576446533,30.16436767578125,25.62409210205078
0,109222,0.9257423877716064,33.7836799621582,-6.272024154663086,-6.874708652496338
0,109222,2.595637798309326,-16.216407775878906,-6.937757968902588,-26.41739273071289
0,109223,-20.91763687133789,-10.919785499572754,7.747027397155762,1.9684646129608154
0,109223,-7.409470081329346,9.078286170959473,3.327022075653076,0.02142374962568283
0,109224,36.89373779296875,-2.478630304336548,-5.344425201416016,-25.081148147583008
0,109224,13.537301063537598,6.722261428833008,-20.13013458251953,19.479137420654297
0,109224,-38.269012451171875,-1.2673614025115967,-12.976190567016602,31.75501823425293
0,109224,-5.3817596435546875,-3.274259090423584,17.61272430419922,-8.540955543518066
0,109225,44.0670166015625,-3.229074716567993,7.9905805587768555,-31.030141830444336
0,109228,13.148966789245605,5.377060890197754,-8.57363510131836,-4.462708950042725
0,109229,-17.416982650756836,21.061607360839844,16.099275588989258,34.54370880126953
0,109232,-14.354265213012695,-22.125642776489258,4.959351062774658,20.80511474609375
0,109233,-9.330857276916504,-49.43996047973633,-13.6240816116333,7.168729782104492
0,109236,14.992865562438965,31.6889705657959,14.371599197387695,-14.608248710632324
0,109237,13.977895736694336,57.251365661621094,19.660301208496094,-6.529240131378174
0,109240,-4.182995796203613,-8.606962203979492,-19.32145118713379,-16.447280883789062
0,109241,14.111592292785645,-14.312493324279785,-27.539939880371094,-36.22461700439453
0,109244,-13.951672554016113,2.100968360900879,11.10401439666748,16.220264434814453
0,109245,-40.8467903137207,-6.638998031616211,18.688337326049805,34.767120361328125
0,109248,37.79232406616211,-5.529992580413818,-14.526664733886719,5.580162525177002
0,109249,13.379469871520996,-8.734709739685059,-18.604843139648438,-23.729814529418945
0,109252,-37.29513168334961,-17.802690505981445,-2.20167875289917,-25.403188705444336
0,109253,-5.158387660980225,-17.01592445373535,10.201915740966797,19.173105239868164
0,109256,13.594392776489258,2.9080207347869873,5.7049760818481445,44.908851623535156
0,109258,19.53832244873047,78.51825714111328,10.657580375671387,16.593994140625
0,109260,-4.10452938079834,18.270490646362305,1.4034321308135986,-20.013744354248047
0,109262,2.373251438140869,-71.73058319091797,-16.464866638183594,-26.71494483947754
0,109378,-9.51525592803955,0.1993585228919983,18.75631332397461,3.0956859588623047
0,109378,-12.945497512817383,3.8643124103546143,6.275473117828369,15.544569969177246
0,109378,21.29124641418457,0.8682206273078918,-16.305540084838867,-7.414812088012695
0,109378,3.3167433738708496,16.431354522705078,1.7115100622177124,-18.057342529296875
0,109379,-19.868274688720703,2.9554243087768555,-4.923426151275635,2.99316143989563
0,109379,-11.187127113342285,4.761279582977295,7.085241794586182,6.299814701080322
0,109379,13.97183609008789,-14.68876838684082,-4.360049247741699,-28.21128273010254
0,109379,4.298070907592773,-22.480350494384766,-23.793479919433594,-12.217957496643066
0,109379,-28.03890037536621,-3.894174814224243,20.371633529663086,36.77782440185547
0,109379,18.83666229248047,5.297065734863281,2.0148046016693115,-0.18843787908554077
0,109380,16.905881881713867,-3.1603949069976807,-26.32295036315918,-21.149532318115234
0,109380,-19.677928924560547,4.301487922668457,7.506727695465088,22.14959716796875
0,109380,7.8867621421813965,34.46725082397461,16.330257415771484,9.133830070495605
0,109380,4.650015830993652,16.164085388183594,10.151922225952148,0.1788301020860672
0,109380,-0.42428824305534363,-20.873138427734375,-0.30091434717178345,9.152462005615234
0,109380,-7.934859752655029,-0.36155495047569275,10.941825866699219,-16.147844314575195
0,109381,7.5002546310424805,0.28722378611564636,2.744243860244751,-12.378805160522461
0,109381,19.119226455688477,-5.236030101776123,-25.225229263305664,-9.528783798217773
0,109381,-19.12274742126465,-10.683444023132324,-11.206278800964355,-1.7232269048690796
0,109381,-23.98946762084961,-9.72537899017334,7.237248420715332,17.176006317138672
0,109381,2.319159746170044,-3.278273820877075,8.76803970336914,-7.1410136222839355
0,109382,20.116361618041992,1.0689244270324707,7.59165096282959,1.7579289674758911
0,109382,11.49349594116211,24.513025283813477,2.94950008392334,6.070049285888672
0,109382,-1.6034693717956543,-13.631811141967773,-14.050904273986816,-12.900444984436035
0,109382,-11.282671928405762,-36.00618362426758,-6.953083038330078,8.3004150390625
0,109382,0.9700430631637573,26.59733009338379,7.873179912567139,4.400261402130127
0,109382,10.207629203796387,38.059173583984375,-9.762018203735352,-22.185523986816406
0,109383,-9.859825134277344,-9.25155258178711,-4.44675350189209,-1.589560627937317
0,109383,-2.419755220413208,-32.02448272705078,11.754595756530762,16.01041030883789
0,109383,0.5778335928916931,4.595848083496094,4.695534706115723,-0.08426809310913086
0,109383,3.0051305294036865,27.378562927246094,13.548251152038574,-6.842578887939453
0,109383,11.364060401916504,-18.59929084777832,-1.7305716276168823,-0.3070014417171478
0,109383,4.934103965759277,7.999176979064941,-9.224803924560547,4.406612873077393
0,109384,-1.3822152614593506,20.391565322875977,4.514385223388672,0.8802375793457031
0,109384,-18.591529846191406,-33.98067092895508,-10.498062133789062,5.717113494873047
0,109384,-3.6771857738494873,-11.763432502746582,-0.6464531421661377,-2.100581645965576
0,109384,12.409529685974121,12.134568214416504,-2.730588436126709,-4.431286811828613
0,109384,-18.077106475830078,-6.438007354736328,7.305410385131836,20.679075241088867
0,109384,-5.20614767074585,4.87507438659668,16.61231803894043,3.763308525085449
0,109385,-0.10354108363389969,5.943697929382324,-22.60209846496582,-8.583005905151367
0,109385,-14.932077407836914,-15.573321342468262,-15.40371322631836,18.335336685180664
0,109385,12.723298072814941,-3.4861245155334473,19.656997680664062,14.824430465698242
0,109385,10.087040901184082,15.277909278869629,8.613886833190918,-14.220346450805664
0,109385,-3.6579809188842773,6.451714038848877,-9.610795021057129,-17.719093322753906
0,109385,0.3782249093055725,7.930756092071533,2.0185489654541016,16.794349670410156
0,109386,11.996599197387695,8.55537223815918,-7.888847351074219,-1.2634766101837158
0,109386,17.51772117614746,-17.784324645996094,-11.072647094726562,-1.6236636638641357
0,109386,-10.738067626953125,-5.604244232177734,23.458539962768555,19.6995906829834
0,109386,-3.022782564163208,15.580451965332031,11.7735595703125,-26.271411895751953
0,109386,27.15997314453125,-5.020321846008301,-14.87698745727539,4.386918544769287
0,109386,-6.740041732788086,-13.725462913513184,2.8018009662628174,16.74067497253418
0,109387,-11.324652671813965,9.185806274414062,-2.221115827560425,-34.1535758972168
0,109387,-5.38685417175293,22.48079490661621,-8.290023803710938,-11.0546875
0,109387,-8.545097351074219,-4.607684135437012,4.956923961639404,-3.636662006378174
0,109387,12.914186477661133,-24.4468936920166,7.569393157958984,7.986340045928955
0,109387,-0.9460671544075012,19.168916702270508,-9.023045539855957,22.28487205505371
0,109387,-23.235355377197266,12.678953170776367,-8.521040916442871,-12.70910930633545
0,109388,-4.338631629943848,-37.53757858276367,23.844331741333008,-17.713653564453125
0,109389,26.366947174072266,2.275599479675293,6.373836040496826,-9.917799949645996
0,109389,-12.892794609069824,23.53104019165039,-12.403597831726074,15.797857284545898
0,109389,-14.351927757263184,-12.532219886779785,-12.825531959533691,15.837051391601562
0,109389,24.483795166015625,-13.938645362854004,-14.383359909057617,-10.193130493164062
0,109390,8.323458671569824,-4.281344890594482,8.12984561920166,7.563931465148926
0,109391,-3.206852436065674,0.07088536769151688,19.393587112426758,4.048887252807617
0,109392,-2.5599029064178467,2.655642032623291,9.668850898742676,5.304044723510742
0,109394,-1.4696975946426392,-20.432621002197266,-10.902871131896973,18.95306968688965
0,109396,-15.860739707946777,6.420106887817383,-2.6890640258789062,-19.30616569519043
0,109398,-2.165130138397217,55.62377166748047,4.262630939483643,-25.075824737548828
0,109400,39.82109069824219,10.189494132995605,-2.2113544940948486,-0.8814125061035156
0,109402,-14.594682693481445,-35.96307373046875,-9.753074645996094,14.774054527282715
0,109404,-25.819229125976562,-8.66191577911377,-17.58599853515625,19.210227966308594
0,109406,20.553312301635742,12.333706855773926,12.112056732177734,-16.97364616394043
0,109408,-23.630916595458984,5.689766883850098,16.689632415771484,-43.026649475097656
0,109410,-5.823731422424316,-8.263581275939941,1.3007166385650635,-15.132099151611328
0,109412,25.790203094482422,-16.1467227935791,2.2717220783233643,46.546546936035156
0,109414,-5.15380859375,2.8859105110168457,-0.8843954205513,42.4168701171875
0,109416,-3.278808116912842,5.302760601043701,-10.8800630569458,4.328832626342773
0,109418,-0.7516996264457703,14.905780792236328,-5.320631504058838,-17.98630714416504
0,109420,-3.5542867183685303,16.699491500854492,7.968485355377197,-31.360584259033203
0,109422,2.6654582023620605,-23.317813873291016,10.31178092956543,-8.550168991088867
0,109424,4.148339748382568,-8.451057434082031,2.9490716457366943,7.292479515075684
0,109426,14.912259101867676,1.7608119249343872,-11.92209243774414,10.499320983886719
0,109428,0.85044264793396,14.656991958618164,4.5764546394348145,7.0879316329956055
0,109430,-17.82721519470215,42.90484619140625,-2.019986867904663,-2.949714422225952
0,109557,3.317962646484375,-29.99358558654785,-22.178844451904297,22.03883171081543
0,109557,10.165639877319336,-45.69260787963867,17.566450119018555,18.44118881225586
0,109557,-12.49193000793457,4.6745781898498535,26.243850708007812,-16.98143768310547
0,109557,3.911377429962158,20.039941787719727,-21.658235549926758,-13.482053756713867
0,109557,8.887377738952637,7.697821140289307,-14.764827728271484,-6.499188423156738
0,109557,-16.318727493286133,-30.460208892822266,15.564159393310547,13.677569389343262
0,109558,-3.125466823577881,7.011773109436035,-6.038200378417969,6.484263896942139
0,109558,7.35162878036499,28.209980010986328,3.9577884674072266,-13.41181755065918
0,109558,0.012249022722244263,-7.003453731536865,21.85368537902832,2.175539255142212
0,109558,-9.289164543151855,6.8705010414123535,-18.345888137817383,-22.43482208251953
0,109558,0.7000051140785217,9.188206672668457,-23.25019073486328,-38.895416259765625
0,109559,-0.17407521605491638,-15.255817413330078,0.17164337635040283,9.209052085876465
0,109559,-15.467692375183105,-5.7419891357421875,9.557700157165527,25.155105590820312
0,109559,8.880973815917969,6.172109603881836,18.258005142211914,-4.216291904449463
0,109559,27.620649337768555,-2.6735117435455322,-2.802065134048462,2.585240125656128
0,109559,4.902406692504883,-0.05434591323137283,-11.820188522338867,11.634075164794922
0,109559,-21.17120933532715,-12.312602043151855,1.9353779554367065,0.8634859919548035
0,109560,1.4836190938949585,3.764995813369751,-10.478297233581543,-14.784279823303223
0,109560,14.339566230773926,24.858644485473633,0.7313212752342224,-1.3423831462860107
0,109560,-19.6412296295166,-22.743486404418945,6.600329399108887,19.96299934387207
0,109560,-9.000216484069824,-13.314003944396973,-3.4178404808044434,-12.509469032287598
0,109560,16.115245819091797,17.68778419494629,7.750265121459961,-9.710309982299805
0,109560,4.692161560058594,-1.2080581188201904,-4.886233806610107,-1.9036364555358887
0,109561,-7.5262451171875,-17.914121627807617,-1.50641667842865,0.9918320775032043
0,109561,-12.217352867126465,-10.776663780212402,0.597830593585968,25.73713493347168
0,109561,1.027070164680481,25.04613494873047,-0.3701275885105133,-5.150139331817627
0,109561,16.922252655029297,5.383763313293457,20.279340744018555,-13.624895095825195
0,109561,0.30137932300567627,-27.672094345092773,-5.021744251251221,4.359597682952881
0,109561,-6.652847766876221,-11.075469970703125,-12.06101131439209,19.75136947631836
0,109562,-6.7719035148620605,29.749988555908203,10.088059425354004,26.6269474029541
0,109562,-0.24592290818691254,28.243066787719727,2.40063214302063,-11.716054916381836
0,109562,31.46800994873047,-14.141056060791016,0.6280627846717834,-28.359975814819336
0,109562,5.693694114685059,-0.4275549650192261,-10.445714950561523,-8.727682113647461
0,109562,-25.773500442504883,-1.6489351987838745,-3.560612916946411,18.96043586730957
0,109563,1.8680938482284546,10.108233451843262,6.52454948425293,24.32168197631836
0,109563,9.136554718017578,22.364980697631836,-9.335182189941406,-5.1980671882629395
0,109563,-4.868802547454834,-29.835554122924805,5.663542747497559,-13.579571723937988
0,109563,-2.20772385597229,-21.09935188293457,4.301249027252197,-2.884202480316162
0,109563,-1.8579421043395996,15.534503936767578,3.5487492084503174,-3.2055022716522217
0,109563,-3.1789066791534424,4.105161666870117,1.1225641965866089,6.741311550140381
0,109564,-12.920663833618164,-4.88920783996582,-18.91411781311035,-10.903934478759766
0,109564,-1.124804973602295,-15.470731735229492,-6.122025966644287,-16.826791763305664
0,109564,21.235307693481445,-8.671098709106445,7.451332092285156,10.046175956726074
0,109564,-7.9093146324157715,7.91357421875,2.365468978881836,2.972982883453369
0,109564,-23.393442153930664,0.9268419742584229,0.6645346283912659,-8.350908279418945
0,109564,10.17538070678711,11.465307235717773,4.050251007080078,-9.445921897888184
0,109565,11.311959266662598,-5.116079807281494,2.809563398361206,-3.7946603298187256
0,109565,-4.339014053344727,-19.899612426757812,7.588560104370117,11.178192138671875
0,109565,7.69730806350708,8.512584686279297,-4.505221366882324,25.92677116394043
0,109565,-4.399501800537109,8.405713081359863,-6.076578140258789,0.7774080038070679
0,109565,8.743077278137207,-15.357837677001953,5.593182563781738,-26.0988826751709
0,109565,21.66370964050293,-2.2005889415740967,-17.142332077026367,2.6184985637664795
0,109566,-13.67383861541748,27.848495483398438,-8.810035705566406,20.57602310180664
0,109566,-3.5221409797668457,-3.1038596630096436,33.024227142333984,2.5074069499969482
0,109566,2.485016107559204,-25.001869201660156,-3.1525111198425293,-8.812532424926758
0,109566,-11.764884948730469,18.498760223388672,-32.82681655883789,12.441145896911621
0,109566,29.174297332763672,29.9360408782959,25.06070327758789,6.415588855743408
0,109566,10.60236644744873,9.013690948486328,18.52186393737793,-30.45893096923828
0,109567,-40.11286163330078,-10.5900297164917,-14.217034339904785,-7.1073174476623535
0,109567,13.251511573791504,-1.5845069885253906,6.363733768463135,11.02813720703125
0,109567,16.561368942260742,14.92414665222168,-1.4069087505340576,-12.827372550964355
0,109567,-23.66940689086914,-17.404565811157227,10.712902069091797,-5.3837456703186035
0,109567,9.987167358398438,-9.001736640930176,15.645873069763184,13.386115074157715
0,109569,10.863083839416504,18.154977798461914,-29.780179977416992,-0.31275177001953125
0,109569,-6.32185173034668,-5.37692928314209,-12.350671768188477,-13.040574073791504
0,109569,-21.264223098754883,-8.827787399291992,14.02571964263916,3.9977691173553467
0,109569,-8.9235200881958,-5.0528364181518555,-10.310529708862305,4.775777816772461
0,109569,29.385459899902344,-7.867575168609619,-11.04232406616211,-2.6028714179992676
0,109569,-4.399256229400635,15.608589172363281,5.113402366638184,6.485447406768799
0,109571,-24.510732650756836,-19.8902587890625,18.898475646972656,-9.553505897521973
0,109572,-8.509195327758789,-53.036155700683594,-12.008773803710938,38.25491714477539
0,109573,6.839088439941406,-2.7126336097717285,-17.783292770385742,52.83855056762695
0,109576,11.057282447814941,53.4931755065918,37.0040283203125,-60.42960739135742
0,109577,-12.800679206848145,39.630794525146484,3.581942081451416,-46.025108337402344
0,109580,-25.02132225036621,-38.775062561035156,-25.316225051879883,42.97905349731445
0,109581,-15.733322143554688,-44.000640869140625,5.854136943817139,18.279375076293945
0,109584,27.322298049926758,12.56643295288086,-1.9422874450683594,-32.54869079589844
0,109585,36.90933609008789,28.124486923217773,-3.421025514602661,12.176525115966797
0,109588,-5.54604959487915,22.68716812133789,6.782244682312012,9.631097793579102
0,109589,-11.671292304992676,12.9681978225708,-9.792245864868164,-28.862958908081055
0,109592,8.890915870666504,-21.432376861572266,-5.601360321044922,17.316692352294922
0,109593,3.578012704849243,-23.772802352905273,8.91313648223877,-4.415110111236572
0,109596,3.7654025554656982,23.333791732788086,12.975512504577637,-28.298973083496094
0,109597,9.505354881286621,26.472900390625,4.012720108032227,18.141210556030273
0,109600,8.821328163146973,-11.552034378051758,-21.665611267089844,60.16532516479492
0,109601,-6.923282146453857,-27.3974666595459,9.387001991271973,16.02350616455078
0,109604,-36.65032958984375,-12.67101001739502,8.602055549621582,-160.36549377441406
0,109605,10.361488342285156,37.01012420654297,-27.978221893310547,-69.68140411376953
0,109608,12.17941665649414,21.39320182800293,-0.4707992672920227,179.623046875
0,109609,-17.275035858154297,-26.941625595092773,29.072341918945312,62.10564041137695
0,109612,20.9815616607666,-23.69158172607422,3.26278018951416,-45.336097717285156
0,109748,3.540308713912964,10.0474214553833,-16.472929000854492,-10.99463176727295
0,109748,-9.339251518249512,29.823537826538086,4.103889465332031,-24.620515823364258
0,109749,10.176029205322266,-20.30890655517578,-6.776716232299805,8.21129322052002
0,109749,-10.124967575073242,-16.180686950683594,-9.793645858764648,3.8999226093292236
0,109749,-8.977505683898926,2.0452730655670166,17.414464950561523,4.880063056945801
0,109749,7.529017448425293,0.951034665107727,12.03146743774414,15.1072416305542
0,109749,-6.0642595291137695,15.485140800476074,-18.816625595092773,-19.383853912353516
0,109749,-10.739709854125977,-12.627679824829102,-9.569406509399414,-6.506350517272949
0,109750,-11.338765144348145,-2.973876953125,19.787147521972656,-10.033292770385742
0,109750,5.9402852058410645,21.608945846557617,7.999896049499512,-32.68570327758789
0,109750,9.351584434509277,-6.380858421325684,-21.57918357849121,-24.031208038330078
0,109750,-10.282655715942383,-8.605292320251465,-7.688510894775391,8.651013374328613
0,109750,9.43508243560791,8.641242027282715,20.081453323364258,33.66585922241211
0,109750,10.849883079528809,-20.968000411987305,9.10637378692627,0.22175098955631256
0,109751,-13.733390808105469,-9.26378059387207,0.206025168299675,9.281014442443848
0,109751,-8.376242637634277,30.667377471923828,-5.9339518547058105,10.59290599822998
0,109751,21.235353469848633,3.066131114959717,-0.08944477140903473,-0.5350490808486938
0,109751,19.071632385253906,-28.13279914855957,-0.5823487043380737,29.343971252441406
0,109751,-9.861122131347656,-18.28325653076172,-3.097792863845825,8.768594741821289
0,109751,-3.450413227081299,15.063394546508789,9.354839324951172,-20.91644287109375
0,109752,3.4025802612304688,15.695612907409668,-16.03003692626953,-18.09326934814453
0,109752,-7.896183490753174,-8.343966484069824,-9.7968111038208,15.083697319030762
0,109752,2.8110814094543457,0.03668959438800812,22.79315757751465,27.14377212524414
0,109752,14.666088104248047,3.529376745223999,-10.420395851135254,-23.975515365600586
0,109752,-2.2143049240112305,6.694433212280273,-20.943496704101562,-18.015634536743164
0,109752,-17.67844009399414,-0.1391080915927887,24.57618522644043,23.75156593322754
0,109753,-9.80927848815918,-15.427716255187988,12.866703987121582,-5.551717281341553
0,109753,18.60175323486328,16.711769104003906,-12.383072853088379,-11.090408325195312
0,109753,13.788957595825195,14.716731071472168,-7.391364574432373,-3.5984199047088623
0,109753,-19.10566520690918,-12.012683868408203,-17.678359985351562,-14.465744018554688
0,109753,-13.80477523803711,-8.143320083618164,0.728924572467804,2.9170162677764893
0,109753,-1.4275819063186646,1.1620686054229736,24.929054260253906,12.058250427246094
0,109754,11.095013618469238,18.61961555480957,0.526347279548645,-0.6514818668365479
0,109754,21.295915603637695,1.0989934206008911,-14.896193504333496,3.7521278858184814
0,109754,4.637561798095703,-12.353791236877441,14.883503913879395,16.97393226623535
0,109754,-22.796873092651367,5.231569766998291,7.7076616287231445,-18.200305938720703
0,109754,-13.032217979431152,-15.084843635559082,-17.155445098876953,-6.246082305908203
0,109755,15.074030876159668,-18.97618293762207,0.6604952812194824,15.594669342041016
0,109755,0.40663477778434753,17.899890899658203,0.5776248574256897,-11.26423168182373
0,109755,-2.6764957904815674,0.022287186235189438,10.373210906982422,-3.637272834777832
0,109755,10.306818008422852,-3.404005765914917,13.682302474975586,5.120312213897705
0,109755,13.296317100524902,23.328332901000977,-23.82489013671875,-5.178835868835449
0,109755,-15.020511627197266,-21.408906936645508,-4.861824035644531,2.688612222671509
0,109756,-24.946292877197266,-2.4604415893554688,16.703506469726562,24.606813430786133
0,109756,25.5489444732666,20.366952896118164,-13.013460159301758,-14.6875
0,109756,8.65556526184082,-9.111970901489258,-11.753408432006836,-20.960771560668945
0,109756,-18.45846939086914,18.945575714111328,23.019697189331055,32.840003967285156
0,109756,-0.5060458183288574,-3.061798334121704,18.324064254760742,-0.481368750333786
0,109756,6.472860336303711,-5.1505889892578125,-22.75920295715332,-14.036158561706543
0,109757,-2.1548399925231934,6.228453636169434,-15.786221504211426,4.947086811065674
0,109757,-16.865234375,-21.530752182006836,4.985061168670654,-25.47690200805664
0,109757,14.629843711853027,-3.5529463291168213,5.376386642456055,-14.045454025268555
0,109757,10.078817367553711,10.745621681213379,3.1882550716400146,3.3019511699676514
0,109757,-11.04293155670166,-4.991002559661865,-2.515566825866699,15.620984077453613
0,109757,14.76266860961914,-8.720285415649414,-1.302858591079712,6.141076564788818
0,109758,6.669297695159912,14.192366600036621,3.917241334915161,-18.394195556640625
0,109758,-7.268455982208252,2.8724169731140137,5.903613567352295,1.900081753730774
0,109758,-4.287203788757324,-6.626506328582764,-3.806905746459961,20.714134216308594
0,109758,-10.01362419128418,13.930632591247559,9.661968231201172,-7.2155442237854
0,109758,-12.325580596923828,-16.33013153076172,5.797628879547119,-43.83717346191406
0,109758,-1.970192551612854,-9.384662628173828,-20.47603988647461,11.160096168518066
0,109759,-4.5553507804870605,27.03925132751465,10.071460723876953,30.344388961791992
0,109759,5.090693950653076,0.560752272605896,9.378877639770508,-13.495802879333496
0,109759,17.422948837280273,-4.380056858062744,-10.647299766540527,3.1467349529266357
0,109759,-3.8174326419830322,-0.029605215415358543,-3.9234302043914795,12.676459312438965
0,109759,-5.855554580688477,-7.8521833419799805,-21.055252075195312,-21.970735549926758
0,109759,4.643022537231445,1.314205527305603,-2.5191829204559326,-1.9402835369110107
0,109760,-9.16307258605957,-2.7970874309539795,13.866154670715332,39.944759368896484
0,109761,6.730762004852295,-5.28902530670166,-2.954346179962158,-26.733945846557617
0,109761,20.92255401611328,12.827550888061523,9.149032592773438,-39.23161315917969
0,109761,-13.198464393615723,14.307212829589844,6.126321792602539,35.201534271240234
0,109761,-2.6400513648986816,8.672395706176758,-10.765703201293945,27.850400924682617
0,109762,3.631113052368164,-3.2740187644958496,15.654336929321289,-0.26404982805252075
0,109762,-5.549708366394043,-20.85442352294922,-1.486922264099121,-20.10295295715332
0,109763,12.340171813964844,-10.78727912902832,-20.943973541259766,-36.061527252197266
0,109764,-8.036460876464844,9.818673133850098,24.472328186035156,37.20535659790039
0,109766,-8.409321784973145,10.717073440551758,7.876580715179443,106.896240234375
0,109768,16.238624572753906,16.360830307006836,10.374022483825684,-44.69029235839844
0,109770,-5.15452766418457,6.796791076660156,18.2265625,-123.32886505126953
0,109772,-7.835773944854736,-50.81618881225586,-47.18655776977539,71.94524383544922
0,109774,-1.9806456565856934,-26.42397117614746,-24.917736053466797,85.1390151977539
0,109776,-2.8272790908813477,27.26628303527832,34.86564636230469,-42.83273696899414
0,109778,11.704547882080078,10.364328384399414,13.580199241638184,-6.978031635284424
0,109780,-0.021794473752379417,3.409940481185913,-34.77818298339844,29.225765228271484
0,109782,-16.3315372467041,-6.914804458618164,-11.0809907913208,-36.8072395324707
0,109785,-20.716245651245117,-25.85343360900879,1.0529707670211792,-120.04305267333984
0,109786,10.919800758361816,13.513252258300781,-2.0990936756134033,-68.81150817871094
0,109789,37.47972106933594,50.92457962036133,48.1015625,147.16030883789062
0,109790,-2.514902353286743,-6.8786797523498535,-15.296914100646973,118.47418975830078
0,109793,-12.863665580749512,-44.40753936767578,-19.38471794128418,-76.04975128173828
0,109794,14.249564170837402,2.646254301071167,23.125314712524414,-57.923728942871094
0,109797,4.9743475914001465,2.0527987480163574,-11.950738906860352,16.615949630737305
0,109798,-8.016369819641113,-3.9231109619140625,8.093213081359863,35.96269607543945
0,109799,-11.10205364227295,21.31382942199707,-29.579208374023438,-21.138898849487305
0,109802,7.506168842315674,-26.695720672607422,-8.35274887084961,1.3987047672271729
0,109803,8.370745658874512,-2.7827036380767822,43.11349105834961,52.375205993652344
0,109806,-31.684511184692383,70.1504898071289,10.963860511779785,-84.63712310791016
0,109807,-20.9996280670166,9.139531135559082,-25.609615325927734,-122.61917114257812
0,109955,23.914751052856445,-86.18484497070312,-45.851539611816406,119.07717895507812
0,109955,24.50547218322754,-41.51236343383789,16.443811416625977,136.98773193359375
0,109955,0.32603731751441956,58.71485900878906,28.52714729309082,-85.30321502685547
0,109955,-22.1339168548584,17.06209945678711,7.832582950592041,-35.13010025024414
0,109956,-7.617305278778076,-16.086061477661133,19.92848777770996,31.52083396911621
0,109956,14.815984725952148,10.827411651611328,-18.560157775878906,-24.040510177612305
0,109956,5.714841365814209,-3.7802252769470215,-12.320460319519043,6.817654132843018
0,109956,-11.60153579711914,-11.847600936889648,16.66107749938965,34.06031799316406
0,109956,-27.58083724975586,-8.702160835266113,-6.131416320800781,16.098304748535156
0,109956,29.046186447143555,17.306631088256836,-18.010887145996094,-18.60725212097168
0,109957,27.92833137512207,14.135485649108887,3.238621234893799,-32.13783264160156
0,109957,-38.27756881713867,13.331766128540039,23.727558135986328,-2.703800678253174
0,109957,4.173445701599121,26.051774978637695,-6.7790207862854,-15.052726745605469
0,109957,9.796792030334473,-32.864837646484375,-29.486940383911133,-24.839435577392578
0,109957,-19.61267852783203,-27.789709091186523,8.063860893249512,25.993778228759766
0,109957,13.37691593170166,15.58024787902832,20.397830963134766,30.948627471923828
0,109958,11.302188873291016,4.1215500831604,5.575701713562012,-2.643134593963623
0,109958,10.557019233703613,-0.6483878493309021,10.146462440490723,-9.291603088378906
0,109958,27.72484588623047,-0.4246778190135956,-11.20056438446045,0.130062997341156
0,109958,-16.774017333984375,4.40256404876709,-16.762191772460938,5.73110818862915
0,109958,-12.588885307312012,3.6706089973449707,13.45650863647461,-1.2518932819366455
0,109959,20.241310119628906,14.600393295288086,3.9772238731384277,-6.622520446777344
0,109959,-6.836055278778076,25.310039520263672,-6.152776718139648,-11.28100299835205
0,109959,-0.9149492383003235,12.004493713378906,5.412038326263428,-16.079313278198242
0,109959,-6.761255741119385,-16.864084243774414,-1.9954994916915894,1.8136428594589233
0,109959,-27.14325714111328,-18.961519241333008,-8.225691795349121,15.552538871765137
0,109959,12.392229080200195,-1.210845947265625,3.5274813175201416,19.128860473632812
0,109960,30.363037109375,-5.6005024909973145,5.577625751495361,27.527280807495117
0,109960,-7.423542499542236,9.107587814331055,1.8282091617584229,-4.932559967041016
0,109960,-19.275972366333008,-16.5399227142334,-10.605257034301758,-23.643699645996094
0,109960,1.6601309776306152,-46.764774322509766,-7.556539058685303,-12.448809623718262
0,109960,4.116919040679932,4.30818510055542,2.1594645977020264,-14.049116134643555
0,109960,-11.598998069763184,13.495101928710938,-5.865890979766846,-6.161650657653809
0,109961,-0.6933591365814209,-16.589778900146484,8.719707489013672,-12.464847564697266
0,109961,5.466564178466797,6.385420322418213,3.258561849594116,-4.98603630065918
0,109961,-31.26123046875,-2.804525136947632,-30.845481872558594,23.218421936035156
0,109961,-22.070226669311523,-22.412023544311523,-6.692026138305664,28.524797439575195
0,109961,36.2550163269043,11.018157005310059,24.18282127380371,-5.895081520080566
0,109961,2.0440969467163086,18.525550842285156,-7.990671634674072,-21.193933486938477
0,109962,-13.345972061157227,-5.46874475479126,-3.4549307823181152,14.720919609069824
0,109962,14.675664901733398,-19.433547973632812,7.282321453094482,30.814002990722656
0,109962,-13.400997161865234,28.118711471557617,13.586384773254395,4.740420818328857
0,109962,33.127437591552734,54.06595230102539,7.682331085205078,-9.394051551818848
0,109962,14.383005142211914,6.2160515785217285,-11.911405563354492,5.423141956329346
0,109962,-32.78056335449219,-7.275489807128906,18.698366165161133,-9.512548446655273
0,109963,22.616193771362305,-16.167938232421875,-5.759780406951904,1.947582483291626
0,109963,1.4116700887680054,5.627586841583252,-6.990239143371582,19.55191993713379
0,109963,-5.495932579040527,10.350686073303223,11.702269554138184,-25.48146629333496
0,109963,12.266225814819336,-29.232433319091797,-19.864051818847656,-24.04324722290039
0,109963,-29.730392456054688,1.2051490545272827,0.48475074768066406,16.75394630432129
0,109963,-1.5154030323028564,10.580208778381348,18.09670639038086,-17.970293045043945
0,109964,10.31824779510498,-15.926997184753418,-2.7352821826934814,-17.83854866027832
0,109964,-17.916603088378906,-1.531287431716919,-17.10270118713379,25.357677459716797
0,109964,8.361278533935547,9.83799934387207,-6.984545707702637,-24.423828125
0,109964,4.478299617767334,-24.472450256347656,11.509932518005371,-20.051029205322266
0,109964,-23.87079620361328,-37.93296432495117,9.825521469116211,42.320594787597656
0,109964,9.60022258758545,10.49477767944336,2.1053380966186523,3.4437947273254395
0,109965,27.893033981323242,37.46537399291992,3.962564706802368,-37.633209228515625
0,109965,-27.18111801147461,-3.734410047531128,-13.668787956237793,17.70926284790039
0,109965,-22.3670597076416,-18.977853775024414,-12.168866157531738,37.09495544433594
0,109965,27.751123428344727,11.046405792236328,9.36785888671875,-13.603236198425293
0,109965,11.41530704498291,15.643635749816895,-5.828723907470703,-3.5259530544281006
0,109965,-25.55801010131836,16.869352340698242,-1.9107279777526855,7.54642915725708
0,109966,5.653342247009277,5.6677446365356445,12.765545845031738,-20.996007919311523
0,109966,28.18116569519043,2.851289987564087,20.251413345336914,5.732326030731201
0,109966,8.288308143615723,18.21902847290039,7.5344648361206055,16.298316955566406
0,109966,6.241494655609131,0.3012620806694031,-20.323617935180664,-31.54593849182129
0,109966,-10.950319290161133,-16.887550354003906,-1.9720184803009033,-5.228804111480713
0,109966,-8.896763801574707,-3.1098344326019287,11.492880821228027,18.31503677368164
0,109967,10.40781307220459,3.9188830852508545,-18.680816650390625,-34.36988830566406
0,109967,-6.6961283683776855,-15.991037368774414,-5.380927085876465,-0.6784543991088867
0,109967,-23.348779678344727,-9.020201683044434,30.924579620361328,44.96900177001953
0,109967,4.336764812469482,-7.678933143615723,-2.8514227867126465,7.97912073135376
0,109968,28.368743896484375,0.28092777729034424,-37.17170715332031,-15.597797393798828
0,109969,-15.406255722045898,18.91375732421875,5.695701599121094,-2.0019283294677734
0,109969,-14.736059188842773,3.684244394302368,19.44711685180664,13.52766227722168
0,109969,28.444076538085938,4.318973541259766,-12.411585807800293,17.988019943237305
0,109969,-1.6382192373275757,1.224025011062622,-15.69906234741211,16.36260414123535
0,109969,-14.028074264526367,4.059971332550049,-5.929754257202148,1.4693284034729004
0,109969,10.132474899291992,5.2660112380981445,26.274765014648438,8.595809936523438
0,109971,9.368415832519531,-28.2390079498291,13.667445182800293,28.20009422302246
0,109972,-14.604610443115234,-74.35884094238281,-22.527538299560547,-17.631065368652344
0,109973,-14.215169906616211,-27.03134536743164,-14.611547470092773,-98.2606201171875
0,109976,7.337559700012207,63.11894226074219,5.618272304534912,2.5750789642333984
0,109977,14.336094856262207,45.93291473388672,11.081012725830078,101.98540496826172
0,109980,-3.779813289642334,-20.480648040771484,-1.4448071718215942,-60.39053726196289
0,109981,-10.249836921691895,-31.49677276611328,6.515594959259033,-42.61568069458008
0,109984,4.700305461883545,-30.06566047668457,-13.401766777038574,69.57119750976562
0,109985,2.327634811401367,30.373628616333008,1.155334234237671,-12.779060363769531
0,109988,7.407748222351074,112.17340087890625,47.37120819091797,-22.067245483398438
0,109989,-3.199737787246704,-2.3409981727600098,-8.006026268005371,-50.78354263305664
0,109992,-19.739717483520508,-72.00365447998047,-33.850608825683594,0.7395760416984558
0,109994,0.9951338768005371,-14.060613632202148,3.4948554039001465,86.60823822021484
0,109996,15.612354278564453,60.54784393310547,34.8593864440918,-4.875082492828369
0,109998,-14.734536170959473,29.04258155822754,8.740447044372559,-21.314882278442383
0,110000,-10.921490669250488,-75.96122741699219,-58.29113006591797,-12.558029174804688
0,110002,12.06564712524414,-18.21244239807129,-14.512554168701172,-8.109485626220703
0,110004,4.841366767883301,10.906289100646973,37.3398323059082,14.414711952209473
0,110006,-1.4713581800460815,-17.659624099731445,-8.406288146972656,-7.286867618560791
0,110008,-7.130304336547852,8.226208686828613,-32.745628356933594,-14.180099487304688
0,110010,0.7186177968978882,17.68524932861328,0.34595271944999695,5.761558532714844
0,110012,29.308568954467773,-12.563972473144531,39.801090240478516,59.15601348876953
0,110014,11.588765144348145,-6.486380577087402,37.10495376586914,13.229061126708984
0,110016,-41.1510124206543,22.07829475402832,-35.91648483276367,-88.8426742553711
0,110173,-14.330348014831543,-16.11358642578125,-48.92021560668945,-22.135313034057617
0,110173,25.726703643798828,-34.00625228881836,30.650598526000977,54.53099822998047
0,110173,2.526562452316284,16.25725555419922,30.478662490844727,23.085830688476562
0,110174,-2.5187559127807617,31.136302947998047,-0.617855429649353,-19.8841495513916
0,110174,16.394399642944336,12.833131790161133,-13.494060516357422,-9.413169860839844
0,110174,-15.025557518005371,4.982245922088623,1.8562871217727661,16.767982482910156
0,110174,4.1502299308776855,15.4690523147583,29.610103607177734,-18.7413387298584
0,110174,34.206974029541016,-1.24925696849823,-13.43762493133545,-0.36726638674736023
0,110174,-25.84960174560547,-16.773773193359375,-28.271718978881836,27.90473747253418
0,110175,-23.958314895629883,8.519983291625977,-0.6615604758262634,-0.7174906134605408
0,110175,22.109630584716797,-11.097997665405273,10.606698036193848,-1.850879192352295
0,110175,6.147566795349121,2.8741157054901123,6.4499430656433105,-4.198268413543701
0,110175,-4.574059009552002,21.36205291748047,3.2556252479553223,-8.52631664276123
0,110175,10.358604431152344,-20.572622299194336,0.02310636080801487,5.690219879150391
0,110176,-23.455228805541992,-17.8919677734375,-10.676861763000488,-3.0582010746002197
0,110176,-17.464635848999023,1.091949462890625,-10.754171371459961,-19.875747680664062
0,110176,19.603191375732422,7.909914970397949,2.031604290008545,-0.22789053618907928
0,110176,3.282379388809204,7.927456378936768,21.549911499023438,7.726202964782715
0,110176,1.0510773658752441,-11.871623039245605,2.5117664337158203,-4.927822113037109
0,110176,12.548248291015625,-12.621683120727539,-36.305057525634766,2.8461499214172363
0,110177,0.15056943893432617,0.18144996464252472,-15.01976490020752,1.8155555725097656
0,110177,-17.80132293701172,7.425184726715088,42.86388397216797,9.906977653503418
0,110177,-3.01865553855896,-1.9085479974746704,15.904879570007324,4.940818786621094
0,110177,10.646967887878418,-6.264371395111084,-30.24390411376953,-20.668916702270508
0,110177,-11.518705368041992,5.310514450073242,2.1118218898773193,3.7520439624786377
0,110177,-31.557043075561523,-12.759812355041504,3.414628267288208,15.647382736206055
0,110178,-5.160556793212891,-10.90162181854248,-12.494256019592285,-14.32223129272461
0,110178,21.869001388549805,12.808820724487305,0.5967562198638916,-2.1141772270202637
0,110178,-3.9536023139953613,4.580074310302734,2.5537474155426025,18.578258514404297
0,110178,-10.368063926696777,14.686479568481445,8.310624122619629,-10.82752513885498
0,110178,16.48874855041504,21.57651138305664,8.210177421569824,-13.444469451904297
0,110178,14.994215965270996,-4.208907127380371,-3.4059345722198486,13.14230728149414
0,110179,-3.2548985481262207,-4.550875663757324,-1.7085742950439453,-5.719264984130859
0,110179,-1.3662312030792236,-1.7426759004592896,-7.521170616149902,-8.524958610534668
0,110179,-3.866560220718384,5.922653675079346,16.250667572021484,8.83713150024414
0,110179,-5.087391376495361,8.476950645446777,6.995166778564453,3.950085163116455
0,110179,11.711653709411621,-14.7601318359375,-18.827180862426758,-18.148008346557617
0,110179,5.127620220184326,-18.772871017456055,-2.950904369354248,-9.380836486816406
0,110180,-5.189682960510254,-1.858698844909668,-21.550458908081055,34.41600036621094
0,110180,2.3730220794677734,20.601211547851562,7.896928787231445,8.42795467376709
0,110180,6.607688903808594,1.3172465562820435,32.19623947143555,-20.307090759277344
0,110180,-1.578284502029419,-18.216955184936523,0.16519075632095337,10.812686920166016
0,110180,-6.129219055175781,3.4388515949249268,-2.30708384513855,5.6626996994018555
0,110180,3.3339054584503174,7.606278896331787,-8.545709609985352,-16.919748306274414
0,110181,-3.7261524200439453,-1.6953556537628174,-6.540482521057129,4.409671783447266
0,110181,-4.657444000244141,-23.372596740722656,1.6141148805618286,16.74532127380371
0,110181,11.413703918457031,5.911773204803467,-0.20440711081027985,8.310772895812988
0,110181,-1.0299149751663208,24.35676383972168,3.3300352096557617,-3.937098503112793
0,110181,-4.5870561599731445,-15.26685619354248,-5.488011837005615,-13.553991317749023
0,110181,4.694758892059326,-5.393019676208496,-1.866268515586853,-9.048460006713867
0,110182,-4.898236274719238,10.016127586364746,15.206522941589355,-11.03311824798584
0,110182,-6.669487476348877,11.414190292358398,1.2118347883224487,13.761655807495117
0,110182,-5.23736047744751,-6.680105686187744,-23.622638702392578,20.153596878051758
0,110182,10.488810539245605,-9.3237886428833,3.520996570587158,-31.027957916259766
0,110182,24.335622787475586,11.040395736694336,4.499087810516357,-6.3383917808532715
0,110183,-5.735698699951172,8.66715145111084,-16.15134620666504,28.969528198242188
0,110183,-12.929610252380371,-2.2561802864074707,4.3275146484375,0.2686234712600708
0,110183,-7.734782695770264,-22.453989028930664,19.24932289123535,9.326655387878418
0,110183,-14.528797149658203,11.286130905151367,12.012543678283691,-1.9866690635681152
0,110183,14.57370662689209,27.23235321044922,-18.826425552368164,-25.1492977142334
0,110183,18.751779556274414,-35.9200553894043,-1.9463034868240356,3.344172477722168
0,110184,-5.7236433029174805,-21.030981063842773,18.038223266601562,7.757350921630859
0,110184,-16.89691734313965,36.88412857055664,-25.112146377563477,-4.565394878387451
0,110184,-14.76814079284668,6.871274471282959,-3.284538507461548,3.625767230987549
0,110184,23.842378616333008,-20.26580810546875,32.68397521972656,7.1232123374938965
0,110184,17.475969314575195,2.252213478088379,7.410820007324219,-11.871980667114258
0,110184,-10.780065536499023,4.100436687469482,-14.069113731384277,-17.54036521911621
0,110185,-16.981718063354492,-4.57750129699707,-20.533275604248047,11.0809326171875
0,110185,-13.02810001373291,3.537425994873047,17.826618194580078,18.922134399414062
0,110185,18.826969146728516,13.47746467590332,17.188194274902344,-9.542276382446289
0,110185,-0.24556387960910797,-12.105806350708008,-18.824447631835938,-11.526848793029785
0,110185,-10.671366691589355,-22.353853225708008,-5.476548194885254,9.20866584777832
0,110185,15.308794021606445,11.947144508361816,-3.8600006103515625,4.773174285888672
0,110186,10.66932201385498,12.87167739868164,1.2646204233169556,-2.883087396621704
0,110186,-3.5125958919525146,4.016148090362549,19.61421775817871,-2.950650691986084
0,110186,-9.508974075317383,0.9584488272666931,-10.368879318237305,-8.905532836914062
0,110186,3.2024776935577393,-6.183714389801025,-25.34168243408203,-7.532382488250732
0,110186,17.970584869384766,1.5101399421691895,16.596864700317383,11.978104591369629
0,110188,10.619316101074219,-14.57822036743164,12.99625015258789,7.205191135406494
0,110188,-21.945690155029297,-7.747514724731445,-7.14475154876709,6.183438777923584
0,110188,-21.55487060546875,20.266780853271484,-1.387923240661621,9.026139259338379
0,110188,13.130918502807617,0.7318952679634094,-11.612628936767578,-18.55629539489746
0,110188,-4.031744480133057,-20.483436584472656,1.8811874389648438,9.873400688171387
0,110188,-14.39493179321289,8.468421936035156,1.120274543762207,22.72773551940918
0,110189,5.2645955085754395,10.902491569519043,-1.0623501539230347,-21.69365692138672
0,110189,8.182429313659668,-23.46109962463379,13.0525484085083,1.6748855113983154
0,110190,-8.906647682189941,-14.384686470031738,-28.891212463378906,13.346200942993164
0,110191,-13.020751953125,1.7013978958129883,-9.99710464477539,-20.078134536743164
0,110194,19.643264770507812,-18.568742752075195,28.405338287353516,-2.8320629596710205
0,110195,14.833166122436523,-13.742358207702637,-10.983132362365723,9.252861976623535
0,110198,6.8938469886779785,86.22882080078125,24.81171226501465,-17.15119171142578
0,110199,-2.842012882232666,55.434722900390625,35.93523025512695,-8.01198673248291
0,110202,-2.8090596199035645,-48.407405853271484,-33.69044876098633,26.615150451660156
0,110203,17.388031005859375,-30.36516571044922,-18.318662643432617,14.197933197021484
0,110206,-12.744089126586914,15.777617454528809,13.07616901397705,-47.54613494873047
0,110207,-27.130977630615234,29.257078170776367,16.87798309326172,-17.77482032775879
0,110210,-19.136568069458008,-41.18659973144531,-16.669565200805664,5.5984721183776855
0,110211,-2.0479350090026855,-38.419368743896484,-33.196834564208984,13.330099105834961
0,110214,46.57421875,42.88909912109375,31.684938430786133,81.69792175292969
0,110215,33.10366439819336,25.206987380981445,11.466323852539062,9.953032493591309
0,110218,-34.952571868896484,-44.89542007446289,-45.304866790771484,-66.70695495605469
0,110220,-16.46466636657715,-58.635860443115234,-4.592341899871826,-46.08500671386719
0,110222,2.668860673904419,-16.8455753326416,23.947250366210938,17.550411224365234
0,110224,-4.361865997314453,53.02202224731445,5.340845108032227,43.3043098449707
0,110226,18.311796188354492,93.64812469482422,14.494053840637207,-2.7635297775268555
0,110228,9.849946022033691,51.7843017578125,21.386459350585938,-20.182249069213867
0,110230,-18.385143280029297,-47.09383773803711,-5.59423303604126,1.0561860799789429
0,110232,-10.853577613830566,-77.53356170654297,-34.932960510253906,9.807816505432129
0,110234,9.967657089233398,-33.59990310668945,-6.054022789001465,-11.139250755310059
0,110236,0.95359867811203,47.29477310180664,36.08113098144531,-10.301465034484863
0,110401,-6.332995414733887,89.36377716064453,9.347414016723633,-9.380829811096191
0,110401,-2.9995741844177246,-34.72988510131836,-26.486648559570312,-6.909704685211182
0,110402,3.7392661571502686,-70.07997131347656,-25.852386474609375,18.333335876464844
0,110402,-9.81126880645752,14.374940872192383,19.941991806030273,23.96015739440918
0,110402,6.807039737701416,0.7780218720436096,15.530034065246582,-3.352663278579712
0,110402,28.922700881958008,-12.131819725036621,-32.097373962402344,-4.1094279289245605
0,110402,-22.37615966796875,-9.616276741027832,-2.057405710220337,7.493234634399414
0,110402,-18.734163284301758,-2.7417516708374023,20.567623138427734,-0.3729529082775116
0,110403,33.849300384521484,36.80678939819336,-0.5563520193099976,-9.124043464660645
0,110403,-3.800621509552002,4.74322509765625,-4.259002208709717,4.215961456298828
0,110403,-29.18511199951172,-24.589611053466797,5.155630111694336,23.243749618530273
0,110403,6.84102725982666,1.5233821868896484,3.6832590103149414,-10.377132415771484
0,110403,-0.2989906966686249,-7.649727821350098,-17.989547729492188,-7.3660783767700195
0,110404,1.5089308023452759,-4.61643648147583,-8.274528503417969,8.455377578735352
0,110404,14.753982543945312,4.611598491668701,25.635746002197266,-3.8559250831604004
0,110404,-8.949904441833496,11.626482963562012,18.022777557373047,11.796603202819824
0,110404,5.855138301849365,17.420583724975586,-10.282946586608887,-23.31919288635254
0,110404,20.00419044494629,-13.823169708251953,-15.99634075164795,-23.66316032409668
0,110404,-13.385516166687012,-12.59497356414795,-7.9809441566467285,20.548425674438477
0,110404,-21.071279525756836,12.135798454284668,7.046782493591309,4.566946029663086
0,110405,8.371203422546387,14.491215705871582,12.301613807678223,-10.74345588684082
0,110405,10.741332054138184,-2.3590075969696045,-12.291245460510254,-18.25807762145996
0,110405,-16.560508728027344,-23.315410614013672,-13.186014175415039,3.908616542816162
0,110405,-14.024950981140137,-12.314972877502441,10.631486892700195,14.93993091583252
0,110405,16.314502716064453,10.864084243774414,20.697755813598633,2.7664976119995117
0,110406,25.651721954345703,7.157485008239746,8.117198944091797,10.240368843078613
0,110406,-13.589995384216309,4.639261245727539,-4.912054061889648,-13.743038177490234
0,110406,-17.42999267578125,14.476162910461426,-9.167476654052734,-24.438993453979492
0,110406,11.788652420043945,3.994258165359497,-0.5880679488182068,3.3940317630767822
0,110406,-11.901697158813477,6.900089263916016,12.109587669372559,18.461647033691406
0,110406,1.886292815208435,7.5091142654418945,-5.056890964508057,-8.118551254272461
0,110407,14.503870010375977,-10.28732967376709,3.152728319168091,-8.101187705993652
0,110407,-10.605905532836914,-4.582211971282959,-0.9963439702987671,27.082117080688477
0,110407,9.891413688659668,-6.036338806152344,-34.9139518737793,-6.06139612197876
0,110407,14.12258529663086,-6.09295129776001,-3.96006178855896,-13.164590835571289
0,110407,-9.974615097045898,5.930371284484863,22.978809356689453,6.4227094650268555
0,110407,-2.0300774574279785,14.040699005126953,-1.74434494972229,-3.320711851119995
0,110408,-0.3036004602909088,-15.27850341796875,-9.23780345916748,16.779550552368164
0,110408,-18.620439529418945,-20.59377098083496,12.3640775680542,-6.786336898803711
0,110408,3.892087697982788,20.279048919677734,6.243397235870361,-2.9985604286193848
0,110408,17.319360733032227,-1.8317493200302124,-27.69257926940918,36.37960433959961
0,110408,1.2900251150131226,-24.160537719726562,2.258256673812866,-9.25555419921875
0,110408,-8.36841106414795,-10.412120819091797,18.768075942993164,-26.133108139038086
0,110409,-16.41670799255371,-12.456493377685547,-9.74351978302002,5.862569808959961
0,110409,3.895937204360962,-4.333196640014648,3.779362678527832,13.743745803833008
0,110409,9.787216186523438,24.14485740661621,7.570413589477539,18.84613037109375
0,110409,-6.599061489105225,20.85373878479004,-8.367136001586914,-1.1340140104293823
0,110409,11.21430492401123,-10.825636863708496,7.7474470138549805,-17.413471221923828
0,110409,-0.15583305060863495,-0.9626083374023438,19.9384765625,-19.414823532104492
0,110410,2.338776111602783,12.28921127319336,-14.75182056427002,5.968681335449219
0,110410,19.440759658813477,-6.017983913421631,-11.348652839660645,32.781593322753906
0,110410,-9.418091773986816,8.979472160339355,16.84832000732422,-8.492575645446777
0,110410,-9.911792755126953,2.1598081588745117,2.475506544113159,-16.420663833618164
0,110410,-6.977825164794922,-1.656235694885254,-6.1250457763671875,-1.976324200630188
0,110410,22.55672836303711,15.845389366149902,-3.9579575061798096,-12.828532218933105
0,110411,3.7783069610595703,-16.705686569213867,-10.804104804992676,4.963367938995361
0,110411,-34.49220275878906,4.657639026641846,-5.936616897583008,13.097603797912598
0,110411,19.060604095458984,18.065752029418945,7.997483253479004,-7.237035274505615
0,110411,5.580440044403076,-30.4161434173584,-6.963943958282471,-12.920132637023926
0,110411,-28.858720779418945,-16.508317947387695,1.6513009071350098,15.700472831726074
0,110411,5.840675354003906,23.510696411132812,21.077980041503906,-9.372639656066895
0,110412,12.676492691040039,-0.1013801172375679,-2.552856922149658,-16.22748374938965
0,110412,-16.117496490478516,-23.6052188873291,-11.24819564819336,32.702484130859375
0,110412,-7.588488578796387,13.270859718322754,9.829805374145508,-9.229959487915039
0,110412,18.721670150756836,-0.7302712202072144,-0.16673722863197327,2.1444199085235596
0,110412,-1.1593828201293945,-9.495738983154297,-21.334871292114258,16.68315887451172
0,110413,-4.0069732666015625,17.774248123168945,4.114248752593994,-37.384986877441406
0,110413,20.328044891357422,-15.637163162231445,1.3540810346603394,-7.746554374694824
0,110413,-11.99070930480957,-11.036792755126953,-9.817915916442871,18.659046173095703
0,110413,-27.968639373779297,22.24810028076172,21.87457847595215,1.6140989065170288
0,110413,24.358524322509766,3.731221914291382,5.640892028808594,-9.513225555419922
0,110413,27.72715187072754,-12.825033187866211,-16.29107666015625,18.760425567626953
0,110414,-2.2060694694519043,15.822030067443848,12.244877815246582,7.064023971557617
0,110414,-0.21276810765266418,10.83781909942627,11.125164985656738,-26.796981811523438
0,110414,-29.928775787353516,-24.722335815429688,4.35107946395874,17.455509185791016
0,110414,-7.351469993591309,4.416017055511475,11.4100923538208,-0.3271351456642151
0,110414,43.68865966796875,25.77614402770996,-14.09221363067627,-37.253726959228516
0,110414,-4.704844951629639,-9.022896766662598,-8.433967590332031,14.13640308380127
0,110415,-30.02188491821289,4.204858303070068,7.764545440673828,33.035823822021484
0,110415,3.8684260845184326,26.06828498840332,-15.72658920288086,-16.47509765625
0,110415,5.359971046447754,-35.19699478149414,-6.012545108795166,-13.39303970336914
0,110415,-6.574270248413086,-27.713132858276367,16.489456176757812,30.166322708129883
0,110415,3.438621997833252,35.03406524658203,1.9027179479599,-0.8095153570175171
0,110416,-1.3598095178604126,21.537586212158203,-20.624309539794922,-36.7113037109375
0,110417,-19.14699363708496,-7.539368152618408,3.7226202487945557,0.7893580794334412
0,110417,10.692021369934082,-40.172889709472656,11.44955825805664,25.763334274291992
0,110417,21.925840377807617,-11.50911808013916,-21.39741325378418,1.971333384513855
0,110417,-30.26374626159668,31.983978271484375,6.3429436683654785,-5.627264976501465
0,110417,-7.9428863525390625,-0.24707648158073425,17.795122146606445,-8.838085174560547
0,110417,37.98430252075195,-9.236712455749512,-10.681352615356445,-7.163904190063477
0,110419,-5.995990753173828,2.1732568740844727,-17.873653411865234,21.634567260742188
0,110420,-14.990099906921387,-0.40755149722099304,-3.7627789974212646,2.580981731414795
0,110421,-0.08785128593444824,-23.248271942138672,12.772871017456055,-19.482513427734375
0,110424,-1.0810155868530273,31.835115432739258,-7.269771575927734,6.759385108947754
0,110425,15.227180480957031,59.468685150146484,5.8956074714660645,10.775924682617188
0,110428,2.3295085430145264,-35.31846237182617,17.1016788482666,-15.29853343963623
0,110429,-13.448217391967773,-45.77877426147461,-4.762400150299072,-6.679812908172607
0,110432,-3.0914359092712402,-5.868222236633301,-17.17322540283203,21.30952262878418
0,110433,15.912836074829102,10.92846393585205,0.49217554926872253,13.76082706451416
0,110436,2.274456024169922,-4.532215595245361,28.02414321899414,6.540926456451416
0,110437,-14.595379829406738,16.17607879638672,6.63433313369751,-12.60793685913086
0,110440,9.701752662658691,32.37553787231445,-3.1121296882629395,-22.912269592285156
0,110441,7.86631965637207,-19.068035125732422,-6.7922797203063965,-3.0542540550231934
0,110444,-9.480145454406738,-28.897010803222656,-13.572701454162598,9.509740829467773
0,110446,-16.286008834838867,-13.466569900512695,-11.485411643981934,0.5284175276756287
0,110448,-18.754810333251953,15.4288969039917,2.6194121837615967,-3.83866286277771
0,110450,29.478822708129883,12.90374755859375,22.05797004699707,-0.36515092849731445
0,110452,31.062469482421875,-11.285048484802246,-1.0034044981002808,12.5663480758667
0,110454,-26.671592712402344,-17.8913631439209,-32.88252258300781,11.33344554901123
0,110456,-15.734476089477539,6.306529998779297,8.7618408203125,-33.83787155151367
0,110458,-5.046602249145508,46.72437286376953,27.414491653442383,-15.529152870178223
0,110460,7.585118293762207,0.43849483132362366,-15.179890632629395,24.98651695251465
0,110462,37.22928237915039,-8.161871910095215,20.866657257080078,0.22739237546920776
0,110464,-2.3790390491485596,0.5790915489196777,8.091967582702637,0.2307673543691635
0,110466,-34.10336685180664,-47.19062042236328,-50.79520797729492,12.24964714050293
0,110469,-8.00132942199707,19.33621597290039,15.899433135986328,0.06725630164146423
0,110643,25.85236930847168,37.84407424926758,42.20242691040039,-5.347610950469971
0,110643,5.523744106292725,-23.725448608398438,-14.339543342590332,-6.032358646392822
0,110643,-9.249752044677734,6.637201309204102,-13.533575057983398,11.610557556152344
0,110643,5.369767189025879,9.898957252502441,-4.8315205574035645,2.756601572036743
0,110643,-2.677656650543213,-17.863454818725586,-12.857033729553223,-11.149765014648438
0,110644,-10.004465103149414,-16.30121421813965,0.9855223298072815,4.355526447296143
0,110644,-4.953516483306885,13.273260116577148,15.026408195495605,2.2873735427856445
0,110644,1.9679464101791382,-0.9223943948745728,7.4516143798828125,0.1569470763206482
0,110644,-3.4512412548065186,-18.20887565612793,-17.63320541381836,0.6339844465255737
0,110644,8.904705047607422,28.086273193359375,-8.085047721862793,-3.295339345932007
0,110645,1.0242513418197632,5.748054504394531,18.679006576538086,8.59899616241455
0,110645,1.0202924013137817,-6.330475807189941,-6.550025463104248,-11.807633399963379
0,110645,-0.3968634307384491,4.163735866546631,-11.186223983764648,-17.997997283935547
0,110645,-21.230485916137695,-27.00953483581543,7.82128381729126,15.947309494018555
0,110645,13.547384262084961,-7.984540939331055,3.0028984546661377,11.469183921813965
0,110645,20.36270523071289,10.116836547851562,1.615860104560852,0.04116668924689293
0,110646,-0.9844876527786255,3.8422791957855225,-5.075053691864014,-17.96138572692871
0,110646,-2.652653455734253,22.770797729492188,4.614839553833008,-19.388225555419922
0,110646,-15.655810356140137,7.321589946746826,11.806143760681152,9.072044372558594
0,110646,1.0312403440475464,-11.689865112304688,-3.3136541843414307,15.473072052001953
0,110646,27.10178565979004,7.646241664886475,7.177447319030762,1.4009184837341309
0,110646,-5.961866855621338,0.8714801669120789,0.9737821817398071,-6.538943767547607
0,110647,-19.776126861572266,-10.216529846191406,-17.599279403686523,-0.47689974308013916
0,110647,1.7359733581542969,-9.76627254486084,-0.015127087943255901,-3.7509162425994873
0,110647,-10.745370864868164,-2.202968120574951,11.408940315246582,0.7417994141578674
0,110647,-1.9913629293441772,7.067211627960205,1.4328689575195312,12.732937812805176
0,110647,18.566509246826172,-7.645991802215576,-5.504561424255371,7.881387710571289
0,110647,12.949405670166016,-0.7355943322181702,-13.431800842285156,-7.514588832855225
0,110648,-15.460456848144531,2.2017593383789062,-17.354028701782227,-7.061462879180908
0,110648,-33.885135650634766,-17.78607177734375,9.91574478149414,11.392189979553223
0,110648,5.297377586364746,-0.8217714428901672,20.445642471313477,8.050889015197754
0,110648,21.989696502685547,25.84391212463379,0.3437258005142212,-3.0130791664123535
0,110648,-4.904342174530029,6.482789039611816,-6.6507344245910645,-0.4573225975036621
0,110649,-10.443737983703613,-19.020992279052734,2.3709981441497803,-9.117106437683105
0,110649,13.276863098144531,-2.093092679977417,-0.837232768535614,-9.94561767578125
0,110649,20.288366317749023,14.99238109588623,-10.98613452911377,-0.19145160913467407
0,110649,-6.397061347961426,-22.47794532775879,2.6294260025024414,13.861387252807617
0,110649,-1.1134355068206787,-22.241811752319336,2.1818768978118896,23.02469253540039
0,110649,0.6044601798057556,13.695589065551758,4.880923271179199,-9.497676849365234
0,110650,-14.86038875579834,10.18867301940918,10.059676170349121,-9.633244514465332
0,110650,9.173253059387207,27.608135223388672,-2.519066095352173,-3.0613820552825928
0,110650,14.335174560546875,-3.7530534267425537,-4.490859508514404,-4.753568649291992
0,110650,-4.220580577850342,-18.550235748291016,-16.053417205810547,16.566181182861328
0,110650,11.552165985107422,21.9200382232666,6.705287933349609,-1.5026423931121826
0,110650,3.6815693378448486,11.131875991821289,15.628901481628418,-14.379088401794434
0,110651,-33.85612106323242,3.3697638511657715,-7.8810224533081055,-3.1809146404266357
0,110651,-9.748827934265137,7.477564811706543,21.687023162841797,4.592695713043213
0,110651,29.805402755737305,-3.681039810180664,14.704793930053711,6.110294342041016
0,110651,-2.819484233856201,-27.863126754760742,-30.322757720947266,-2.318563938140869
0,110651,-18.242708206176758,-5.49715518951416,-3.189256191253662,-6.251013278961182
0,110651,30.462003707885742,18.33979606628418,12.650737762451172,-9.147345542907715
0,110652,6.680655002593994,-13.146003723144531,-11.735368728637695,5.30661153793335
0,110652,-34.250244140625,0.40661242604255676,4.1629838943481445,15.994797706604004
0,110652,1.5870364904403687,7.65886926651001,-3.72113037109375,-16.051923751831055
0,110652,-0.3518701195716858,-29.128875732421875,-3.5783755779266357,1.1881685256958008
0,110652,-8.482526779174805,-2.881009578704834,-5.713273525238037,15.663165092468262
0,110652,14.311667442321777,7.14577579498291,-22.435890197753906,-18.486539840698242
0,110653,-5.669125556945801,-12.60683536529541,29.219100952148438,-2.1258206367492676
0,110653,-1.889068841934204,2.3699746131896973,-3.164198637008667,-3.122540235519409
0,110653,17.975507736206055,-13.612937927246094,-27.852548599243164,-16.0075626373291
0,110653,-16.45243263244629,7.603943824768066,38.778350830078125,20.806903839111328
0,110653,-31.29460334777832,29.675914764404297,5.236562252044678,15.6886625289917
0,110653,24.351043701171875,-10.641234397888184,-28.669801712036133,-3.7177915573120117
0,110654,37.58487319946289,-6.046855926513672,0.2260446548461914,-3.087503671646118
0,110654,-9.50303840637207,2.672663450241089,8.987347602844238,-12.880036354064941
0,110654,-23.47537612915039,-11.833431243896484,-0.4995165765285492,15.272034645080566
0,110654,-11.36108112335205,14.916642189025879,2.6437368392944336,18.33473777770996
0,110654,9.976845741271973,18.51239776611328,3.7406349182128906,-10.4798002243042
0,110654,4.587217330932617,-9.431336402893066,-14.172056198120117,-12.37996768951416
0,110655,-1.6569340229034424,14.958724021911621,8.291128158569336,-0.15867306292057037
0,110655,15.783453941345215,18.163604736328125,4.480908393859863,14.287030220031738
0,110655,10.393139839172363,-13.394118309020996,-11.33823013305664,-11.953201293945312
0,110655,-7.151736736297607,-11.769845962524414,25.7236328125,-4.768630504608154
0,110655,-9.424419403076172,15.21570873260498,10.7929048538208,13.672700881958008
0,110655,-0.18420013785362244,12.675318717956543,-18.473417282104492,-23.71683120727539
0,110656,-1.3099606037139893,-20.612356185913086,-2.9377553462982178,-1.0249817371368408
0,110656,-14.712586402893066,5.4703168869018555,11.278938293457031,30.77645492553711
0,110656,21.202295303344727,26.996702194213867,4.404286861419678,-7.241174697875977
0,110656,20.869983673095703,-20.67918586730957,-12.573264122009277,-25.316282272338867
0,110656,-28.879451751708984,-31.3343448638916,-4.870519638061523,0.9474453330039978
0,110656,-7.282707691192627,10.958465576171875,1.3181265592575073,7.211026191711426
0,110657,2.890798568725586,-9.50072193145752,-10.558929443359375,14.056832313537598
0,110657,-8.206910133361816,-6.500765800476074,4.62316370010376,2.411644458770752
0,110657,2.3076722621917725,23.371320724487305,11.607029914855957,-21.692909240722656
0,110657,9.765140533447266,-23.644075393676758,-22.115354537963867,11.618169784545898
0,110657,-12.690505027770996,-3.778916597366333,-12.993684768676758,-3.571030855178833
0,110657,-4.688963890075684,18.768268585205078,25.813623428344727,-19.734813690185547
0,110659,23.331811904907227,-13.972708702087402,12.591765403747559,28.40549087524414
0,110659,1.1506651639938354,18.648757934570312,-13.692170143127441,3.2379150390625
0,110659,5.499471664428711,15.659177780151367,-13.461601257324219,-21.000410079956055
0,110659,-7.597230434417725,-19.118879318237305,11.330892562866211,4.811644077301025
0,110659,-19.755128860473633,-17.133766174316406,12.777327537536621,5.177154064178467
0,110660,1.3973536491394043,-4.0689849853515625,-19.513179779052734,-5.905252933502197
0,110660,4.381515979766846,13.446048736572266,-11.3554105758667,-1.2050868272781372
0,110660,6.287007808685303,-2.413024663925171,19.772497177124023,7.525146961212158
0,110661,-15.06447696685791,0.2613942623138428,18.16864776611328,-12.463257789611816
0,110662,16.470890045166016,14.091946601867676,-2.02103853225708,13.939297676086426
0,110664,21.824539184570312,5.666355609893799,-2.679917097091675,37.492645263671875
0,110666,-11.475237846374512,13.488584518432617,0.7040281295776367,-29.678075790405273
0,110668,23.71625328063965,19.161182403564453,-6.975198268890381,-30.668529510498047
0,110670,-27.73992156982422,-44.6478385925293,-4.6605353355407715,24.50223159790039
0,110672,-45.957706451416016,-41.66230010986328,0.2656393349170685,19.692869186401367
0,110674,29.720840454101562,30.89837646484375,5.9472150802612305,4.28151798248291
0,110676,27.24907112121582,16.355730056762695,2.208265781402588,-6.894577503204346
0,110678,-5.588316440582275,20.45342445373535,-4.115738868713379,-21.84632682800293
0,110680,-23.09670639038086,11.09265422821045,7.372763633728027,-26.243328094482422
0,110683,3.0448873043060303,-46.494441986083984,-7.636425495147705,15.398085594177246
0,110684,36.034698486328125,-43.18250274658203,-36.02471160888672,35.2928352355957
0,110687,1.28724205493927,43.984683990478516,11.0215482711792,-7.8157196044921875
0,110688,-35.40809631347656,38.199588775634766,22.31358528137207,-33.007164001464844
0,110691,-13.244457244873047,-36.94975662231445,-4.467990398406982,-2.159233331680298
0,110692,8.126884460449219,-12.372693061828613,9.424073219299316,22.455703735351562
0,110695,6.366529941558838,3.639836549758911,-3.507678747177124,6.503311634063721
0,110696,12.026693344116211,-10.487937927246094,6.95030403137207,10.972270965576172
0,110697,2.0105862617492676,25.038040161132812,0.20110002160072327,-2.541222333908081
0,110700,-2.434803009033203,47.07574462890625,-3.0869834423065186,-12.99280834197998
0,110701,-8.252002716064453,-0.8879804015159607,18.188655853271484,0.5386321544647217
0,110704,-16.669673919677734,-50.097721099853516,-17.10493278503418,0.33273789286613464
0,110705,33.752960205078125,1.1769828796386719,6.945852756500244,-3.6422131061553955
0,110708,7.4274091720581055,38.0882453918457,8.429920196533203,7.466686248779297
0,110709,-43.596519470214844,-24.53636932373047,-59.1535530090332,6.411249160766602
0,110712,0.49288225173950195,-32.194026947021484,6.339478969573975,-4.489662170410156
0,110896,38.99483871459961,12.158355712890625,42.29419708251953,-9.044662475585938
0,110896,20.587234497070312,33.01089859008789,-10.12051010131836,-16.164302825927734
0,110897,-33.22221755981445,-7.199036598205566,4.2392425537109375,22.96149253845215
0,110897,-14.703845977783203,-34.33317947387695,4.039450645446777,21.148672103881836
0,110897,16.561843872070312,-2.478553056716919,-10.71288013458252,-39.97700881958008
0,110897,-2.431175708770752,9.131575584411621,-10.284278869628906,-17.197954177856445
0,110897,-7.990787506103516,-17.598224639892578,-13.842037200927734,28.22119903564453
0,110897,-3.5615053176879883,-14.05141830444336,19.800016403198242,4.092270374298096
0,110898,-0.7021965384483337,43.26744079589844,28.659242630004883,-8.027351379394531
0,110898,15.41355037689209,36.849082946777344,-14.329773902893066,-0.9863067269325256
0,110898,-1.9032288789749146,-24.699127197265625,-16.74354362487793,-0.4924517869949341
0,110898,-35.03102111816406,-11.809062004089355,-0.39985495805740356,17.911029815673828
0,110898,2.750748634338379,13.538715362548828,-4.417807102203369,6.0968017578125
0,110898,31.06141471862793,-7.063615798950195,2.59906268119812,-19.244905471801758
0,110899,-9.362446784973145,-16.53585433959961,-0.8494241833686829,2.137110710144043
0,110899,-7.328995227813721,0.8282890915870667,-0.6436356902122498,4.990956783294678
0,110899,27.47954750061035,23.435575485229492,15.44455337524414,-4.595610618591309
0,110899,6.267153739929199,11.446822166442871,0.44309744238853455,14.486274719238281
0,110899,-21.007783889770508,3.0820772647857666,-16.625259399414062,-1.40385103225708
0,110900,-3.137010335922241,-12.284866333007812,-1.2650318145751953,-18.430133819580078
0,110900,13.481032371520996,-17.113037109375,3.323770046234131,-1.4920251369476318
0,110900,-10.83251953125,8.128847122192383,4.1549248695373535,-6.593389511108398
0,110900,-12.269651412963867,8.525172233581543,19.90386390686035,6.655300140380859
0,110900,11.075039863586426,-2.895765781402588,7.155871868133545,4.194957733154297
0,110900,1.8269248008728027,-8.944519996643066,-11.965290069580078,-19.782310485839844
0,110900,5.3688788414001465,-6.550899505615234,-16.779678344726562,14.1994047164917
0,110901,-2.0728039741516113,-9.208595275878906,-1.3308526277542114,15.207660675048828
0,110901,-9.516209602355957,8.327377319335938,19.353992462158203,-23.27194595336914
0,110901,-4.661652088165283,17.755678176879883,14.031380653381348,-22.97381019592285
0,110901,6.865250587463379,-14.334870338439941,0.9708235263824463,27.86072540283203
0,110901,35.32869338989258,-1.9316188097000122,-29.76455307006836,24.992273330688477
0,110902,-7.614303112030029,3.4406638145446777,-25.186967849731445,-26.601564407348633
0,110902,-23.002660751342773,-20.816184997558594,13.633149147033691,0.43430832028388977
0,110902,-2.2011611461639404,10.020903587341309,13.390874862670898,18.605693817138672
0,110902,0.8929938077926636,21.9975643157959,2.933089256286621,1.7258093357086182
0,110902,0.24970000982284546,-1.8939303159713745,-12.263272285461426,-4.539270877838135
0,110902,-11.93856430053711,-24.098388671875,5.91505241394043,16.585254669189453
0,110903,17.258087158203125,-5.411953449249268,14.363554000854492,6.568906307220459
0,110903,-6.108589172363281,23.987340927124023,-15.08613109588623,-24.61743927001953
0,110903,-19.773256301879883,-7.684586048126221,4.742514610290527,13.968613624572754
0,110903,19.64347267150879,-12.175662994384766,6.176939964294434,2.7503764629364014
0,110903,0.9061250686645508,5.1390180587768555,2.366264820098877,-35.35797119140625
0,110903,0.9300212264060974,-13.275724411010742,-2.505967855453491,-12.100918769836426
0,110904,4.599920272827148,-25.335147857666016,-21.920455932617188,29.065885543823242
0,110904,-7.466721057891846,16.818803787231445,5.600067138671875,15.849457740783691
0,110904,0.7482407689094543,23.93802261352539,1.7926238775253296,-22.14633560180664
0,110904,-13.888429641723633,-10.661184310913086,-5.4189839363098145,-5.944185256958008
0,110904,-3.8308165073394775,0.8811748027801514,10.451522827148438,22.463163375854492
0,110904,13.65713882446289,17.542884826660156,3.6119368076324463,20.61817741394043
0,110905,-3.6358141899108887,14.23248291015625,8.755247116088867,-9.771075248718262
0,110905,5.169308662414551,-13.543736457824707,-7.38922643661499,-25.089527130126953
0,110905,13.3833589553833,-13.306687355041504,-34.58512496948242,0.6157586574554443
0,110905,3.0913753509521484,24.608999252319336,10.434419631958008,15.300926208496094
0,110905,-12.719161033630371,7.534963130950928,30.80159568786621,-10.179593086242676
0,110905,-12.658690452575684,-41.007606506347656,-18.73171043395996,-8.317337036132812
0,110906,13.624825477600098,8.179537773132324,4.265506267547607,3.2308852672576904
0,110906,13.040512084960938,31.82343292236328,16.441448211669922,-14.724303245544434
0,110906,-10.473381996154785,-21.41269302368164,-20.720510482788086,-17.11173439025879
0,110906,-12.848034858703613,1.6249175071716309,1.369085431098938,7.576019287109375
0,110906,7.743045330047607,4.642997741699219,26.52445411682129,20.707937240600586
0,110906,11.856719970703125,-16.112207412719727,-5.481170177459717,3.227786064147949
0,110907,-0.15834183990955353,9.959310531616211,-5.121184825897217,-2.1824612617492676
0,110907,-1.1672523021697998,13.382972717285156,12.964783668518066,5.05657958984375
0,110907,0.31547752022743225,-9.748807907104492,-23.07939338684082,-4.163419723510742
0,110907,-17.90626335144043,-1.068086862564087,-1.908010482788086,13.371757507324219
0,110907,-15.797809600830078,7.266363620758057,28.446956634521484,23.54022216796875
0,110907,10.49341869354248,-13.893412590026855,-4.261187553405762,-15.226424217224121
0,110908,3.4752769470214844,-9.662741661071777,-23.949405670166016,-11.986106872558594
0,110908,4.348593235015869,12.585981369018555,-7.180238246917725,4.505358695983887
0,110908,1.6686991453170776,11.43934440612793,9.402873039245605,-7.1752800941467285
0,110908,-8.296964645385742,-7.295190811157227,6.03472900390625,-4.522818088531494
0,110908,21.40584945678711,8.375099182128906,3.0604560375213623,-16.332490921020508
0,110909,3.1097464561462402,10.05163288116455,-8.021595001220703,7.719162464141846
0,110909,-37.49140930175781,-10.889909744262695,-4.192094326019287,32.910213470458984
0,110909,10.097210884094238,11.517162322998047,5.514883518218994,-17.02301788330078
0,110909,31.497114181518555,-6.432219982147217,1.9780638217926025,-17.007875442504883
0,110909,-6.996672630310059,-8.359235763549805,13.73835277557373,16.836593627929688
0,110909,4.875545024871826,8.882237434387207,6.115617752075195,2.0697052478790283
0,110910,1.2390697002410889,-16.284832000732422,-17.736156463623047,-12.16878890991211
0,110910,-16.61960792541504,17.652523040771484,8.609673500061035,-1.2661336660385132
0,110910,6.455190658569336,3.3162474632263184,17.998743057250977,10.284071922302246
0,110910,-1.4720418453216553,-31.098798751831055,-32.425174713134766,-10.971061706542969
0,110910,-5.565701484680176,-2.437560796737671,-7.057496070861816,-0.9102229475975037
0,110910,-0.6132475137710571,16.208250045776367,14.738332748413086,21.810068130493164
0,110911,-10.352994918823242,19.976722717285156,-12.012404441833496,-19.448989868164062
0,110911,20.151409149169922,-14.43170166015625,13.970331192016602,-25.670948028564453
0,110911,5.646174430847168,-36.859291076660156,2.1716368198394775,19.428924560546875
0,110911,-29.73567008972168,1.3005322217941284,-14.657951354980469,25.76663589477539
0,110911,4.1206207275390625,19.674219131469727,-2.7871735095977783,2.6955156326293945
0,110911,28.54265594482422,2.3551952838897705,-1.7873700857162476,-8.037171363830566
0,110912,2.7369792461395264,-9.388158798217773,-2.8455238342285156,-6.062905788421631
0,110912,-23.466955184936523,-6.692526340484619,-3.4875648021698,7.77998161315918
0,110913,-9.307171821594238,11.49617862701416,17.04248046875,16.736215591430664
0,110913,1.9605542421340942,6.935212135314941,7.447620391845703,-20.064699172973633
0,110913,19.723840713500977,-9.572885513305664,-2.2907724380493164,-12.03167724609375
0,110913,21.02166175842285,-16.07337188720703,8.207962036132812,28.092374801635742
0,110914,-17.510873794555664,12.565359115600586,-21.24762725830078,-11.732401847839355
0,110914,-14.653735160827637,27.570241928100586,-7.810165882110596,-5.130475997924805
0,110914,11.286561965942383,4.348782539367676,12.923287391662598,4.322135925292969
0,110914,-7.4535040855407715,-6.889401435852051,3.478368043899536,-28.73271369934082
0,110916,-14.40970516204834,7.480041027069092,22.09110450744629,16.355587005615234
0,110916,18.928510665893555,14.651981353759766,4.05526876449585,18.267724990844727
0,110918,4.23379373550415,23.512853622436523,-4.0702972412109375,-21.705039978027344
0,110920,-17.23708152770996,15.97237491607666,-9.047569274902344,0.5935193300247192
0,110922,-8.650824546813965,-25.085186004638672,-12.594099998474121,-9.955582618713379
0,110924,2.8687777519226074,-32.68561935424805,0.3271203637123108,-12.88759708404541
0,110926,23.857759475708008,-57.50684356689453,-28.41771125793457,5.0455827713012695
0,110928,-4.059133052825928,-17.229368209838867,-25.709575653076172,-7.8640546798706055
0,110930,-11.348984718322754,51.684043884277344,35.20060348510742,22.32257843017578
0,110932,28.7310848236084,15.208077430725098,44.519187927246094,33.24970245361328
0,110934,-13.968751907348633,-2.0514326095581055,-9.8773775100708,6.581794738769531
0,110936,-12.689372062683105,9.238285064697266,-19.55929946899414,-13.569308280944824
0,110938,24.351369857788086,3.3791279792785645,-2.0680572986602783,-27.06661033630371
0,110940,-16.75482749938965,-15.719379425048828,2.6103992462158203,-12.353157043457031
0,110942,-14.597807884216309,-8.190535545349121,11.051526069641113,15.516332626342773
0,110944,0.756121814250946,41.113277435302734,6.788573741912842,5.44400691986084
0,110946,-6.023671627044678,18.22545623779297,-4.1894612312316895,8.1234712600708
0,110948,9.542388916015625,-26.62483024597168,-2.4491329193115234,14.549272537231445
0,110950,3.1137328147888184,-63.50638198852539,-28.88585662841797,-29.04306411743164
0,110952,-4.792822360992432,-56.35327911376953,-28.68549346923828,-24.35150909423828
0,110955,17.903663635253906,47.51049041748047,39.76688766479492,28.255582809448242
0,110956,14.22734260559082,66.58177947998047,33.55634307861328,47.913909912109375
0,110959,-13.60979175567627,9.206385612487793,-29.45231819152832,-32.037757873535156
0,110960,-18.104419708251953,-19.513622283935547,-12.591403007507324,-45.684478759765625
0,110963,3.0934536457061768,-12.854632377624512,16.928651809692383,32.466861724853516
0,110964,3.750880479812622,18.482664108276367,4.939245700836182,15.932327270507812
0,111156,-8.001276016235352,-9.381758689880371,11.30221176147461,-2.316791534423828
0,111156,12.885680198669434,-1.7894742488861084,26.19814682006836,-4.0640387535095215
0,111156,13.088361740112305,35.52394485473633,-19.269132614135742,-9.486265182495117
0,111156,-21.815040588378906,-3.374955415725708,-24.333534240722656,6.902812480926514
0,111156,-22.426477432250977,-14.045478820800781,21.995498657226562,-12.706530570983887
0,111156,19.030588150024414,-18.76243782043457,-15.30726146697998,-8.695453643798828
0,111157,14.143903732299805,-36.145782470703125,-17.908836364746094,8.15249252319336
0,111157,-6.714606285095215,6.3680596351623535,5.109023094177246,5.839078426361084
0,111157,7.2283172607421875,32.85157775878906,-9.239511489868164,10.194181442260742
0,111157,2.434812068939209,-16.36248016357422,7.74515962600708,-5.950319766998291
0,111157,-10.76822566986084,-10.281907081604004,17.566837310791016,-5.845334053039551
0,111158,-11.994813919067383,49.84499740600586,2.447777509689331,-0.5763720273971558
0,111158,9.673012733459473,18.910015106201172,-14.521276473999023,-2.250051736831665
0,111158,13.353759765625,-39.483619689941406,-4.786933898925781,3.0839290618896484
0,111158,-0.34482046961784363,-11.917492866516113,13.593493461608887,-6.144296169281006
0,111158,4.694908142089844,20.99408721923828,-8.047459602355957,-5.264571189880371
0,111158,-4.258935928344727,-4.167655944824219,0.26402777433395386,20.928977966308594
0,111159,-11.356857299804688,-11.275452613830566,20.982498168945312,13.306354522705078
0,111159,-2.0958468914031982,-8.300605773925781,-23.008777618408203,-13.024828910827637
0,111159,5.848763465881348,4.337867259979248,-13.963912010192871,5.622810363769531
0,111159,2.9356350898742676,28.663925170898438,28.408403396606445,7.311779975891113
0,111159,7.124668598175049,-3.1451220512390137,7.96381950378418,-34.295406341552734
0,111159,-0.8524473309516907,-20.8154239654541,-22.128005981445312,-1.0435128211975098
0,111160,-12.894673347473145,2.2491507530212402,-9.997804641723633,25.82879638671875
0,111160,4.08449125289917,1.2714978456497192,14.063427925109863,-23.03047752380371
0,111160,4.292582988739014,-18.821842193603516,-3.065189838409424,-13.828214645385742
0,111160,-20.31769561767578,-17.4507999420166,-11.385574340820312,12.649651527404785
0,111160,-8.067183494567871,-3.25510311126709,-4.215028285980225,3.2589783668518066
0,111160,22.243757247924805,-1.338287353515625,-0.744645357131958,-2.331610918045044
0,111161,4.716156959533691,18.440349578857422,15.543193817138672,5.467136383056641
0,111161,-9.99537467956543,13.773348808288574,13.983769416809082,8.245135307312012
0,111161,-0.6775434613227844,6.812856674194336,-1.7008671760559082,-2.3083839416503906
0,111161,7.708430290222168,12.661091804504395,-7.593088150024414,2.764223098754883
0,111161,0.5457776784896851,-0.574276328086853,-5.2537102699279785,7.300567150115967
0,111161,-21.24397087097168,1.7012627124786377,8.612049102783203,7.093818187713623
0,111162,-15.974788665771484,-5.14410400390625,9.801168441772461,7.127599239349365
0,111162,24.193105697631836,7.780883312225342,-13.494234085083008,-36.73589324951172
0,111162,11.743060111999512,4.206814289093018,-16.57952308654785,0.6914704442024231
0,111162,-1.09470534324646,-2.943896532058716,15.866584777832031,31.773521423339844
0,111162,24.799894332885742,3.202808141708374,11.93958568572998,-13.117878913879395
0,111163,-4.135463714599609,-22.099117279052734,-18.005859375,5.703189373016357
0,111163,-16.4680233001709,0.7401630878448486,7.398314476013184,-12.904398918151855
0,111163,-2.6502420902252197,2.0695197582244873,-10.031304359436035,-9.485183715820312
0,111163,-4.604316711425781,-19.024707794189453,-35.65224838256836,7.9023308753967285
0,111163,-2.953780174255371,-3.71899676322937,31.33807945251465,-7.973701000213623
0,111163,8.802825927734375,-4.866403102874756,34.436214447021484,14.421992301940918
0,111164,1.1381016969680786,-10.245063781738281,-19.54436683654785,-2.147231101989746
0,111164,-6.4064507484436035,-2.956324815750122,-23.885299682617188,-12.926139831542969
0,111164,-3.9977993965148926,-0.9120921492576599,-2.6112163066864014,22.08965301513672
0,111164,-23.68015480041504,2.9152297973632812,11.21229076385498,4.223391532897949
0,111164,-6.664834976196289,14.970550537109375,5.312621116638184,-29.391780853271484
0,111164,40.396270751953125,2.2007718086242676,1.1821534633636475,-0.8826398849487305
0,111165,11.4553861618042,1.911279320716858,5.710354328155518,26.447696685791016
0,111165,-32.566261291503906,8.031270027160645,2.363990545272827,-11.305856704711914
0,111165,-15.70189380645752,14.157914161682129,7.3509345054626465,-10.074355125427246
0,111165,25.300765991210938,29.59267234802246,12.069219589233398,8.627758026123047
0,111165,52.068058013916016,-19.397632598876953,-16.78147315979004,-14.638471603393555
0,111165,-17.83937644958496,-22.47483253479004,4.98317289352417,15.764162063598633
0,111166,-26.653472900390625,27.30974006652832,26.099550247192383,19.465513229370117
0,111166,23.022470474243164,19.08107566833496,-13.00156307220459,-17.39598846435547
0,111166,-9.571906089782715,18.864789962768555,-10.747936248779297,-15.208797454833984
0,111166,-17.557483673095703,-19.767913818359375,-3.6136820316314697,3.6772942543029785
0,111166,3.3850600719451904,-31.437963485717773,-2.1973886489868164,8.268882751464844
0,111166,19.104719161987305,13.471169471740723,4.046389102935791,-4.001405239105225
0,111167,-6.922113418579102,-20.409265518188477,-12.549640655517578,-0.8878025412559509
0,111167,-26.225444793701172,-10.584064483642578,5.738749980926514,14.732863426208496
0,111167,9.187471389770508,19.058639526367188,-1.1907895803451538,-20.614173889160156
0,111167,13.458780288696289,-20.153242111206055,-18.89122200012207,-21.305727005004883
0,111167,-7.277560234069824,-19.504945755004883,1.383291244506836,28.685190200805664
0,111167,-12.529511451721191,5.7439117431640625,0.06954167038202286,14.058431625366211
0,111168,-0.4805488586425781,19.21131706237793,1.5549845695495605,-7.091922283172607
0,111168,16.943187713623047,8.867493629455566,3.5024914741516113,0.49855396151542664
0,111168,6.627295970916748,-19.36644172668457,9.6641845703125,2.191563606262207
0,111168,-17.63498306274414,-18.49683952331543,-10.774733543395996,-10.110904693603516
0,111168,-2.6000266075134277,-1.3069841861724854,-5.826581001281738,4.895639419555664
0,111168,8.413363456726074,26.43343162536621,25.652023315429688,17.131587982177734
0,111169,-0.6306837797164917,16.955564498901367,-3.8221888542175293,-8.985597610473633
0,111169,4.4928436279296875,-17.991575241088867,-12.429020881652832,3.08189058303833
0,111169,-7.928945064544678,8.811410903930664,7.4150471687316895,16.495506286621094
0,111169,-3.180126905441284,12.295321464538574,-4.202744007110596,-28.414093017578125
0,111169,10.675921440124512,-19.792118072509766,10.700457572937012,-8.360955238342285
0,111169,-8.768145561218262,-0.8297684788703918,22.24571990966797,20.92190933227539
0,111170,-1.3384934663772583,10.752511978149414,-20.946516036987305,-22.242353439331055
0,111170,14.32692813873291,-8.495926856994629,-29.448001861572266,4.54738712310791
0,111170,-2.025552749633789,-4.621270179748535,23.597373962402344,30.026599884033203
0,111170,-4.226652145385742,8.692859649658203,22.380355834960938,-21.554780960083008
0,111170,-17.996437072753906,6.3358073234558105,-22.783056259155273,-5.590732097625732
0,111170,-4.787676811218262,-5.794953346252441,-6.2909135818481445,17.78951072692871
0,111171,28.581636428833008,-3.772857427597046,-3.3838701248168945,-22.815366744995117
0,111171,2.652064323425293,4.338725566864014,-2.3217082023620605,-2.2931597232818604
0,111171,-8.311330795288086,-5.56634521484375,33.110965728759766,19.905195236206055
0,111171,12.806869506835938,13.3217134475708,-1.3432724475860596,-11.817414283752441
0,111171,-1.3930915594100952,12.936356544494629,-24.31209945678711,-2.9410130977630615
0,111171,-20.958118438720703,-14.725971221923828,4.921851634979248,21.19715118408203
0,111172,4.61902379989624,6.0258684158325195,1.731945514678955,-7.134459972381592
0,111172,10.690567016601562,-0.843075156211853,-0.5855557322502136,-23.69051742553711
0,111173,-2.7284996509552,-17.597501754760742,5.249265193939209,22.757944107055664
0,111173,5.212388515472412,6.086337566375732,9.755605697631836,18.12421989440918
0,111173,4.653202056884766,3.866452693939209,-5.270101547241211,-29.274124145507812
0,111174,-6.765177249908447,-12.412956237792969,-14.443159103393555,-1.2354508638381958
0,111174,-11.553735733032227,-3.96549129486084,3.384971857070923,21.891550064086914
0,111174,-8.171239852905273,7.812355041503906,5.577474594116211,-9.591660499572754
0,111174,3.870694875717163,10.318940162658691,3.2752809524536133,-5.776334762573242
0,111174,11.177458763122559,-1.382321834564209,-1.0260734558105469,11.716047286987305
0,111176,8.47120475769043,12.380821228027344,-16.156116485595703,-11.871440887451172
0,111176,-7.155454635620117,14.224655151367188,3.6605584621429443,-5.645300388336182
0,111178,-18.861345291137695,-62.76593017578125,-6.509528636932373,-4.700767993927002
0,111180,12.506850242614746,2.3903346061706543,-12.907610893249512,-17.89183235168457
0,111182,8.429333686828613,97.94158172607422,34.90166473388672,24.38553810119629
0,111184,-8.704207420349121,-9.91779899597168,-0.7742222547531128,9.331098556518555
0,111187,5.752265930175781,-42.375038146972656,-25.777114868164062,-43.17774200439453
0,111188,-10.384464263916016,-1.9773329496383667,10.325722694396973,0.18418142199516296
0,111191,10.411261558532715,-35.57970428466797,10.410713195800781,42.03915786743164
0,111192,10.55788516998291,-10.472220420837402,-20.038076400756836,9.861270904541016
0,111195,-18.816518783569336,19.076566696166992,-1.727299451828003,-4.544442653656006
0,111196,22.294572830200195,22.209911346435547,44.98191833496094,-20.481307983398438
