Aktueller Finger,timestamp_ms,sensor_0,sensor_1,sensor_2,sensor_3
0,353599,-0.04726865142583847,34.19912338256836,13.10088062286377,15.353713989257812
0,353600,15.448344230651855,11.953980445861816,-9.77375602722168,14.217235565185547
0,353603,-8.523378372192383,-17.327219009399414,0.17211654782295227,36.602806091308594
0,353604,-11.795218467712402,-16.096784591674805,11.380325317382812,-37.55767822265625
0,353607,2.9958267211914062,-0.06182924658060074,-23.270069122314453,-59.10261535644531
0,353609,14.141677856445312,-5.00490140914917,-27.648555755615234,41.234710693359375
0,353611,-0.976988673210144,13.315910339355469,29.1047420501709,31.533466339111328
0,353613,-11.590937614440918,30.863710403442383,40.43284606933594,31.476911544799805
0,353615,3.7244741916656494,-38.88957595825195,-12.535496711730957,2.7468204498291016
0,353617,7.241639614105225,-13.537518501281738,-17.962039947509766,-64.62320709228516
0,353619,5.954108715057373,22.680082321166992,15.164060592651367,4.1852874755859375
0,353621,4.748640060424805,-2.168933391571045,-15.08460521697998,26.0882511138916
0,353623,-51.16456985473633,13.036253929138184,-15.432520866394043,-9.403362274169922
0,353625,-3.7507498264312744,-9.165456771850586,18.87971305847168,-8.267339706420898
0,353627,62.82395553588867,-9.249909400939941,2.240994930267334,-4.532841682434082
0,353629,-22.32948112487793,-5.535110950469971,-11.027776718139648,-0.3212248980998993
0,353631,-5.395209789276123,0.8478650450706482,-1.0618518590927124,-5.670040130615234
0,353633,20.701927185058594,14.250527381896973,8.59192180633545,9.225462913513184
0,353634,-26.959745407104492,-7.285375595092773,2.433788299560547,21.45612335205078
0,353637,4.441944122314453,15.485523223876953,-11.838680267333984,-17.05295181274414
0,353638,15.306636810302734,10.695804595947266,-10.312273979187012,-5.39631462097168
0,353641,-7.858160972595215,-30.055805206298828,7.5120978355407715,8.074867248535156
0,353642,-0.2709825336933136,-9.16911792755127,17.344425201416016,2.5318551063537598
0,353645,20.51896095275879,17.088838577270508,9.574163436889648,-5.509167194366455
0,353646,-1.538670301437378,-5.483198165893555,0.7694788575172424,-17.080793380737305
0,353649,-38.1203498840332,-4.209786891937256,-3.31731915473938,31.218461990356445
0,353650,3.225290060043335,17.271371841430664,0.938374400138855,-4.101624011993408
0,353653,29.842599868774414,0.3909790515899658,10.159934997558594,-20.25536346435547
0,353654,3.59193754196167,7.004153251647949,-6.4214067459106445,15.69385814666748
0,353657,-7.822458267211914,-3.6003150939941406,-25.937667846679688,-2.0361204147338867
0,353658,-10.226876258850098,-15.030529975891113,4.24390172958374,-1.9373430013656616
0,353661,-11.281072616577148,-3.8276891708374023,14.544114112854004,14.560636520385742
0,353662,11.81613826751709,5.051327705383301,-8.784202575683594,12.135836601257324
0,353665,4.221803665161133,-1.6540939807891846,-9.45071792602539,-26.15182876586914
0,353666,-23.02053451538086,-25.183303833007812,-12.75637149810791,-21.346965789794922
0,353669,8.707459449768066,11.716890335083008,1.1347025632858276,3.122445583343506
0,353670,7.113604545593262,17.421085357666016,18.840124130249023,16.739286422729492
0,353673,2.4445080757141113,-15.020894050598145,-8.894827842712402,0.00038911396404728293
0,353674,4.437137126922607,-2.734088897705078,-11.184815406799316,-20.754661560058594
0,353677,-18.63979721069336,12.137957572937012,8.183744430541992,13.953178405761719
0,353678,17.761568069458008,27.530414581298828,25.099958419799805,6.047449588775635
0,353682,2.854614019393921,-10.633513450622559,11.926690101623535,-5.695562362670898
0,353683,-19.42765998840332,-35.52886962890625,-23.953296661376953,9.745047569274902
0,353684,27.23552894592285,30.61011505126953,6.083014488220215,20.275745391845703
0,353687,-1.5871402025222778,13.637572288513184,17.17804718017578,4.241082668304443
0,353688,-20.074203491210938,-22.80156135559082,-28.997560501098633,-28.64815330505371
0,353691,2.7152860164642334,-5.416962146759033,-16.80877113342285,-10.645910263061523
0,353692,-5.491968631744385,-11.729036331176758,25.318716049194336,19.50558090209961
0,353695,6.536137104034424,13.844339370727539,0.27095839381217957,5.3734869956970215
0,353696,1.3351045846939087,3.0184237957000732,-16.88829803466797,-17.958600997924805
0,353699,-3.649507522583008,-13.475337028503418,-0.5582196116447449,5.833588123321533
0,353700,13.772933006286621,23.731657028198242,11.194235801696777,8.466351509094238
0,353703,-5.637135982513428,7.556234836578369,7.923508167266846,-17.038864135742188
0,353704,-2.233436346054077,-22.766794204711914,-10.678031921386719,-25.915325164794922
0,353707,11.154988288879395,7.723803520202637,3.621805191040039,14.586620330810547
0,353708,-24.77897071838379,28.118467330932617,3.3501577377319336,30.455183029174805
0,353711,-10.9666109085083,-16.952606201171875,1.7455289363861084,-7.162373065948486
0,353712,23.424678802490234,-37.292659759521484,-0.6592963933944702,8.234058380126953
0,353715,1.895364761352539,6.9495344161987305,2.7894387245178223,4.502065658569336
0,353716,7.077087879180908,35.52619552612305,21.67237663269043,-3.9056029319763184
0,353719,9.698493957519531,-13.506490707397461,0.7291631698608398,2.6965651512145996
0,353720,-26.134422302246094,-21.84596061706543,-18.830068588256836,-13.240978240966797
0,353723,-2.557651996612549,23.304250717163086,-21.56831169128418,-1.2423943281173706
0,353724,13.858716011047363,-17.86193084716797,-6.35905647277832,5.017728805541992
0,353727,1.8919930458068848,-4.360915184020996,11.230194091796875,-25.17581558227539
0,353728,-3.1396524906158447,37.6982307434082,24.338035583496094,-12.562283515930176
0,353731,-19.522811889648438,-15.091182708740234,-19.37615203857422,36.166316986083984
0,353732,8.984199523925781,-27.74905014038086,-31.373403549194336,24.11785125732422
0,353735,11.117398262023926,16.263294219970703,38.396976470947266,-21.152973175048828
0,353736,-6.521152973175049,24.89328956604004,5.372056007385254,-38.283206939697266
0,353739,14.003111839294434,-3.6055169105529785,-35.43158721923828,-14.968754768371582
0,353741,9.74168586730957,-26.077436447143555,9.495809555053711,45.51082992553711
0,353743,-16.12942123413086,-10.559718132019043,37.726341247558594,41.55066680908203
0,353744,-2.297515630722046,34.27197265625,11.521903991699219,-24.990358352661133
0,353747,18.794330596923828,11.580244064331055,-30.158775329589844,-12.6647367477417
0,353748,-16.712385177612305,-48.05622863769531,-11.751317977905273,3.7535128593444824
0,353751,-10.27221965789795,19.25311851501465,16.889249801635742,-6.084282875061035
0,353752,14.719045639038086,36.63203430175781,-6.49603796005249,0.14640355110168457
0,353755,-15.666481971740723,-28.4914493560791,-4.859365940093994,-7.4094061851501465
0,353756,6.827699661254883,-1.1460601091384888,1.3716089725494385,-2.619509696960449
0,353759,19.888925552368164,-10.789229393005371,-1.2625387907028198,17.481447219848633
0,353760,-4.82951545715332,-6.115615367889404,13.765085220336914,12.80726432800293
0,353763,-22.174280166625977,2.6749815940856934,-23.600181579589844,-36.53728103637695
0,353764,-29.441652297973633,-0.4663991630077362,-10.131216049194336,-9.773262977600098
0,353767,25.033649444580078,24.457799911499023,28.97504997253418,50.13803482055664
0,353768,16.26774787902832,-22.74607276916504,-11.964599609375,-5.757664680480957
0,353771,-25.73691177368164,3.283642530441284,-3.3708767890930176,-34.517765045166016
0,353772,23.20027732849121,36.79075622558594,32.064842224121094,22.69833755493164
0,353775,9.97104263305664,-23.731948852539062,-6.983850479125977,10.432299613952637
0,353776,-20.212234497070312,-22.826087951660156,-39.50104904174805,-41.33170700073242
0,353779,-1.2959550619125366,12.06331729888916,10.110318183898926,-8.662864685058594
0,353780,-5.753990173339844,10.921953201293945,35.618492126464844,38.700531005859375
0,353783,19.799884796142578,-15.486746788024902,-16.9549617767334,19.24873924255371
0,353784,21.317289352416992,-7.261175632476807,-25.583799362182617,-16.613876342773438
0,353787,-8.442259788513184,31.515972137451172,21.308561325073242,-30.69977569580078
0,353788,-19.936946868896484,3.397650957107544,25.37095832824707,-2.660891532897949
0,353791,-0.07801350951194763,-21.029380798339844,-21.78862953186035,27.552352905273438
0,353792,14.72326946258545,10.273885726928711,-14.027745246887207,9.351929664611816
0,353795,-14.442755699157715,-17.181867599487305,22.443695068359375,-9.66038990020752
0,353796,-11.435921669006348,-24.494384765625,-4.233924865722656,-10.833268165588379
0,353799,16.056060791015625,39.05508041381836,-5.393239498138428,1.081892490386963
0,353800,8.983559608459473,13.40057373046875,9.860358238220215,28.366268157958984
0,353803,-10.226983070373535,-44.58243179321289,-24.920564651489258,-10.125411033630371
0,353804,-2.1575162410736084,21.17422866821289,-5.911191463470459,-34.47789764404297
0,353807,-1.0598480701446533,31.03643226623535,26.9456844329834,11.019072532653809
0,353808,0.3363848328590393,-31.44147300720215,-16.506919860839844,22.368221282958984
0,353811,11.173321723937988,-6.288188934326172,2.946230411529541,-2.0090854167938232
0,353812,0.3112465441226959,7.031400680541992,29.365468978881836,-26.251731872558594
0,353815,-2.834695816040039,17.07969093322754,-16.97514533996582,10.930667877197266
0,353816,-5.7744879722595215,-5.450403690338135,-18.6766300201416,5.745422840118408
0,353819,4.257338523864746,-22.37255859375,12.496511459350586,-14.49171257019043
0,353821,-10.936848640441895,14.270611763000488,4.358070373535156,34.63359069824219
0,353822,-21.869850158691406,4.370076656341553,-11.407729148864746,5.078126907348633
0,353825,28.40167808532715,10.2285795211792,2.378955364227295,-26.776260375976562
0,353826,25.35018539428711,10.5637788772583,-7.543082237243652,-9.333706855773926
0,353829,-33.163021087646484,-32.07192611694336,6.106131553649902,-6.417727470397949
0,353830,-10.675769805908203,-13.403910636901855,22.975147247314453,5.713087558746338
0,353833,51.43976593017578,22.937007904052734,-30.04534912109375,30.927656173706055
0,353834,-16.91591453552246,11.467607498168945,-8.756732940673828,22.382282257080078
0,353837,-44.614837646484375,-13.706526756286621,30.0311279296875,-33.931640625
0,353838,16.883556365966797,-19.2423038482666,-18.105833053588867,-20.525714874267578
0,353841,4.527875900268555,25.935144424438477,5.611254692077637,-1.182630181312561
0,353842,-1.0148512125015259,17.193002700805664,10.183721542358398,-2.0012459754943848
0,353845,15.46458625793457,-28.12074851989746,-30.265438079833984,28.46712875366211
0,353846,6.826015949249268,-33.6785888671875,17.7226619720459,-27.95338249206543
0,353849,-5.643357753753662,26.167469024658203,17.96959686279297,-36.947628021240234
0,353850,1.779637336730957,56.14665222167969,-11.570256233215332,40.3553581237793
0,353853,-14.315276145935059,-49.30215835571289,-2.397090196609497,59.091697692871094
0,353854,-18.876628875732422,-35.19884490966797,3.4438977241516113,50.0249137878418
0,353857,20.663291931152344,64.07503509521484,11.837092399597168,-47.969661712646484
0,353858,14.53982162475586,12.35378646850586,-8.012031555175781,-131.8045654296875
0,353861,-20.734647750854492,-30.09021759033203,-2.3532989025115967,-23.30649757385254
0,353862,-9.262537956237793,-8.554638862609863,10.225107192993164,118.1230697631836
0,353865,4.550192356109619,-24.327472686767578,-28.543336868286133,113.80193328857422
0,353866,15.763136863708496,17.0360050201416,-8.064432144165039,-79.0226821899414
0,353869,20.315401077270508,19.23712158203125,27.18089485168457,-91.0769271850586
0,353870,-5.794641971588135,-31.548906326293945,-2.2017018795013428,38.445865631103516
0,353873,-17.109006881713867,19.54557228088379,-12.670490264892578,-36.51277160644531
0,353874,-4.082749366760254,22.239303588867188,8.537335395812988,-1.121664047241211
0,353877,14.552391052246094,-7.857920169830322,19.4619083404541,112.75180053710938
0,353878,-7.983991622924805,3.746645212173462,-8.514229774475098,29.845624923706055
0,353881,-9.753561019897461,-1.4841101169586182,-7.878058910369873,-140.92755126953125
0,353882,5.603048801422119,-16.43108367919922,19.07022476196289,-88.2684097290039
0,353885,-7.56241512298584,-1.381316065788269,-3.4025208950042725,126.145263671875
0,353887,4.7686872482299805,7.849239349365234,-22.39590072631836,94.33477020263672
0,353889,5.1359100341796875,-7.294093608856201,12.992384910583496,-66.07217407226562
0,353891,-14.509753227233887,-16.27352523803711,8.723416328430176,-100.79471588134766
0,353893,14.934914588928223,0.993678867816925,-32.34841537475586,15.984911918640137
0,353895,5.656413555145264,25.351398468017578,-8.913711547851562,109.20260620117188
0,353897,-5.687536716461182,2.214892625808716,18.733179092407227,-56.159969329833984
0,353899,22.912588119506836,5.363844871520996,35.470985412597656,-88.17389678955078
0,353901,-8.018091201782227,-21.517107009887695,-15.678759574890137,256.8065185546875
0,353903,-15.630993843078613,-18.47288703918457,-53.148223876953125,157.7212677001953
0,353905,-11.987330436706543,13.43333625793457,10.109286308288574,-414.9371643066406
0,353907,4.79384183883667,4.0886311531066895,28.724000930786133,-211.55772399902344
0,353909,18.189861297607422,30.290864944458008,17.454675674438477,240.25050354003906
0,353911,-24.016740798950195,-5.3446221351623535,-19.58123016357422,84.52686309814453
0,353912,-19.768115997314453,-52.805397033691406,-7.552919387817383,-9.617521286010742
0,353915,21.23734474182129,21.83445167541504,42.424556732177734,122.11454010009766
0,353918,25.539920806884766,50.17923355102539,-11.75125789642334,-39.02888107299805
0,353919,-17.985605239868164,-24.6812801361084,-48.321781158447266,-284.8323059082031
0,353920,-16.06531524658203,-16.93742561340332,-0.8572944402694702,3.3374404907226562
0,353923,32.97798538208008,17.167051315307617,52.00873565673828,198.83717346191406
0,353924,15.327409744262695,-4.674638748168945,14.019181251525879,35.3252067565918
0,353927,-23.55498504638672,-15.564083099365234,-27.765316009521484,28.25906753540039
0,353928,-17.887941360473633,7.849817752838135,-5.077715873718262,28.635080337524414
0,353931,10.64300537109375,16.601234436035156,-9.961503982543945,-32.16578674316406
0,353932,5.879753112792969,-4.789272785186768,4.998552322387695,-26.302648544311523
0,353935,-1.3237282037734985,-23.959245681762695,5.335340976715088,-44.019954681396484
0,353936,13.436753273010254,1.6874511241912842,-9.766318321228027,0.7876095175743103
0,353939,-19.769662857055664,28.710390090942383,-7.942279815673828,27.00435447692871
0,353940,-6.681729316711426,14.096548080444336,14.54988956451416,-70.08541107177734
0,353943,12.525745391845703,-22.765544891357422,18.62383270263672,-33.67721176147461
0,353944,-4.112769603729248,-45.037841796875,-10.320247650146484,134.21153259277344
0,353947,-0.24960356950759888,-5.922830104827881,-24.472518920898438,10.462554931640625
0,353948,-22.1494140625,32.29941940307617,-6.00895881652832,-223.3686981201172
0,353951,29.773710250854492,34.23655700683594,18.895591735839844,192.7689971923828
0,353952,44.47591018676758,-10.0833158493042,-21.779470443725586,465.2786865234375
0,353955,-62.79143524169922,-54.76589584350586,-27.861204147338867,-410.7673645019531
0,353956,-53.554779052734375,-23.701204299926758,19.71247673034668,-654.4066772460938
0,353959,56.347415924072266,75.11282348632812,67.42853546142578,307.19439697265625
0,353960,34.71631622314453,54.72743606567383,13.920791625976562,329.9800720214844
0,353963,-19.306909561157227,-57.98679733276367,-57.58757781982422,45.97698211669922
0,353964,3.4208080768585205,-26.43523597717285,7.249895095825195,101.6318588256836
0,353967,1.0706042051315308,38.2893180847168,15.896437644958496,-173.83042907714844
0,353968,-0.19812850654125214,8.855531692504883,-14.256590843200684,-163.56231689453125
0,353971,6.6696271896362305,-17.11234474182129,32.956993103027344,19.7569580078125
0,353972,-5.354783535003662,30.218904495239258,-0.7288624048233032,44.189697265625
0,353975,-2.6927695274353027,-2.7534141540527344,-34.84193801879883,-163.84823608398438
0,353976,6.530603885650635,-66.55475616455078,-4.974406719207764,116.89926147460938
0,353979,-22.289230346679688,-31.574220657348633,-61.225894927978516,459.9996337890625
0,353980,-28.37020492553711,23.67438507080078,-10.900153160095215,-337.12005615234375
0,353983,21.020957946777344,48.09358215332031,106.16050720214844,-296.0235595703125
0,353984,41.46349334716797,-0.91177898645401,29.560298919677734,498.2998046875
0,353987,-5.178906440734863,-24.088592529296875,-64.51143646240234,-3.561220169067383
0,353988,-29.727018356323242,7.7812700271606445,-10.93795394897461,-353.9364318847656
0,353991,-2.0848867893218994,6.122982025146484,28.10631561279297,91.4262924194336
0,353992,-6.959655284881592,-21.39531135559082,-5.055856704711914,164.095947265625
0,353995,4.033308029174805,4.015965938568115,22.54678726196289,-12.621665000915527
0,353996,19.451984405517578,18.14655876159668,12.391166687011719,-65.28205108642578
0,353999,14.8074312210083,-18.097030639648438,-35.303619384765625,-58.21976852416992
0,354000,3.082439661026001,8.373034477233887,-7.600044250488281,-22.583240509033203
0,354003,-25.622636795043945,16.530874252319336,-0.09096459299325943,57.94561004638672
0,354004,-11.163780212402344,3.035797357559204,-18.4193058013916,-36.064334869384766
0,354007,4.893646717071533,19.33743667602539,10.587234497070312,-168.13369750976562
0,354009,-2.611853837966919,-21.195077896118164,32.00747299194336,31.46442413330078
0,354011,12.325071334838867,-16.803016662597656,-8.543853759765625,86.92806243896484
0,354013,24.886474609375,26.95965576171875,-1.1754390001296997,21.46702766418457
0,354015,-2.5834145545959473,-2.014734983444214,0.9357790350914001,41.28598403930664
0,354017,-12.427645683288574,-10.225726127624512,-32.860801696777344,250.2479248046875
0,354019,-38.093238830566406,-46.19317626953125,-38.520355224609375,11.58002758026123
0,354021,-40.15703201293945,-23.391372680664062,-5.739233016967773,-743.473388671875
0,354024,69.1434097290039,93.46803283691406,93.24990844726562,57.92472839355469
0,354025,54.915504455566406,22.862974166870117,53.474124908447266,680.3011474609375
0,354027,-54.561500549316406,-73.46636199951172,-74.86528778076172,56.057857513427734
0,354029,-41.90761947631836,-25.106069564819336,-52.66054153442383,-93.6729507446289
0,354031,10.708441734313965,22.910295486450195,26.47328758239746,-277.5574645996094
0,354033,31.18996238708496,36.43933868408203,42.90548324584961,-43.880226135253906
0,354035,20.85102081298828,15.998233795166016,21.158782958984375,302.6439514160156
0,354037,8.056880950927734,10.443585395812988,-5.820308208465576,-68.65888214111328
0,354039,6.309687614440918,-14.781913757324219,-8.077075004577637,-377.81329345703125
0,354041,-4.914597034454346,-23.31312370300293,-22.8281307220459,120.85226440429688
0,354043,-48.35089111328125,-37.374881744384766,-72.42233276367188,627.4351196289062
0,354045,-44.95204162597656,-44.99856948852539,-23.7989444732666,-182.636474609375
0,354047,32.10685348510742,56.30249786376953,82.01647186279297,-952.2964477539062
0,354049,27.26018524169922,55.370975494384766,52.56562042236328,-250.68084716796875
0,354051,5.935263633728027,-1.5130945444107056,-32.14345932006836,881.169189453125
0,354053,-4.937729835510254,-8.296607971191406,-21.079875946044922,644.9638671875
0,354055,-19.426755905151367,-36.64487838745117,-5.4641547203063965,-319.5217590332031
0,354057,27.871246337890625,9.10949993133545,6.683341979980469,-474.3152160644531
0,354059,8.334437370300293,17.249927520751953,35.10491943359375,-236.0281982421875
0,354061,-25.146461486816406,-23.823699951171875,-6.9761433601379395,339.82440185546875
0,354063,0.051580384373664856,7.573688507080078,-20.443195343017578,392.4469909667969
0,354065,19.018142700195312,15.4657621383667,13.495210647583008,-193.6704864501953
0,354067,19.365150451660156,5.18862771987915,-17.78337287902832,-97.4990005493164
0,354069,-14.540643692016602,-15.30618667602539,-20.353281021118164,70.89983367919922
0,354071,-29.970630645751953,-15.022449493408203,23.189985275268555,-219.5033416748047
0,354073,-18.390363693237305,3.0387678146362305,9.951726913452148,-252.47012329101562
0,354075,15.772327423095703,0.9070646166801453,-38.142303466796875,339.9300231933594
0,354077,29.55864906311035,1.2073320150375366,-6.457015514373779,226.83314514160156
0,354079,12.706307411193848,15.346802711486816,58.088218688964844,-246.75221252441406
0,354081,-13.58269214630127,-0.9039645195007324,0.5318030118942261,188.3782501220703
0,354083,-28.30508041381836,-22.041410446166992,-33.702842712402344,-165.5591278076172
0,354085,24.95731544494629,22.880720138549805,3.8272688388824463,-458.0728759765625
0,354087,6.493709087371826,12.504128456115723,11.225584983825684,418.42236328125
0,354089,-17.29850959777832,-16.954893112182617,-8.882638931274414,331.9328918457031
0,354091,-3.8474795818328857,-0.9468417167663574,-22.679283142089844,-229.39581298828125
0,354093,-18.791833877563477,-23.996532440185547,16.65027618408203,-91.76103210449219
0,354095,28.612218856811523,1.207168698310852,14.256529808044434,26.268285751342773
0,354097,12.121332168579102,23.23306655883789,-12.941034317016602,-11.823954582214355
0,354099,-18.411056518554688,1.3392714262008667,26.37232780456543,17.023780822753906
0,354101,-0.5785223245620728,3.9079229831695557,6.110365390777588,39.153926849365234
0,354103,-7.211153507232666,-22.473613739013672,-43.0550651550293,7.7496657371521
0,354105,12.458139419555664,7.230140209197998,11.476106643676758,-0.5189443230628967
0,354107,-7.190825939178467,30.300222396850586,24.644439697265625,-26.22713279724121
0,354109,-3.848344326019287,-13.704425811767578,-9.819016456604004,-43.86262512207031
0,354111,39.37600326538086,-25.378068923950195,-5.951205730438232,14.417393684387207
0,354113,-20.45635414123535,3.0194361209869385,-9.081840515136719,7.455772876739502
0,354115,-34.09004592895508,3.476576328277588,-9.87955379486084,-35.56126022338867
0,354117,30.185680389404297,-7.546351432800293,22.579391479492188,-3.7791202068328857
0,354119,1.7585325241088867,33.19343948364258,27.835025787353516,68.34024047851562
0,354121,-21.889556884765625,18.668476104736328,-16.856895446777344,20.119836807250977
0,354122,6.971729278564453,-30.87671661376953,-18.41005516052246,-39.84383773803711
0,354125,-6.01271390914917,-7.5088090896606445,-3.988447427749634,26.007789611816406
0,354126,-1.3831051588058472,13.757274627685547,7.99908447265625,-6.86821174621582
0,354129,34.4466667175293,5.674139022827148,9.621176719665527,-21.490636825561523
0,354130,11.67759895324707,-12.777435302734375,-15.112177848815918,69.13272857666016
0,354133,-26.652286529541016,-13.858587265014648,-2.6552674770355225,-6.649378299713135
0,354134,-13.637472152709961,-4.517741680145264,1.6193856000900269,-216.5126495361328
0,354137,-3.949620008468628,-2.277830123901367,-16.01976776123047,-142.7098846435547
0,354138,2.2502777576446533,38.43085479736328,16.125547409057617,148.40589904785156
0,354141,9.747179985046387,-8.780383110046387,21.521862030029297,196.6663360595703
0,354142,10.876601219177246,-45.61784362792969,-13.014636993408203,147.54798889160156
0,354145,5.437253952026367,21.990699768066406,-16.180694580078125,-59.309452056884766
0,354148,-28.252628326416016,7.125093936920166,-6.466509819030762,-200.05276489257812
0,354149,-6.1869282722473145,-3.424114942550659,21.786191940307617,10.933302879333496
0,354151,35.477230072021484,19.282535552978516,11.978873252868652,87.83136749267578
0,354153,-1.7329610586166382,3.2590975761413574,-9.985949516296387,-34.75556564331055
0,354155,-10.197421073913574,-0.8134832978248596,15.205662727355957,90.89940643310547
0,354157,-0.1517750322818756,-13.700987815856934,-12.194693565368652,107.46650695800781
0,354159,-17.169750213623047,-10.758172035217285,-27.31991958618164,-332.96282958984375
0,354161,-11.321224212646484,5.302847385406494,14.167298316955566,-310.55718994140625
0,354163,32.2417106628418,24.878284454345703,11.466153144836426,449.6461181640625
0,354165,14.181437492370605,-0.911092221736908,-39.34539794921875,356.8641052246094
0,354167,-42.2567024230957,-44.950992584228516,-24.20643424987793,-496.62200927734375
0,354169,22.356107711791992,10.20601749420166,76.7315673828125,-53.20250701904297
0,354171,22.693819046020508,29.5040225982666,34.33815002441406,342.41070556640625
0,354173,-28.538610458374023,-17.232778549194336,-66.87291717529297,-136.09536743164062
0,354175,-3.8502416610717773,-18.82542610168457,-9.996700286865234,-46.241519927978516
0,354177,0.8996509313583374,10.69806957244873,47.055171966552734,157.81944274902344
0,354179,6.6919474601745605,20.574359893798828,6.125863075256348,27.23725700378418
0,354181,15.710302352905273,15.463628768920898,-23.61466407775879,-231.42645263671875
0,354183,0.7937594652175903,-5.529943466186523,-10.005518913269043,-75.02928161621094
0,354185,-27.9897518157959,-30.980792999267578,-7.811554431915283,170.56301879882812
0,354187,-11.943196296691895,-11.534323692321777,3.6096880435943604,-191.3844451904297
0,354189,32.91165542602539,33.519161224365234,8.903656959533691,72.73538208007812
0,354191,-0.16532546281814575,-4.634039402008057,-3.91487717628479,312.4451904296875
0,354193,-15.07483959197998,-28.542659759521484,9.247893333435059,-174.44444274902344
0,354195,-16.64834976196289,35.822784423828125,-10.012062072753906,-56.09095001220703
0,354197,-3.991353988647461,6.400623321533203,-26.542415618896484,61.466529846191406
0,354199,35.71100997924805,-28.842121124267578,13.898786544799805,-34.14358901977539
0,354201,-2.539318084716797,7.518153667449951,42.31772232055664,45.98445129394531
0,354203,-0.3289887011051178,24.34939956665039,16.2401123046875,14.65531063079834
0,354205,-1.1849383115768433,4.545693397521973,-29.54030990600586,-38.52973937988281
0,354207,-15.251351356506348,-18.8794002532959,-30.14039421081543,-52.052978515625
0,354209,17.51919174194336,-14.36851978302002,5.230766296386719,-19.322189331054688
0,354211,-2.0803232192993164,8.705849647521973,17.137359619140625,4.258691310882568
0,354213,-21.74146842956543,-13.846606254577637,-5.597217559814453,-5.826805591583252
0,354215,-13.694196701049805,-16.160511016845703,-12.119755744934082,-1.8044376373291016
0,354217,29.96194839477539,28.54026985168457,-9.643721580505371,17.29620361328125
0,354219,37.86799621582031,9.827349662780762,5.916289806365967,21.83680534362793
0,354221,-20.56639289855957,7.2822370529174805,25.718225479125977,9.81362533569336
0,354223,-25.29083824157715,-2.739812135696411,8.826075553894043,12.032258987426758
0,354225,-4.786376953125,-25.270601272583008,-3.0209898948669434,-5.270215034484863
0,354227,5.452104568481445,1.9270052909851074,-12.300666809082031,-32.75015640258789
0,354229,7.211854934692383,9.609696388244629,-19.53143882751465,-11.424060821533203
0,354231,10.823614120483398,-4.727916717529297,22.645009994506836,13.201117515563965
0,354233,-15.848748207092285,-25.280424118041992,2.2983438968658447,4.571110248565674
0,354235,-20.870519638061523,-5.990109920501709,-28.798961639404297,-7.128571033477783
0,354237,32.501243591308594,59.58309555053711,32.260887145996094,5.264741897583008
0,354239,7.795854568481445,22.452917098999023,5.473863124847412,35.799156188964844
0,354241,-24.77435302734375,-42.121883392333984,-16.150583267211914,-6.400877952575684
0,354243,6.177494049072266,-14.21235466003418,6.281826496124268,-33.7713737487793
0,354245,18.228641510009766,17.67219352722168,-4.930048942565918,28.663311004638672
0,354247,-5.76028299331665,0.14480799436569214,1.3132652044296265,-7.740161895751953
0,354249,-7.40856409072876,-27.350749969482422,-29.386499404907227,-40.30649185180664
0,354251,7.492598533630371,13.611862182617188,9.826217651367188,31.657785415649414
0,354253,-1.452405571937561,27.12133026123047,27.55546760559082,19.199155807495117
0,354255,-3.213953733444214,-2.3606884479522705,-11.547530174255371,-33.167972564697266
0,354257,-15.5180082321167,-38.04732894897461,5.645498275756836,-0.14695605635643005
0,354259,5.019108295440674,-27.759075164794922,-9.592991828918457,9.460487365722656
0,354261,22.32201385498047,34.898834228515625,-2.2035393714904785,11.038131713867188
0,354263,-6.706336975097656,10.554553031921387,10.074065208435059,41.94073486328125
0,354265,-12.609013557434082,4.426714897155762,-17.0750732421875,-6.888729095458984
0,354267,-12.387085914611816,18.96957778930664,-6.630867004394531,-34.57586669921875
0,354269,3.922152519226074,-19.588403701782227,20.758153915405273,-11.9116792678833
0,354271,8.097197532653809,-16.717607498168945,-7.506686687469482,8.04744815826416
0,354273,7.304706573486328,28.447532653808594,4.863866806030273,0.6069443821907043
0,354275,10.409164428710938,8.705904006958008,26.397258758544922,-18.11635971069336
0,354277,-21.548559188842773,-34.17904281616211,-25.522722244262695,16.507301330566406
0,354279,8.19680118560791,9.856863975524902,-6.334661483764648,7.50809907913208
0,354281,20.21548080444336,-1.2869064807891846,27.68451499938965,5.1061248779296875
0,354283,-18.606229782104492,-14.349705696105957,-3.1221764087677,31.486305236816406
0,354284,-12.842188835144043,36.5185546875,-8.915947914123535,-20.62096405029297
0,354287,-7.763265609741211,-21.318706512451172,-8.92331600189209,-40.547000885009766
0,354288,4.444878578186035,-20.482364654541016,-7.67522668838501,3.2782487869262695
0,354291,23.758392333984375,41.2350959777832,18.853187561035156,10.845685005187988
0,354292,13.005644798278809,-1.9044129848480225,-10.204038619995117,11.307589530944824
0,354295,-38.362850189208984,-25.15525245666504,-17.45247459411621,-11.415925025939941
0,354296,-19.59502601623535,-13.519804954528809,24.785728454589844,-44.64665985107422
0,354299,53.060890197753906,10.132823944091797,-2.165924310684204,24.583599090576172
0,354300,7.126837730407715,18.66455841064453,-21.654651641845703,35.681968688964844
0,354303,-48.17001724243164,-0.09111875295639038,17.830764770507812,-7.456697940826416
0,354304,15.117931365966797,-14.064075469970703,-4.9698967933654785,-17.09382438659668
0,354307,35.72591781616211,0.7991440296173096,-28.955299377441406,-7.34605073928833
0,354308,-4.297455787658691,18.944292068481445,23.04003143310547,41.05055236816406
0,354311,-15.203692436218262,-16.993877410888672,17.330202102661133,-20.455049514770508
0,354312,-7.526406764984131,4.6549835205078125,0.13485217094421387,-26.23817253112793
0,354315,-2.1209821701049805,19.716150283813477,14.571029663085938,32.682884216308594
0,354316,-7.467686653137207,-20.90079689025879,-13.218260765075684,-11.437621116638184
0,354319,0.03006744384765625,-7.574369430541992,-22.553308486938477,-12.069435119628906
0,354320,5.875407695770264,11.764619827270508,-1.7788891792297363,42.17615509033203
0,354323,-4.095525741577148,10.65074634552002,17.837726593017578,9.630939483642578
0,354324,-9.214664459228516,0.8209248185157776,23.712614059448242,-22.23409652709961
0,354327,21.437807083129883,-27.062204360961914,-20.766637802124023,-6.758434295654297
0,354328,18.538883209228516,7.256435871124268,-8.204133033752441,1.7997990846633911
0,354331,-21.557355880737305,13.456561088562012,10.823360443115234,12.154927253723145
0,354332,-16.182973861694336,-48.74197006225586,-32.6776008605957,-13.162349700927734
0,354335,7.083667278289795,23.685962677001953,7.4634013175964355,-9.856576919555664
0,354336,7.032538890838623,52.90303421020508,21.824556350708008,11.779448509216309
0,354339,0.052184365689754486,-24.43754005432129,-23.48041534423828,6.794463157653809
0,354340,-1.9684687852859497,-19.578964233398438,5.221505641937256,-10.723946571350098
0,354343,-5.794065952301025,15.579153060913086,11.1724271774292,-16.176790237426758
0,354344,13.116922378540039,17.639240264892578,6.621781826019287,13.990723609924316
0,354347,2.3877458572387695,-34.79257583618164,7.936842441558838,5.4537739753723145
0,354348,-12.789408683776855,-30.301437377929688,-18.818729400634766,-40.88090133666992
0,354351,14.575434684753418,37.84238815307617,1.714998483657837,16.649126052856445
0,354352,-11.992599487304688,3.409111261367798,13.6140775680542,50.27824401855469
0,354355,-7.393318176269531,-3.0221774578094482,-5.720988750457764,-26.892894744873047
0,354356,22.707822799682617,19.185895919799805,-14.220054626464844,-52.92226791381836
0,354359,-11.304055213928223,-19.899581909179688,12.601007461547852,-17.367578506469727
0,354360,-10.33077621459961,-1.4618767499923706,-2.565422773361206,60.50838088989258
0,354363,14.197916984558105,7.346407413482666,-18.852888107299805,64.96049499511719
0,354364,-3.7173311710357666,-15.660478591918945,33.55204391479492,-46.11917495727539
0,354367,-15.003754615783691,-7.4398088455200195,-1.1914947032928467,-63.297000885009766
0,354368,14.40109920501709,24.444446563720703,-20.676311492919922,51.35866165161133
0,354371,6.0615234375,14.897602081298828,20.367847442626953,50.68930435180664
0,354372,-23.243526458740234,-27.005722045898438,-8.60257625579834,-15.74277400970459
0,354375,45.047061920166016,-6.559951305389404,-11.596258163452148,-46.0410041809082
0,354376,1.8608278036117554,5.145817756652832,25.531503677368164,-40.191490173339844
0,354379,-67.36099243164062,-1.1276397705078125,-4.233409881591797,61.30143356323242
0,354380,38.783634185791016,21.591781616210938,-24.545875549316406,25.817934036254883
0,354383,10.867012977600098,-8.708681106567383,6.953827381134033,-50.74617385864258
0,354384,-28.512950897216797,-24.709840774536133,8.107078552246094,-6.96901798248291
0,354387,-3.587829351425171,30.166316986083984,-2.5158321857452393,1.9687869548797607
0,354388,4.653491497039795,30.414522171020508,-3.5339009761810303,0.1659274697303772
0,354391,25.0852108001709,-44.601112365722656,-11.923644065856934,17.84734535217285
0,354392,8.157334327697754,-20.478591918945312,-4.682315349578857,2.4477999210357666
0,354395,14.790249824523926,39.14457321166992,4.320948123931885,-32.32912063598633
0,354396,-29.955171585083008,-3.7900683879852295,8.404219627380371,7.531108379364014
0,354399,-30.163822174072266,-22.508207321166992,19.851661682128906,63.54224395751953
0,354400,38.63172912597656,-6.804432392120361,4.584640026092529,4.603386402130127
0,354403,-0.6277123689651489,8.475796699523926,-14.98514175415039,-43.863685607910156
0,354404,-30.60215950012207,0.8673332929611206,-12.32986831665039,-23.671701431274414
0,354407,18.135570526123047,-0.17369532585144043,0.17122545838356018,3.9086849689483643
0,354408,6.313729286193848,31.99246597290039,22.50062370300293,35.983463287353516
0,354411,-8.940508842468262,-5.3133463859558105,0.5475895404815674,0.19497227668762207
0,354412,5.736660957336426,-11.701278686523438,-17.609371185302734,-23.520477294921875
0,354415,-8.26214599609375,28.02474021911621,8.202278137207031,-3.522969961166382
0,354416,-0.0746569111943245,-22.903621673583984,-17.94795799255371,1.9228971004486084
0,354419,-7.474797248840332,-26.082508087158203,-4.995046138763428,17.043506622314453
0,354421,6.8729376792907715,9.437634468078613,18.613597869873047,28.303627014160156
0,354423,34.7767219543457,-12.724364280700684,-10.326116561889648,-9.175487518310547
0,354425,-16.785802841186523,26.759614944458008,0.7516793608665466,-58.269920349121094
0,354427,-23.733999252319336,15.359354019165039,26.22751235961914,-1.3071712255477905
0,354429,16.525959014892578,-31.1779842376709,6.317890644073486,30.13361358642578
0,354431,-6.9403395652771,-0.26779061555862427,-9.488845825195312,-25.302906036376953
0,354433,-22.348068237304688,-8.075684547424316,-14.137112617492676,-7.6266255378723145
0,354435,11.26359748840332,21.795713424682617,-29.080677032470703,30.371179580688477
0,354437,29.32857894897461,26.552000045776367,18.492708206176758,10.288609504699707
0,354439,-11.768815040588379,-43.68120574951172,6.2856645584106445,-14.33210563659668
0,354441,-33.927268981933594,-8.7755708694458,-15.179471969604492,-5.226192474365234
0,354443,26.056142807006836,32.19881057739258,17.349166870117188,-2.464066982269287
0,354445,19.398771286010742,-6.275470733642578,-4.213440895080566,-2.7912161350250244
0,354447,-30.03409767150879,-5.502979278564453,-3.5339231491088867,12.109472274780273
0,354449,10.057820320129395,1.5142221450805664,19.806482315063477,5.084517955780029
0,354451,26.24538803100586,8.734040260314941,25.522918701171875,7.6171441078186035
0,354453,-7.641417503356934,-12.923928260803223,-22.836406707763672,-6.291550636291504
0,354455,-25.09258270263672,-31.19168472290039,-38.381500244140625,1.0041110515594482
0,354457,6.281242847442627,51.668766021728516,19.45795440673828,21.081684112548828
0,354459,34.958011627197266,39.629425048828125,53.60630798339844,-21.297653198242188
0,354461,-8.042684555053711,-45.6894645690918,3.952411413192749,-19.765886306762695
0,354463,-21.662450790405273,-26.961380004882812,-72.64973449707031,5.461386680603027
0,354465,-7.89197301864624,5.504474639892578,-32.19111633300781,-18.245988845825195
0,354467,12.623156547546387,5.724667072296143,41.0771484375,18.893964767456055
0,354469,4.384024143218994,18.772197723388672,34.28861618041992,48.06314468383789
0,354471,-14.278289794921875,-10.512255668640137,-24.663549423217773,-3.2783632278442383
0,354473,7.467957973480225,-30.840333938598633,-17.310871124267578,-14.919886589050293
0,354475,-8.718046188354492,-11.008199691772461,9.088221549987793,-9.976223945617676
0,354477,-9.832033157348633,-5.244034290313721,-7.595953941345215,-40.84204864501953
0,354479,12.429300308227539,38.479713439941406,21.731470108032227,-19.99283790588379
0,354481,1.9514107704162598,19.563974380493164,17.559545516967773,40.89118194580078
0,354483,4.199369430541992,-4.721909046173096,-17.24555206298828,21.181655883789062
0,354485,9.249239921569824,15.160484313964844,-13.606563568115234,-13.047812461853027
0,354487,-25.43606185913086,-18.79884910583496,15.342520713806152,14.091797828674316
0,354489,-10.032387733459473,-4.803241729736328,15.736241340637207,-3.84440016746521
0,354491,23.736162185668945,22.807804107666016,-26.415260314941406,-30.70351791381836
0,354493,-2.2110021114349365,1.9063514471054077,-14.17694091796875,-1.637715458869934
0,354495,-7.932544708251953,-40.63759231567383,2.6108157634735107,10.565475463867188
0,354497,16.322128295898438,-13.106224060058594,2.134093999862671,8.872464179992676
0,354499,14.492443084716797,36.33424377441406,3.068368434906006,-6.855038642883301
0,354501,-14.684370994567871,-5.352458477020264,9.3802490234375,10.063987731933594
0,354503,-8.231195449829102,-8.302262306213379,12.865601539611816,22.366880416870117
0,354505,1.6274216175079346,14.784878730773926,-4.36497688293457,11.373584747314453
0,354507,9.328228950500488,-11.795705795288086,2.8656556606292725,-26.427274703979492
0,354509,-1.5531622171401978,-20.46031951904297,-17.749526977539062,-25.720577239990234
0,354511,-17.059566497802734,11.730031967163086,4.5954461097717285,54.014503479003906
0,354513,12.734330177307129,28.345247268676758,34.9246826171875,18.669164657592773
0,354515,-5.5924787521362305,-1.976662278175354,-25.450014114379883,-34.55064392089844
0,354517,-13.250823974609375,-1.7442680597305298,-10.711830139160156,-26.855710983276367
0,354519,-0.2943624258041382,-0.4768229126930237,23.979053497314453,-14.874520301818848
0,354521,11.850852012634277,-21.53509521484375,-16.227216720581055,26.86212921142578
0,354523,18.53396224975586,-6.399877071380615,-15.775460243225098,14.1293363571167
0,354525,-13.655543327331543,-0.7508788704872131,-0.8514729142189026,-30.480146408081055
0,354527,6.477770805358887,17.107439041137695,-0.6094745397567749,-10.799162864685059
0,354529,20.592769622802734,23.389297485351562,22.808870315551758,3.280308246612549
0,354531,-25.352603912353516,-14.002838134765625,10.469913482666016,-7.403981685638428
0,354533,-12.986074447631836,-23.574399948120117,-31.710908889770508,27.88286590576172
0,354535,22.139419555664062,15.781103134155273,-6.151752948760986,15.834151268005371
0,354537,-7.791077613830566,7.640069484710693,30.326242446899414,-39.35439682006836
0,354539,-19.522180557250977,-39.40375518798828,-14.675270080566406,6.984032154083252
0,354541,15.327381134033203,12.03618335723877,-16.017860412597656,43.253448486328125
0,354542,22.203519821166992,31.198720932006836,28.47179412841797,4.457773208618164
0,354545,-2.561174154281616,-31.099885940551758,-4.650014400482178,-35.2821159362793
0,354546,-20.795949935913086,18.045764923095703,-10.788893699645996,-20.249013900756836
0,354549,-27.149507522583008,9.651577949523926,5.952830791473389,31.19222068786621
0,354550,10.026243209838867,-51.86844253540039,2.6025540828704834,23.39747428894043
0,354553,14.886632919311523,34.039894104003906,2.507904529571533,-18.568923950195312
0,354554,-11.925797462463379,10.850419044494629,-20.953454971313477,-34.078643798828125
0,354557,15.621724128723145,-6.326511383056641,26.26493263244629,5.626746654510498
0,354558,11.263372421264648,42.89466857910156,36.332393646240234,6.482661247253418
0,354561,-0.14675529301166534,-21.24578857421875,-48.63691329956055,-1.8042376041412354
0,354562,-1.3230928182601929,-17.628944396972656,-25.814313888549805,31.222537994384766
0,354565,-31.240325927734375,-10.641390800476074,32.74857711791992,3.1435375213623047
0,354566,12.636942863464355,-22.79827117919922,-6.198402404785156,-32.99940490722656
0,354569,27.723573684692383,31.779523849487305,-4.17559289932251,-17.578237533569336
0,354570,-24.83150291442871,26.627941131591797,23.59162139892578,17.603778839111328
0,354575,13.605033874511719,-29.31732940673828,-18.336544036865234,21.4877872467041
0,354575,22.037588119506836,-5.1016058921813965,-12.741241455078125,-5.374189853668213
0,354576,-21.440813064575195,19.681581497192383,14.537664413452148,-26.667478561401367
0,354579,-2.031146764755249,-9.363690376281738,15.59469223022461,-5.8571858406066895
0,354580,-0.5955629944801331,-2.8319523334503174,-2.504384756088257,20.72861671447754
0,354583,-6.726574420928955,-5.229883193969727,-13.466552734375,15.328107833862305
0,354584,-5.772865295410156,-19.528085708618164,1.963979721069336,-5.257293224334717
0,354587,-17.704565048217773,19.49034881591797,-1.7505548000335693,-12.963177680969238
0,354588,20.62666130065918,34.25815200805664,2.4840095043182373,10.592434883117676
0,354591,16.749807357788086,-30.925901412963867,-18.583410263061523,13.136590957641602
0,354592,-24.88612174987793,-33.9767951965332,-1.514321208000183,-7.087351322174072
0,354595,-0.5962536334991455,33.766746520996094,39.61453628540039,3.525972366333008
0,354596,16.348230361938477,16.677879333496094,-17.160066604614258,-1.0691944360733032
0,354599,1.13606595993042,-18.23105239868164,-34.07428741455078,-26.12700843811035
0,354600,-6.534764289855957,-12.171548843383789,21.064645767211914,28.08298683166504
0,354603,8.873245239257812,8.41822338104248,26.6998291015625,40.890254974365234
0,354604,-3.0046615600585938,30.100358963012695,-0.30538612604141235,-59.77409744262695
0,354607,-21.953969955444336,-13.828388214111328,-21.585479736328125,-49.729713439941406
0,354608,0.15709203481674194,-15.630476951599121,-0.25513818860054016,57.119754791259766
0,354611,11.752215385437012,5.6902642250061035,3.5129101276397705,27.311857223510742
0,354612,10.959373474121094,0.4979661703109741,-24.576475143432617,-28.578372955322266
0,354615,0.5965249538421631,25.39458656311035,17.58302116394043,18.928537368774414
0,354616,8.642855644226074,-9.548836708068848,21.05933952331543,10.948129653930664
0,354619,-11.608424186706543,-27.944725036621094,-12.11845874786377,-41.18327713012695
0,354620,-21.75847625732422,5.388556480407715,-5.083980560302734,-3.988081693649292
0,354623,29.011728286743164,4.481186866760254,-4.57115364074707,25.75162124633789
0,354624,24.184188842773438,10.906984329223633,8.67042064666748,-5.370208740234375
0,354627,-14.592883110046387,-14.682860374450684,-4.874517440795898,-32.80097579956055
0,354628,-11.860417366027832,-26.205883026123047,-4.403395652770996,-10.37879467010498
0,354631,-14.337005615234375,30.40001106262207,9.697973251342773,33.1021728515625
0,354632,-5.7390313148498535,1.2099281549453735,-19.315523147583008,6.569800853729248
0,354635,16.143064498901367,-8.768165588378906,11.9808988571167,-2.9793148040771484
0,354636,-2.7983558177948,25.707910537719727,25.33216667175293,9.39029312133789
0,354639,-4.098782062530518,-25.677082061767578,-19.842247009277344,-14.109304428100586
0,354640,-7.000178337097168,10.020893096923828,1.7322578430175781,3.097902536392212
0,354643,-9.841242790222168,39.38571548461914,10.690462112426758,26.172775268554688
0,354644,27.08795738220215,-24.73952865600586,-9.93159294128418,3.961453437805176
0,354647,21.044649124145508,-15.89164924621582,-20.00701141357422,-38.020774841308594
0,354648,-37.10886764526367,-0.17576009035110474,-12.045248031616211,-22.176095962524414
0,354651,-13.56482219696045,-6.217902183532715,28.570470809936523,54.38112258911133
0,354652,39.19847869873047,-0.26295146346092224,24.005847930908203,12.168794631958008
0,354655,2.768580198287964,8.2320556640625,-10.898805618286133,-45.07114028930664
0,354656,-37.351802825927734,0.6677758693695068,-25.3736572265625,-7.362759113311768
0,354659,-4.545173168182373,-10.671469688415527,6.158274173736572,-8.236910820007324
0,354660,28.329875946044922,3.98154354095459,22.98439598083496,21.91651725769043
0,354663,1.105044960975647,18.547151565551758,-12.552884101867676,28.10172462463379
0,354664,-5.262814044952393,-8.269392967224121,-20.591394424438477,-28.638212203979492
0,354667,8.762645721435547,-34.0203857421875,1.3276067972183228,-4.636790752410889
0,354668,-4.319559574127197,19.34473419189453,22.267555236816406,7.507245063781738
0,354671,7.108695983886719,35.23352813720703,12.483335494995117,-8.656208038330078
0,354672,0.6765283346176147,-14.233989715576172,-11.301271438598633,10.649993896484375
0,354675,-27.79819679260254,-2.073408603668213,-3.8557207584381104,23.8811092376709
0,354676,1.5248875617980957,-13.140938758850098,-15.534263610839844,4.475250244140625
0,354679,11.09169864654541,-27.571638107299805,-24.877613067626953,-26.478103637695312
0,354680,-9.270014762878418,12.339902877807617,22.27277374267578,-5.66359806060791
0,354683,6.680391788482666,34.83473587036133,34.167823791503906,24.071308135986328
0,354684,17.277402877807617,10.562990188598633,-2.0849499702453613,0.5956777334213257
0,354687,-11.785956382751465,-35.21818542480469,-7.688863754272461,-35.80322265625
0,354688,-20.639089584350586,-11.510095596313477,4.835378170013428,-12.691957473754883
0,354691,13.435870170593262,20.898902893066406,-16.371593475341797,11.156312942504883
0,354692,7.469714641571045,5.314535617828369,-20.49007797241211,18.43722152709961
0,354695,1.8722859621047974,1.906401515007019,36.438697814941406,11.983820915222168
0,354696,4.094762325286865,-0.4411981403827667,4.242562294006348,-44.48997497558594
0,354699,-16.58416748046875,-22.44493293762207,-40.64117431640625,22.898426055908203
0,354700,8.095173835754395,6.652043342590332,5.202345848083496,64.40971374511719
0,354703,4.553729057312012,28.50431251525879,14.064162254333496,-35.3630256652832
0,354704,-9.343378067016602,-11.031460762023926,1.3569397926330566,-33.814517974853516
0,354707,3.162490129470825,-5.533209323883057,-15.405647277832031,-10.043301582336426
0,354708,5.119637489318848,4.978882312774658,13.332178115844727,8.788809776306152
0,354711,13.506059646606445,-9.67422866821289,18.500680923461914,33.7357177734375
0,354712,8.700997352600098,22.093181610107422,-16.27977752685547,2.8600313663482666
0,354715,-10.922846794128418,-10.192219734191895,8.624418258666992,-7.8627190589904785
0,354716,-15.071991920471191,-27.4674015045166,-8.243699073791504,-4.05600118637085
0,354719,-8.20681095123291,21.191207885742188,-28.36028289794922,-16.788410186767578
0,354720,-0.8049600720405579,-24.44190788269043,16.0286808013916,-19.67090606689453
0,354723,7.077703952789307,-15.975931167602539,38.75210952758789,18.51573944091797
0,354724,-10.030556678771973,44.321475982666016,0.5009454488754272,23.730571746826172
0,354727,0.26591843366622925,1.7229374647140503,-47.46126174926758,-21.96249008178711
0,354728,14.50374698638916,-7.548400402069092,0.5940874814987183,5.637747764587402
0,354731,1.111588954925537,17.50929832458496,33.52132034301758,18.973636627197266
0,354732,9.463563919067383,-10.595059394836426,-6.4249091148376465,-15.50902271270752
0,354735,0.5025075078010559,-10.379414558410645,7.45710563659668,-4.528543472290039
0,354739,-27.735788345336914,-11.5499906539917,-4.708346366882324,-10.120622634887695
0,354739,3.981632709503174,-13.462580680847168,-11.969634056091309,-5.962245941162109
0,354740,26.636585235595703,16.264101028442383,5.164881706237793,10.343459129333496
0,354743,-11.077098846435547,-3.117811441421509,-5.789292335510254,-7.245996475219727
0,354744,-1.8854453563690186,-2.858020067214966,2.8050055503845215,18.865549087524414
0,354747,-0.7519383430480957,36.342655181884766,9.847370147705078,20.34325408935547
0,354748,-4.287721157073975,-6.166146755218506,-3.5585782527923584,-23.947832107543945
0,354751,5.4939093589782715,-26.516786575317383,-10.340789794921875,0.8247852921485901
0,354752,-19.37054443359375,14.448739051818848,12.845850944519043,30.720600128173828
0,354755,5.181004524230957,22.097686767578125,-1.0840283632278442,-8.754715919494629
0,354756,21.200403213500977,-1.4059609174728394,-34.34575271606445,-52.209312438964844
0,354759,-17.199434280395508,-35.153114318847656,8.84955883026123,5.355291366577148
0,354760,-13.70927906036377,11.040348052978516,37.18850326538086,49.13271713256836
0,354763,26.8807315826416,34.68028259277344,-16.053014755249023,-2.3945367336273193
0,354764,20.519407272338867,-22.11936378479004,-8.621334075927734,-31.89586639404297
0,354767,-24.074962615966797,-29.94036293029785,4.126622200012207,-23.08342742919922
0,354768,-30.63201904296875,-4.7196173667907715,-21.868799209594727,7.39798641204834
0,354771,12.117959976196289,27.43785858154297,13.106328964233398,41.74167251586914
0,354772,31.299604415893555,-3.0251896381378174,13.78334903717041,8.337235450744629
0,354775,-5.527373313903809,-13.330595016479492,-1.8761659860610962,-39.25454330444336
0,354776,-7.606415748596191,24.08573341369629,17.17070960998535,-11.60731029510498
0,354779,8.891072273254395,-6.117654800415039,-14.505372047424316,28.19743537902832
0,354780,-14.530437469482422,-3.474214792251587,-20.251169204711914,15.430908203125
0,354783,-8.361968994140625,0.12346677482128143,14.233988761901855,-20.269123077392578
0,354784,11.176173210144043,-3.9336485862731934,15.594496726989746,0.20086458325386047
0,354787,16.812429428100586,14.340682983398438,10.238619804382324,-0.5036908388137817
0,354788,-10.376676559448242,-5.604833602905273,-29.61268424987793,-7.443669319152832
0,354791,-18.302146911621094,-4.375306129455566,-13.325788497924805,27.86489486694336
0,354792,9.875596046447754,-11.47031021118164,32.753150939941406,-5.75570821762085
0,354795,3.426389694213867,-7.774295330047607,-13.52198314666748,-0.1874537169933319
0,354796,2.56199049949646,16.375478744506836,-12.941244125366211,26.9577693939209
0,354799,15.205842018127441,6.721875190734863,19.17728042602539,-42.49030303955078
0,354800,-3.2416422367095947,-3.4640026092529297,-11.114798545837402,-42.66456985473633
0,354803,-25.63567543029785,-19.305667877197266,-8.963817596435547,51.35570526123047
0,354804,11.071914672851562,-9.340331077575684,8.070904731750488,20.63941192626953
0,354807,14.057060241699219,28.09657096862793,2.2540981769561768,-42.65553665161133
0,354808,-15.760679244995117,11.085517883300781,1.813941240310669,-4.766471862792969
0,354811,-0.8227816820144653,-18.210723876953125,6.205862045288086,20.71337127685547
0,354812,-5.638913154602051,-0.7100175023078918,-11.209480285644531,5.612031936645508
0,354815,-4.059656620025635,-3.327709197998047,-10.099834442138672,-16.193796157836914
0,354816,5.895267486572266,1.5219429731369019,18.443098068237305,-15.66382884979248
0,354819,-10.584416389465332,21.903165817260742,-4.179530143737793,5.752746105194092
0,354820,7.842311859130859,-2.7305715084075928,3.622623920440674,38.497920989990234
0,354823,15.84999942779541,-16.999799728393555,11.423551559448242,-0.12522397935390472
0,354824,-14.772719383239746,-1.413314938545227,-20.072368621826172,-51.11974334716797
0,354827,2.4867584705352783,6.461748123168945,3.7370190620422363,17.007732391357422
0,354828,29.506908416748047,-4.91840934753418,10.319535255432129,56.32949447631836
0,354831,-5.929524898529053,-2.160602331161499,-6.546792507171631,-8.394770622253418
0,354832,-25.125600814819336,-5.763299942016602,0.09831885248422623,-47.60499572753906
0,354835,0.24148210883140564,17.834888458251953,14.367944717407227,-15.307426452636719
0,354836,15.4180326461792,28.04191017150879,10.836095809936523,17.46310806274414
0,354839,-4.3517608642578125,-31.148517608642578,-26.447673797607422,16.53179168701172
0,354840,-8.784109115600586,-12.032264709472656,4.111753463745117,17.297048568725586
0,354843,0.1576801985502243,15.889631271362305,13.005620002746582,-4.647972106933594
0,354844,-28.264118194580078,-2.523702621459961,-35.03350830078125,-9.108424186706543
0,354847,4.1347832679748535,2.7666258811950684,2.6727373600006104,1.450240969657898
0,354848,40.6648063659668,7.739446640014648,28.102691650390625,-15.890637397766113
0,354851,2.5230019092559814,-24.692276000976562,-13.401455879211426,-5.2634077072143555
0,354852,-12.94053840637207,-18.534326553344727,-16.198585510253906,10.944497108459473
0,354855,-3.387192964553833,17.933578491210938,14.885555267333984,17.251768112182617
0,354856,7.087581634521484,22.166393280029297,13.912921905517578,3.7213997840881348
0,354859,18.767332077026367,28.690675735473633,-6.9751505851745605,4.191505432128906
0,354860,-2.145209550857544,-25.543861389160156,3.8513948917388916,6.058403968811035
0,354863,-34.86800003051758,-51.755096435546875,10.67585277557373,-19.240737915039062
0,354864,-1.5472218990325928,22.091419219970703,-36.380958557128906,-11.181726455688477
0,354867,23.2813777923584,31.71726417541504,-25.400150299072266,1.262381911277771
0,354868,-1.944350242614746,-16.97822380065918,29.237594604492188,5.920659065246582
0,354871,-2.6878786087036133,-5.163158416748047,23.788061141967773,0.8803473114967346
0,354872,-10.259324073791504,-4.276541233062744,2.1636080741882324,-21.111841201782227
0,354875,-10.068290710449219,-8.095281600952148,-8.837201118469238,7.545111656188965
0,354876,0.5430498719215393,12.065755844116211,-14.116522789001465,14.229301452636719
0,354879,6.954623699188232,15.484798431396484,7.749454975128174,-25.526355743408203
0,354880,11.228181838989258,-9.310259819030762,5.617502212524414,-1.277397871017456
0,354883,5.1248321533203125,-12.911459922790527,-16.991138458251953,11.732182502746582
0,354884,-10.841242790222168,10.413224220275879,12.600136756896973,-13.188143730163574
0,354887,-10.60359001159668,4.650999069213867,9.286834716796875,5.67674446105957
0,354888,20.723140716552734,12.830978393554688,-2.9072680473327637,12.714706420898438
0,354891,0.0334058478474617,-8.279960632324219,7.284816741943359,0.7301943302154541
0,354892,-20.207612991333008,-3.78417706489563,-14.607792854309082,20.5703067779541
0,354895,-1.473549246788025,22.092479705810547,3.8445534706115723,-4.375852584838867
0,354896,17.448720932006836,-15.421585083007812,15.415903091430664,-27.419719696044922
0,354899,17.912858963012695,-10.598939895629883,-12.995284080505371,12.625283241271973
0,354900,-18.56548309326172,9.066425323486328,-4.417182445526123,9.24547290802002
0,354903,-4.2132248878479,-1.0113751888275146,8.99046802520752,-4.304089546203613
0,354904,8.356278419494629,-0.1854265332221985,1.8261570930480957,6.656859397888184
0,354907,-6.997474193572998,-2.880307912826538,-3.464690923690796,-1.698763370513916
0,354908,4.440446853637695,-13.982596397399902,-9.50155258178711,-9.195493698120117
0,354911,-8.092897415161133,-17.973657608032227,-7.3396525382995605,10.218585968017578
0,354912,-1.9435008764266968,20.757356643676758,5.260284423828125,5.886205196380615
0,354917,8.689987182617188,15.579537391662598,-12.043730735778809,-39.78528594970703
0,354917,-14.784873008728027,-31.88753318786621,-15.8605375289917,5.0444746017456055
0,354918,-5.897882461547852,5.160487174987793,29.93871307373047,35.37929153442383
0,354921,19.484270095825195,24.239173889160156,22.981698989868164,-23.8945369720459
0,354922,6.557009696960449,-4.13173770904541,-15.358016014099121,1.4538774490356445
0,354925,0.21221178770065308,11.655410766601562,8.023515701293945,26.361597061157227
0,354926,-6.17404842376709,-0.470077782869339,-2.0262017250061035,-8.718767166137695
0,354929,-4.307724952697754,-31.089502334594727,-30.02207374572754,-8.941585540771484
0,354930,8.90451717376709,15.86121940612793,26.19379997253418,21.67998504638672
0,354933,1.7432070970535278,48.43913650512695,37.43083190917969,1.9634685516357422
0,354934,2.2935121059417725,-13.096957206726074,-30.180419921875,-44.716041564941406
0,354937,-15.388083457946777,-59.02234649658203,-33.158565521240234,14.964677810668945
0,354938,-13.621689796447754,-9.51611042022705,0.08588659763336182,35.51042938232422
0,354941,20.390398025512695,58.84482955932617,8.7254056930542,-31.202495574951172
0,354942,17.02104377746582,2.3027565479278564,19.071853637695312,-22.359804153442383
0,354945,-9.110398292541504,-45.513755798339844,-0.6529441475868225,13.220086097717285
0,354946,-5.085336685180664,10.113197326660156,-20.038185119628906,12.523258209228516
0,354949,-12.508326530456543,-4.174442291259766,2.485905885696411,-17.383621215820312
0,354950,-16.713970184326172,5.45093297958374,19.711013793945312,-2.6250979900360107
0,354953,11.538914680480957,24.135650634765625,-2.8972549438476562,18.09767723083496
0,354954,17.668254852294922,-17.079256057739258,-17.006349563598633,-18.64432144165039
0,354957,-0.3666350543498993,0.17690877616405487,6.594987869262695,6.631802558898926
0,354958,-5.6123833656311035,4.117125511169434,-3.685540199279785,21.234670639038086
0,354961,0.27954304218292236,-7.832647323608398,-4.899932384490967,-6.928521156311035
0,354962,-9.871039390563965,-1.3950802087783813,20.47032356262207,6.013278007507324
0,354965,8.314598083496094,-11.119712829589844,5.420909881591797,-28.536388397216797
0,354966,22.58423614501953,2.934202194213867,-1.663833737373352,-16.686765670776367
0,354969,-14.69074821472168,27.771909713745117,-24.015363693237305,39.117618560791016
0,354970,-26.588228225708008,1.6901966333389282,-17.74905776977539,7.238677024841309
0,354973,11.118110656738281,-12.304798126220703,44.89372634887695,-21.21831703186035
0,354974,20.148006439208984,5.9893903732299805,8.254168510437012,-0.2547205090522766
0,354977,-2.214447259902954,-5.219379901885986,-43.65294647216797,12.135859489440918
0,354978,-4.729081153869629,10.124188423156738,3.401233196258545,6.75364875793457
0,354981,2.7049756050109863,13.642674446105957,22.318395614624023,-0.34251466393470764
0,354982,1.082759141921997,-23.774730682373047,11.050337791442871,-3.810471534729004
0,354985,-23.61582374572754,-15.725144386291504,-15.137146949768066,3.2880678176879883
0,354986,-9.066046714782715,26.415050506591797,-12.793622016906738,-9.176280975341797
0,354989,22.468122482299805,7.588979244232178,16.485042572021484,-5.759949684143066
0,354990,14.400459289550781,-19.53571128845215,2.8332583904266357,16.479345321655273
0,354993,-6.150900840759277,-3.0393459796905518,-3.650437593460083,39.961761474609375
0,354994,-5.782651901245117,-10.7980375289917,-13.212855339050293,-14.51732063293457
0,354997,12.797019004821777,-1.3101487159729004,2.6890933513641357,-68.60987854003906
0,354998,-12.860267639160156,-2.1055519580841064,9.038102149963379,15.13050651550293
0,355001,-13.958996772766113,1.5630378723144531,-8.256227493286133,38.84162902832031
0,355002,22.7447566986084,17.597318649291992,-6.914995193481445,2.499246835708618
0,355005,-4.2589921951293945,-11.225459098815918,-0.055901724845170975,-6.475976943969727
0,355006,-32.11091232299805,-0.15134723484516144,22.164331436157227,-21.481300354003906
0,355009,12.559500694274902,9.308450698852539,-2.367152690887451,-0.9226661324501038
0,355010,24.026506423950195,-20.528491973876953,-20.738195419311523,-4.265864849090576
0,355013,13.98898983001709,6.346534252166748,15.65419864654541,-4.376566410064697
0,355014,-9.489730834960938,28.476036071777344,8.299958229064941,10.18575382232666
0,355017,-29.031801223754883,-16.334495544433594,-19.995075225830078,-16.81328582763672
0,355018,8.284788131713867,-8.21269702911377,4.29590368270874,6.353950023651123
0,355021,3.200075626373291,16.636707305908203,20.221193313598633,31.838106155395508
0,355022,5.315567493438721,2.490497350692749,-12.202348709106445,-2.3703372478485107
0,355025,7.883607387542725,-6.415491104125977,-9.712469100952148,-36.92559814453125
0,355026,-18.265480041503906,-9.337611198425293,8.765467643737793,-8.649559020996094
0,355029,0.0033942749723792076,22.35202407836914,-0.6059584021568298,25.839874267578125
0,355030,23.455862045288086,-3.5737626552581787,-3.1194262504577637,3.443058967590332
0,355033,-3.246762275695801,-20.218311309814453,-8.3460693359375,5.968175411224365
0,355034,-0.5625957250595093,10.193159103393555,1.0664122104644775,11.708162307739258
0,355037,10.84426498413086,-18.363300323486328,1.520113229751587,-16.697683334350586
0,355038,-27.240171432495117,1.6366873979568481,-17.628318786621094,-32.41396713256836
0,355041,-8.536392211914062,12.07536792755127,10.790477752685547,21.037124633789062
0,355042,14.724176406860352,-1.4304102659225464,39.43382263183594,49.58797073364258
0,355045,-6.0222487449646,0.5860816240310669,-17.786224365234375,-37.70109558105469
0,355046,-18.978626251220703,-12.287001609802246,-28.953510284423828,-37.61077880859375
0,355049,21.813125610351562,23.609642028808594,42.06382751464844,61.24495315551758
0,355050,32.88585662841797,9.66893196105957,1.6492828130722046,11.594694137573242
0,355053,-39.202213287353516,-17.865249633789062,-40.145320892333984,-29.638551712036133
0,355054,-12.133352279663086,3.9308621883392334,22.192331314086914,16.948932647705078
0,355057,23.80370330810547,-2.9134769439697266,15.443904876708984,-41.09516143798828
0,355058,-12.036818504333496,-3.612685203552246,-19.150623321533203,-4.860193729400635
0,355061,18.150665283203125,10.176791191101074,4.441694736480713,50.526123046875
0,355062,26.020477294921875,-6.347351551055908,0.537194013595581,-5.2059550285339355
0,355065,-18.783411026000977,0.17657393217086792,-11.555817604064941,-6.561429023742676
0,355066,-13.36490535736084,13.197330474853516,-6.575612545013428,-37.26519775390625
0,355069,-2.247068405151367,-20.787954330444336,8.315326690673828,-2.5474820137023926
0,355070,-4.805743217468262,-10.220364570617676,-3.982988119125366,46.01296615600586
0,355073,4.442856311798096,14.903422355651855,16.14754867553711,-11.259989738464355
0,355074,-1.070407748222351,14.565038681030273,25.03848648071289,-7.707577705383301
0,355077,-13.277383804321289,-6.498922348022461,-36.837764739990234,11.129778861999512
0,355078,-1.816160798072815,-29.206817626953125,-11.065872192382812,-0.2934626340866089
0,355081,33.73098373413086,1.438855767250061,13.013087272644043,-12.139283180236816
0,355082,-2.534564971923828,22.260557174682617,-7.36578893661499,-19.19166374206543
0,355085,-28.848690032958984,12.190788269042969,11.941976547241211,-3.531909704208374
0,355086,6.421159744262695,-8.590667724609375,9.64970874786377,13.8655424118042
0,355089,0.9163411259651184,-26.141815185546875,-16.60787010192871,10.051950454711914
0,355090,19.922834396362305,18.11636734008789,-0.9582576155662537,-4.586942672729492
0,355093,-7.539041519165039,4.628824710845947,3.9924423694610596,5.03114128112793
0,355094,-33.981422424316406,-23.191909790039062,-4.6349029541015625,4.334961891174316
0,355097,34.86356735229492,45.1346435546875,16.726421356201172,-10.682823181152344
0,355098,27.818504333496094,13.127673149108887,9.213212966918945,-17.272417068481445
0,355101,-41.714054107666016,-31.880464553833008,-4.573368072509766,7.887772083282471
0,355102,-22.653335571289062,-4.763454914093018,-12.543586730957031,33.769554138183594
0,355105,9.889116287231445,-31.402366638183594,-18.290733337402344,-15.28598690032959
1,355109,17.940635681152344,11.817334175109863,9.01358413696289,-12.611449241638184
1,355109,27.836294174194336,45.240623474121094,9.820562362670898,23.391437530517578
1,355110,-26.20734405517578,-24.2567081451416,-6.906612873077393,-14.417800903320312
1,355113,-13.331128120422363,-16.87518310546875,-0.8457797169685364,-11.575886726379395
1,355114,23.689861297607422,-12.660093307495117,2.8901917934417725,6.250467777252197
1,355117,-10.747575759887695,-3.4354889392852783,-3.237825393676758,-8.228034973144531
1,355118,8.827179908752441,54.6483268737793,-0.31768670678138733,-1.6670191287994385
1,355121,4.629128456115723,-6.333770275115967,5.95897912979126,8.680045127868652
1,355122,-17.911531448364258,-54.307762145996094,-27.754230499267578,7.359291076660156
1,355125,10.015909194946289,30.192842483520508,-9.01386547088623,-6.908090591430664
1,355126,9.119425773620605,37.26678466796875,46.48866271972656,-2.0988988876342773
1,355129,-5.223201274871826,-21.356918334960938,8.68190860748291,8.575202941894531
1,355130,-21.303119659423828,-18.914648056030273,-36.49655532836914,2.787869453430176
1,355133,0.49564164876937866,6.321492671966553,-9.539435386657715,1.874076008796692
1,355134,29.273746490478516,21.140817642211914,27.209196090698242,1.3073022365570068
1,355137,-7.713339328765869,-10.588398933410645,16.210798263549805,-0.9989283680915833
1,355138,-15.963716506958008,-14.860186576843262,-7.951784133911133,-5.815549373626709
1,355141,4.599503993988037,12.893458366394043,-15.028569221496582,1.163948893547058
1,355142,-2.942636013031006,-19.385908126831055,-3.169292449951172,-3.545973062515259
1,355145,17.11030387878418,8.52571964263916,23.928842544555664,-5.181328296661377
1,355146,3.821876049041748,40.85743713378906,-3.907043218612671,-0.6295157670974731
1,355149,-29.975984573364258,-30.47479248046875,-12.644535064697266,3.585991144180298
1,355150,16.268421173095703,-26.9239559173584,14.501272201538086,18.170902252197266
1,355153,0.8079585433006287,37.23014831542969,-19.726064682006836,2.955699920654297
1,355154,-13.603391647338867,15.792405128479004,-13.447391510009766,-10.385262489318848
1,355157,10.400350570678711,-45.10981750488281,11.736336708068848,-13.795445442199707
1,355158,-19.927139282226562,-10.308002471923828,21.306493759155273,9.378983497619629
1,355161,-4.791324138641357,24.206687927246094,4.263611316680908,11.183234214782715
1,355162,25.890241622924805,-17.631155014038086,-16.401172637939453,-28.90488624572754
1,355165,13.915162086486816,16.06733512878418,3.6688859462738037,-9.044248580932617
1,355166,-2.9867172241210938,21.5670223236084,-15.0576753616333,37.881797790527344
1,355169,-14.228485107421875,-37.443992614746094,-2.053861141204834,14.738011360168457
1,355170,-7.741506576538086,-0.9761306643486023,25.379108428955078,-25.635717391967773
1,355173,1.9937862157821655,19.826335906982422,10.525327682495117,8.836332321166992
1,355174,2.462965726852417,1.476130723953247,-26.54172706604004,-9.72233772277832
1,355177,22.774612426757812,7.038059234619141,-18.197978973388672,-35.703651428222656
1,355178,2.332691192626953,-1.5750099420547485,26.24443817138672,18.436649322509766
1,355181,-26.592037200927734,3.7392590045928955,0.004705530591309071,28.702592849731445
1,355182,6.8739423751831055,-9.834257125854492,-6.107003211975098,10.877986907958984
1,355437,15.367238998413086,6.001145839691162,6.123266696929932,-39.52726364135742
1,355439,-3.7416746616363525,9.72686767578125,-10.233352661132812,-12.575785636901855
1,355441,-4.363790512084961,-28.404525756835938,7.982175350189209,52.03360366821289
1,355443,-14.53302001953125,-6.085085868835449,11.503385543823242,-31.504413604736328
1,355445,-12.811894416809082,19.803810119628906,-9.273637771606445,-41.01874542236328
1,356184,7.800707817077637,-2.331096887588501,-17.533405303955078,24.06278419494629
1,356185,3.2218730449676514,-6.527771949768066,-1.8078809976577759,25.587509155273438
1,356187,6.574296474456787,12.824639320373535,23.8919734954834,14.304656982421875
1,356189,6.996067047119141,-19.268341064453125,-9.409637451171875,5.462619781494141
1,356191,-15.199390411376953,-7.684147834777832,-16.358943939208984,23.10470199584961
1,356193,11.040444374084473,38.755393981933594,29.983060836791992,-15.870890617370605
1,356195,15.787076950073242,2.0671029090881348,4.990719318389893,-50.93050765991211
1,356197,-10.998640060424805,-30.240257263183594,-18.32732582092285,-2.147799253463745
1,356199,3.0479073524475098,2.912370443344116,-5.204455375671387,16.257131576538086
1,356201,-12.36974811553955,-5.891879081726074,-17.71645736694336,1.212783694267273
1,356203,3.524970531463623,5.864992141723633,18.75511932373047,-0.7908083200454712
1,356205,19.669374465942383,40.152156829833984,33.90983200073242,11.048623085021973
1,356207,-14.680619239807129,-29.52924156188965,-16.910470962524414,15.268768310546875
1,356209,5.8536295890808105,-15.744973182678223,-3.5632102489471436,1.325088620185852
1,356211,-4.9553632736206055,39.39226150512695,3.946073055267334,-4.637457847595215
1,356213,-22.056861877441406,-35.10483169555664,-21.099411010742188,-4.116665363311768
1,356215,13.48063850402832,-32.900577545166016,-3.2955963611602783,-27.891643524169922
1,356217,2.537053346633911,44.331268310546875,7.735377788543701,-16.21770477294922
1,356219,-7.193039417266846,11.640487670898438,9.723199844360352,30.433597564697266
1,356221,8.203353881835938,-26.465394973754883,-1.8697251081466675,6.50687313079834
1,356223,-1.2063863277435303,-7.964375972747803,-19.072385787963867,-13.046419143676758
1,356225,-4.709743499755859,17.934152603149414,-2.181734085083008,-0.34826555848121643
1,356227,5.056860446929932,25.152965545654297,13.580615997314453,8.915203094482422
1,356229,18.723493576049805,4.292811870574951,17.950014114379883,2.33140230178833
1,356231,-6.812705039978027,-30.468971252441406,-6.448416233062744,-13.986371040344238
1,356233,-23.558923721313477,-16.606294631958008,-17.233524322509766,11.341105461120605
1,356235,-0.7666218876838684,20.366352081298828,-6.4415283203125,13.915706634521484
1,356237,-4.576259136199951,-3.4606590270996094,-3.491236925125122,1.8518811464309692
1,356239,22.863908767700195,-0.18935704231262207,13.257542610168457,-12.044020652770996
1,356241,23.5831298828125,-2.6157548427581787,6.747125625610352,-14.654576301574707
1,356243,-13.77673625946045,-4.006062984466553,12.388161659240723,15.320969581604004
1,356245,-20.609907150268555,13.554915428161621,4.964341640472412,5.505960464477539
1,356247,-6.262887477874756,-8.380813598632812,-27.31047821044922,-19.009315490722656
1,356249,15.439475059509277,-27.391780853271484,-1.0758171081542969,4.865908145904541
1,356251,0.5216984152793884,21.901012420654297,15.809552192687988,32.528472900390625
1,356253,-10.803821563720703,41.665767669677734,-19.619163513183594,1.181522011756897
1,356255,-0.2825937271118164,-39.508358001708984,10.911606788635254,-26.770692825317383
1,356257,17.57039451599121,-23.347217559814453,24.3386287689209,-1.1118000745773315
1,356259,2.425691604614258,29.813879013061523,-30.93785285949707,4.705928325653076
1,356260,-10.795387268066406,15.17476749420166,11.928223609924316,-12.692450523376465
1,356263,6.972156047821045,-3.5961434841156006,14.094871520996094,-13.286619186401367
1,356264,-1.8995386362075806,-15.826111793518066,-32.80476379394531,-8.594315528869629
1,356267,2.9227375984191895,12.632002830505371,14.582984924316406,3.2411649227142334
1,356268,-1.6803605556488037,16.037132263183594,21.590862274169922,25.305057525634766
1,356271,-28.968387603759766,-23.268802642822266,-29.788928985595703,40.960845947265625
1,356272,-13.216293334960938,-16.989553451538086,2.613163709640503,-16.731260299682617
1,356275,15.689474105834961,5.3654985427856445,21.272165298461914,-39.86307907104492
1,356276,20.3585262298584,18.183977127075195,-16.81765365600586,22.61454963684082
1,356279,2.9520163536071777,-3.9154622554779053,14.813248634338379,18.489301681518555
1,356280,-20.34107780456543,-15.600556373596191,2.429676055908203,-14.610032081604004
1,356283,9.66329574584961,5.972445964813232,-11.733105659484863,-30.52314567565918
1,356284,15.533332824707031,-15.921719551086426,5.022921562194824,-18.015995025634766
1,356288,-10.15682601928711,12.925182342529297,-30.67489242553711,37.42623519897461
1,356289,8.113696098327637,16.312089920043945,4.464188098907471,9.573690414428711
1,356290,6.327768325805664,-37.634769439697266,18.009185791015625,-9.774836540222168
1,356293,-2.59970760345459,11.86905288696289,-26.12592887878418,16.735307693481445
1,356294,-1.0769964456558228,50.698486328125,16.6640682220459,-35.78567886352539
1,356297,-1.0160191059112549,3.9428153038024902,30.764728546142578,2.8557093143463135
1,356298,-11.190025329589844,-19.63176918029785,-10.555232048034668,54.132789611816406
1,356301,-1.564571738243103,-23.807588577270508,-20.016063690185547,-25.755998611450195
1,356302,8.820427894592285,-8.305633544921875,-10.258923530578613,-27.098798751831055
1,356305,-17.046730041503906,17.094892501831055,6.789823055267334,7.613725185394287
1,356306,3.371570110321045,24.89700698852539,19.712820053100586,2.0588016510009766
1,356309,19.04779624938965,6.645676612854004,14.866238594055176,32.178436279296875
1,356310,-14.237854957580566,-35.556941986083984,-11.947305679321289,-24.47440528869629
1,356313,-11.650038719177246,-22.428871154785156,-12.267195701599121,-44.818878173828125
1,356314,20.581714630126953,21.97393798828125,7.481220245361328,40.38260269165039
1,356317,5.052066326141357,8.449487686157227,10.5728759765625,22.500411987304688
1,356318,-14.832240104675293,-22.107763290405273,3.1539254188537598,-18.989133834838867
1,356321,0.7747772336006165,9.99719524383545,-19.98274803161621,-0.05565608665347099
1,356322,4.502712249755859,25.290109634399414,-5.78898286819458,9.773651123046875
1,356325,-1.8781698942184448,-16.758872985839844,7.43514347076416,-1.465324878692627
1,356326,-6.910825729370117,-22.0741024017334,-22.479896545410156,-12.48893928527832
1,356329,5.722870349884033,25.145444869995117,23.56430435180664,-3.3103270530700684
1,356330,8.965117454528809,11.70544719696045,18.985055923461914,7.876706123352051
1,356333,-7.399373531341553,-35.18439483642578,-43.044151306152344,-3.4783437252044678
1,356334,-9.245821952819824,5.081620693206787,13.632513999938965,1.7715469598770142
1,356337,22.616294860839844,23.100616455078125,13.7440767288208,10.650321006774902
1,356338,14.355754852294922,-8.291115760803223,-13.147957801818848,-17.240121841430664
1,356341,-38.334110260009766,12.10192584991455,28.648801803588867,0.9178490042686462
1,356342,-6.023667812347412,-17.417829513549805,-7.858067035675049,27.082386016845703
1,356345,20.80504035949707,-14.838375091552734,-30.12047004699707,-6.790124416351318
1,356346,5.6235671043396,43.50239181518555,25.470441818237305,-21.59872055053711
1,356349,8.11595344543457,-26.781721115112305,10.5731201171875,15.566681861877441
1,356350,-18.58673095703125,-32.96708679199219,-22.219194412231445,-2.117544174194336
1,356353,-13.896942138671875,50.5141487121582,-6.601463317871094,-29.123821258544922
1,356354,19.744537353515625,11.687370300292969,3.7375783920288086,30.53485679626465
1,356357,-0.8088452219963074,-27.972490310668945,17.498085021972656,2.790834426879883
1,356358,-27.21820640563965,4.524892807006836,-18.398418426513672,-38.848182678222656
1,356361,6.070620536804199,-1.7977683544158936,-17.4959716796875,25.605592727661133
1,356362,17.48925018310547,-14.518526077270508,36.933223724365234,14.745240211486816
1,356365,-4.952174663543701,10.007997512817383,-5.002597332000732,-36.07167053222656
1,356366,9.35241413116455,2.1840367317199707,-11.671324729919434,-10.032356262207031
1,356369,-3.308964967727661,-6.686856269836426,14.732980728149414,25.020910263061523
1,356370,-11.640987396240234,6.476985454559326,-28.412948608398438,27.261940002441406
1,356373,27.604387283325195,-3.161238193511963,-5.687572956085205,3.8027350902557373
1,356375,6.439310550689697,4.733099937438965,44.032676696777344,-9.81977653503418
1,356377,-18.62596893310547,14.129167556762695,17.602985382080078,-11.73882007598877
1,356379,0.7070308923721313,7.757629871368408,-20.702959060668945,-1.4587243795394897
1,356381,-14.696614265441895,-20.409379959106445,-28.837736129760742,19.29328727722168
1,356383,-2.948962450027466,-9.341936111450195,-17.180908203125,-7.054685115814209
1,356385,29.594213485717773,9.723515510559082,2.007619857788086,-28.552343368530273
1,356387,9.857998847961426,-22.019996643066406,18.03160285949707,22.0855712890625
1,356389,-30.531991958618164,8.677059173583984,25.775390625,20.1343936920166
1,356391,-53.89015579223633,5.058720588684082,21.574600219726562,-11.393837928771973
1,356393,10.989290237426758,-7.517644882202148,-10.180949211120605,15.439194679260254
1,356395,51.79323959350586,5.5758867263793945,-22.368389129638672,-17.99177360534668
1,356397,8.030098915100098,-21.512353897094727,-14.817943572998047,-48.277748107910156
1,356399,-0.21239174902439117,37.2382926940918,-1.4827388525009155,37.6357536315918
1,356400,-19.319461822509766,28.618545532226562,24.258447647094727,45.83412551879883
1,356403,1.0874863862991333,-37.71645736694336,-31.669958114624023,-49.72800064086914
1,356404,22.862258911132812,-5.128256797790527,-25.408966064453125,-36.34804916381836
1,356408,3.6022093296051025,0.7819322943687439,41.11170196533203,44.21796798706055
1,356409,5.51713752746582,7.777933597564697,-1.1347990036010742,7.1277570724487305
1,356411,-24.68795394897461,20.680286407470703,-3.06821608543396,-57.05630111694336
1,356413,-18.83306121826172,-10.844269752502441,29.481868743896484,1.1782721281051636
1,356415,19.863218307495117,-5.858785152435303,18.623287200927734,42.95656204223633
1,356417,28.913883209228516,3.0170366764068604,-29.990982055664062,20.498777389526367
1,356419,9.413625717163086,-0.40336519479751587,-69.88652801513672,9.766830444335938
1,356421,-27.25453758239746,-4.534962177276611,57.66354751586914,-17.287263870239258
1,356423,-10.925268173217773,-44.223716735839844,116.2834243774414,-25.96538543701172
1,356425,-45.778690338134766,-16.272226333618164,5.071628570556641,30.127010345458984
1,356427,-62.12040328979492,52.5860595703125,-133.47483825683594,2.074903726577759
1,356429,30.615264892578125,17.183298110961914,-231.8277587890625,-55.98031997680664
1,356431,53.2618408203125,-17.10913848876953,55.61309814453125,17.16813087463379
1,356433,76.61193084716797,14.123819351196289,274.2174987792969,53.055084228515625
1,356435,-8.777813911437988,10.900071144104004,33.15581512451172,-14.274823188781738
1,356437,-91.44554138183594,-17.481473922729492,-147.37721252441406,-26.460399627685547
1,356439,31.964906692504883,-13.426603317260742,-61.46695327758789,18.102773666381836
1,356441,32.56039810180664,16.473596572875977,128.73231506347656,-5.878243923187256
1,356443,-38.387779235839844,11.48753547668457,73.58435821533203,-17.45017433166504
1,356445,13.908860206604004,-16.125085830688477,-129.30335998535156,19.094350814819336
1,356447,52.14344787597656,-10.711566925048828,-39.92457580566406,9.786752700805664
1,356449,11.103872299194336,14.334144592285156,118.8570785522461,-4.475781440734863
1,356451,-20.981185913085938,20.390087127685547,25.42555046081543,-0.5909286141395569
1,356453,-50.502288818359375,-23.904836654663086,-80.76070404052734,6.652521133422852
1,356455,-54.925899505615234,-42.799259185791016,-17.936716079711914,-8.511473655700684
1,356457,36.49290466308594,6.747095584869385,14.653104782104492,-17.610702514648438
1,356459,56.13737487792969,41.363399505615234,-30.32915687561035,1.3919010162353516
1,356461,-17.625553131103516,-4.1398396492004395,0.8663340210914612,21.537429809570312
1,356463,-5.406393051147461,-46.04598617553711,29.622129440307617,7.762626647949219
1,356465,-14.595157623291016,26.27240562438965,17.31867218017578,-37.53424835205078
1,356467,-24.542617797851562,32.00257873535156,46.012596130371094,-13.48011589050293
1,356469,42.0417366027832,-2.100684881210327,49.654571533203125,26.473968505859375
1,356471,26.89716911315918,7.249948501586914,-82.83121490478516,11.562057495117188
1,356473,-5.435664176940918,-33.691749572753906,-242.09796142578125,-24.29941749572754
1,356475,3.8331656455993652,-18.999422073364258,1.3410273790359497,-10.306296348571777
1,356477,-44.700462341308594,26.966922760009766,352.6600341796875,21.523935317993164
1,356479,-78.05244445800781,19.204872131347656,128.545166015625,-10.426259994506836
1,356481,148.26031494140625,5.075882434844971,-346.1436767578125,5.856950283050537
1,356483,124.84294891357422,-14.999404907226562,-185.58090209960938,20.17803955078125
1,356485,-189.52545166015625,-11.386809349060059,311.2361755371094,-22.442291259765625
1,356487,-86.52235412597656,12.003996849060059,123.077392578125,-12.774559020996094
1,356489,-45.62483596801758,-11.59539794921875,-156.95565795898438,33.1043586730957
1,356491,-36.220001220703125,8.174484252929688,-25.959962844848633,55.03386688232422
1,356493,182.50868225097656,-0.5726515054702759,-86.50759887695312,-10.927713394165039
1,356495,108.94481658935547,-40.6304931640625,-130.98275756835938,-72.66248321533203
1,356497,-55.119422912597656,39.89697265625,126.14583587646484,-2.555650472640991
1,356499,-66.97437286376953,37.70890426635742,160.93861389160156,16.38650131225586
1,356501,-54.79836654663086,-33.553707122802734,153.37388610839844,-13.044830322265625
1,356503,44.574153900146484,-0.7052380442619324,183.71693420410156,27.678789138793945
1,356505,156.87310791015625,0.6874021887779236,-465.17437744140625,7.182090759277344
1,356507,14.722576141357422,-6.7535319328308105,-482.1156311035156,-14.621705055236816
1,356509,-215.1050567626953,13.455107688903809,482.72869873046875,-6.58377742767334
1,356511,-92.3503189086914,-14.683208465576172,356.5716552734375,-13.869455337524414
1,356513,175.24444580078125,-15.747313499450684,-343.3554992675781,33.85478591918945
1,356515,60.805816650390625,-4.321334362030029,-142.33673095703125,19.702821731567383
1,356517,105.4072036743164,30.05185317993164,256.08709716796875,-39.18548583984375
1,356519,32.464813232421875,26.845050811767578,115.06525421142578,-1.7429497241973877
1,356521,-434.08660888671875,-57.15703201293945,173.88258361816406,-15.388843536376953
1,356523,-196.10311889648438,-8.294179916381836,-24.826595306396484,-11.427837371826172
1,356525,271.7954406738281,21.73726463317871,-856.7896728515625,43.899139404296875
1,356527,319.5381774902344,-2.1631431579589844,-180.9720001220703,30.106334686279297
1,356528,65.72832489013672,55.574462890625,815.5077514648438,-4.723155975341797
1,356531,-222.43861389160156,-5.491449356079102,306.6296081542969,-38.844913482666016
1,356532,-159.53016662597656,-62.68473434448242,-4.022059917449951,1.9136029481887817
1,356535,44.46478271484375,-5.415909767150879,-393.9883117675781,8.084074974060059
1,356536,101.12535095214844,26.817106246948242,-621.0009765625,5.499324798583984
1,356539,36.80696487426758,19.9407958984375,301.0393371582031,11.204692840576172
1,356540,-10.462806701660156,-16.827869415283203,539.3506469726562,-21.96461296081543
1,356543,-37.34836959838867,-0.4670966863632202,-101.15194702148438,-20.6201171875
1,356545,17.004304885864258,9.733649253845215,-97.57608795166016,-7.4560089111328125
1,356547,23.942502975463867,-10.404296875,100.2085189819336,26.867109298706055
1,356549,-129.72117614746094,15.585051536560059,35.94712829589844,0.38258475065231323
1,356551,-16.409439086914062,-3.280686855316162,-61.67536163330078,-15.750092506408691
1,356553,158.7622833251953,-5.831826686859131,-159.62405395507812,5.829232215881348
1,356555,3.693490982055664,12.40695571899414,-29.05811882019043,-6.095905780792236
1,356557,-66.99114990234375,-18.36503791809082,49.45085144042969,-1.4853767156600952
1,356559,-22.7138671875,-16.45766830444336,-44.5486946105957,16.584205627441406
1,356561,17.910419464111328,4.207231044769287,43.97114562988281,21.786590576171875
1,356563,51.2196044921875,-3.3655014038085938,157.6954803466797,-16.951053619384766
1,356565,-36.714508056640625,-8.716012954711914,-5.5187273025512695,-1.8844451904296875
1,356567,-58.835628509521484,-12.980103492736816,-217.510498046875,38.05412673950195
1,356569,121.30626678466797,14.948192596435547,-113.35114288330078,-7.510571002960205
1,356571,108.67478942871094,64.20317077636719,130.3185577392578,-18.364486694335938
1,356573,-170.43020629882812,12.117539405822754,87.04853820800781,-17.4089412689209
1,356575,-143.71434020996094,-50.731449127197266,21.141923904418945,-41.88450241088867
1,356577,70.07041931152344,-23.086946487426758,136.8875732421875,24.876380920410156
1,356579,116.2869644165039,21.184749603271484,-21.764307022094727,62.06240463256836
1,356581,17.19982147216797,10.228535652160645,-362.0613098144531,-18.3696231842041
1,356583,-25.57646369934082,-26.26923370361328,-67.90708923339844,-37.677825927734375
1,356585,-48.12968063354492,15.127488136291504,382.3069152832031,20.0019474029541
1,356587,-22.41273307800293,11.906499862670898,59.60584259033203,13.811005592346191
1,356589,28.417400360107422,-31.575525283813477,-210.22459411621094,-35.28879928588867
1,356591,-53.7472038269043,19.893817901611328,-21.277374267578125,3.4599993228912354
1,356593,15.732989311218262,19.40434455871582,96.21429443359375,39.797569274902344
1,356595,50.98273468017578,-35.101898193359375,15.012725830078125,-1.7527800798416138
1,356597,25.34868049621582,-10.06786060333252,-13.408252716064453,-44.98537826538086
1,356599,-15.348123550415039,30.028284072875977,65.56856536865234,-7.666624546051025
1,356601,-74.69680786132812,12.8541898727417,-28.622543334960938,42.660316467285156
1,356603,18.819355010986328,-6.529674530029297,-119.17794799804688,-21.402706146240234
1,356605,86.10113525390625,12.3397798538208,19.463376998901367,-21.002614974975586
1,356607,34.328922271728516,-17.55029296875,119.15632629394531,25.097715377807617
1,356609,-33.77965545654297,-26.227609634399414,15.587080001831055,-7.1632184982299805
1,356611,-39.3255615234375,3.376616954803467,-43.01468276977539,-14.459338188171387
1,356613,-20.371278762817383,-13.032516479492188,-35.81470489501953,-6.674739360809326
1,356615,12.31376838684082,21.580869674682617,-26.1718807220459,28.824909210205078
1,356617,22.240482330322266,13.518426895141602,-16.93256187438965,52.36190414428711
1,356619,-25.827529907226562,-9.663702011108398,-53.64320373535156,-27.73963165283203
1,356621,-37.42974090576172,24.231595993041992,13.738255500793457,-48.02580261230469
1,356623,-22.75200843811035,-14.935796737670898,66.03426361083984,12.166391372680664
1,356625,16.858049392700195,-6.805027484893799,6.766109466552734,21.33730697631836
1,356627,137.40431213378906,21.19896697998047,16.905763626098633,-10.138531684875488
1,356629,13.263726234436035,-13.76580810546875,0.27736321091651917,-1.0567682981491089
1,356631,-179.86094665527344,-15.327577590942383,-1.9972974061965942,0.42305272817611694
1,356633,16.378734588623047,-3.472443103790283,14.449344635009766,-23.870107650756836
1,356635,94.29998779296875,7.084228992462158,-33.01127243041992,-0.4816829562187195
1,356637,-44.24721145629883,22.866485595703125,-27.81475830078125,25.104829788208008
1,356639,-4.736138820648193,18.87283706665039,-14.433609962463379,42.89246368408203
1,356641,45.69611358642578,-28.898778915405273,-32.66508865356445,-26.382884979248047
1,356643,-21.9129638671875,-24.675153732299805,-3.993086338043213,-45.22663116455078
1,356645,-61.67628479003906,23.341943740844727,177.46519470214844,45.06595230102539
1,356647,22.837600708007812,-6.520709991455078,119.87443542480469,-3.0111539363861084
1,356649,74.58014678955078,-21.736337661743164,-305.0537109375,-18.857973098754883
1,356651,-4.371417045593262,21.991836547851562,-226.09559631347656,37.041419982910156
1,356653,-19.86369514465332,4.4615607261657715,297.3550720214844,-5.230140209197998
1,356655,-6.89321756362915,-0.002795133739709854,260.5626525878906,-27.97174644470215
1,356656,-14.540604591369629,29.916690826416016,-97.89289093017578,-9.086986541748047
1,356659,-45.21852111816406,-15.935805320739746,-83.82556915283203,7.032415866851807
1,356660,-79.43289947509766,-63.243038177490234,-77.97493743896484,-16.77709197998047
1,356663,137.1970977783203,16.107513427734375,-206.78860473632812,18.812395095825195
1,356664,167.4478759765625,69.0055160522461,43.30337905883789,38.11919021606445
1,356667,-69.91512298583984,-16.703842163085938,173.1608428955078,-45.10020446777344
1,356668,-103.43091583251953,-13.971515655517578,56.43710708618164,-3.326460599899292
1,356671,-162.20074462890625,-17.948469161987305,261.0200500488281,3.264036178588867
1,356672,-20.63471794128418,-30.071945190429688,-64.3525161743164,2.2207467555999756
1,356675,248.4604034423828,26.854183197021484,-547.9825439453125,19.9660701751709
1,356676,61.83002853393555,20.202455520629883,-6.136504650115967,-15.424932479858398
1,356679,-134.75233459472656,0.21957476437091827,393.0199890136719,17.419898986816406
1,356680,-93.8670425415039,-25.40188980102539,84.405029296875,-6.603509902954102
1,356683,23.699190139770508,5.4896745681762695,-120.56986236572266,-21.878942489624023
1,356684,120.33084106445312,31.571624755859375,-130.62704467773438,-5.154149055480957
1,356687,12.364212036132812,-9.51020622253418,-23.51531219482422,18.93085289001465
1,356688,-60.13892364501953,-7.1120781898498535,88.794921875,19.044260025024414
1,356693,-26.731769561767578,12.664153099060059,19.514158248901367,-20.310535430908203
1,356693,7.264969825744629,-7.929507732391357,-64.10453033447266,-20.031301498413086
1,356695,47.39158630371094,-17.13887596130371,63.762542724609375,0.06001761555671692
1,356697,2.3827590942382812,-2.6588220596313477,206.70884704589844,25.952802658081055
1,356699,-50.57313919067383,-7.890330791473389,-62.94157409667969,8.81069564819336
1,356701,38.468177795410156,28.140771865844727,-269.238525390625,4.738171577453613
1,356703,23.23407554626465,32.750301361083984,61.77050018310547,3.75606632232666
1,356705,-80.9743881225586,-51.40921401977539,42.03873825073242,-49.05823516845703
1,356707,4.1445088386535645,-13.561176300048828,-150.23814392089844,11.831053733825684
1,356709,45.547481536865234,44.80292892456055,128.2369384765625,56.489986419677734
1,356711,14.30195426940918,-24.174419403076172,124.73344421386719,-28.986324310302734
1,356713,-26.360857009887695,-8.303853034973145,-71.76301574707031,-20.440710067749023
1,356715,-46.66504669189453,15.530852317810059,-40.92038345336914,6.365908622741699
1,356717,40.55130386352539,-7.640717029571533,-6.192813396453857,-7.6445488929748535
1,356719,20.267480850219727,15.980744361877441,20.238975524902344,9.742122650146484
1,356721,-12.30311393737793,5.206333160400391,40.99007034301758,20.821767807006836
1,356723,32.589237213134766,-14.183672904968262,44.545772552490234,-6.421126365661621
1,356725,-21.986370086669922,-18.802692413330078,0.37771886587142944,-21.116071701049805
1,356727,-40.48483657836914,1.2975045442581177,-36.23833084106445,12.65032958984375
1,356729,20.020631790161133,20.83783721923828,-13.146623611450195,16.04664421081543
1,356731,27.047056198120117,-7.815699100494385,-29.366252899169922,-33.043907165527344
1,356733,-2.665210008621216,-9.512676239013672,-28.54022216796875,-29.024818420410156
1,356735,-3.6750435829162598,0.6765639781951904,-8.018199920654297,40.827186584472656
1,356737,10.07787036895752,13.200281143188477,-4.3181257247924805,5.388923168182373
1,356739,-3.32328200340271,13.570952415466309,19.498048782348633,-24.039295196533203
1,356741,-18.237356185913086,-19.04520034790039,18.87324333190918,21.641202926635742
1,356743,-17.4617919921875,9.878231048583984,28.237375259399414,0.7771689295768738
1,356745,-7.92421817779541,-2.5506391525268555,9.815502166748047,-21.978748321533203
1,356747,15.426385879516602,-35.29248046875,-14.5320463180542,-14.710010528564453
1,356749,16.41061019897461,37.00318908691406,15.234879493713379,13.2951078414917
1,356751,-11.324816703796387,32.38174819946289,-14.210549354553223,21.67641830444336
1,356753,-4.003655433654785,-31.42393684387207,-25.68899154663086,5.412963390350342
1,356755,17.876895904541016,-2.606374502182007,2.3880882263183594,3.271291494369507
1,356757,-15.16161060333252,-10.410027503967285,-43.42630386352539,-5.6842451095581055
1,356759,-7.268925189971924,-10.463204383850098,8.680523872375488,8.08017635345459
1,356761,-1.1553971767425537,38.427337646484375,63.31818389892578,6.399913787841797
1,356763,-26.42418670654297,-9.988961219787598,-28.39360237121582,-28.78240394592285
1,356765,30.575592041015625,-35.7502555847168,-11.788413047790527,5.875924110412598
1,356767,27.444259643554688,7.132307529449463,30.264862060546875,33.326934814453125
1,356769,4.220204830169678,21.842121124267578,11.953081130981445,-28.54311180114746
1,356771,11.889164924621582,6.403362274169922,10.790827751159668,-8.971695899963379
1,356773,-51.57001495361328,-29.05544090270996,-14.81764030456543,29.248294830322266
1,356775,-24.679637908935547,-16.776933670043945,-12.027125358581543,-30.567039489746094
1,356777,56.03337860107422,31.903053283691406,-20.83633041381836,-10.43436050415039
1,356779,17.45923614501953,18.831119537353516,-29.26117515563965,51.11546325683594
1,356781,-12.226872444152832,-11.695241928100586,12.42514419555664,1.717292070388794
1,356783,-0.794052243232727,-8.633127212524414,24.441545486450195,-35.65709686279297
1,356785,-18.06891632080078,-5.044209003448486,2.7021684646606445,-0.5268469452857971
1,356787,-0.3629799485206604,17.0205135345459,8.990737915039062,-2.2408037185668945
1,356789,15.647390365600586,12.4593505859375,20.019824981689453,-24.821880340576172
1,356791,-18.8116455078125,2.417154312133789,14.50261116027832,6.9071125984191895
1,356793,-23.377193450927734,0.9064440727233887,-33.558956146240234,35.38850402832031
1,356795,5.590940952301025,-50.97002029418945,-64.21054077148438,-23.058990478515625
1,356797,31.74506187438965,11.158734321594238,28.675512313842773,-13.350015640258789
1,356799,4.195987224578857,43.073280334472656,36.54314422607422,31.963531494140625
1,356801,-15.325640678405762,-29.863330841064453,-6.209381103515625,-10.773232460021973
1,356803,16.46295738220215,-5.995608806610107,19.285049438476562,-12.5533447265625
1,356805,-12.389998435974121,7.72666597366333,-4.357838153839111,5.433006763458252
1,356807,-19.812917709350586,-3.8833751678466797,-11.17468547821045,3.8408961296081543
1,356809,16.162355422973633,-12.32600212097168,-3.0751073360443115,17.883909225463867
1,356811,5.871228218078613,8.267443656921387,-7.067480087280273,4.024123191833496
1,356813,-5.045577526092529,8.786870956420898,9.31970500946045,-26.08234405517578
1,356815,-0.7151028513908386,-29.345624923706055,-12.83272647857666,-5.813607215881348
1,356817,-3.229922294616699,28.33940887451172,-11.81529426574707,19.28388786315918
1,356819,-3.9611730575561523,38.537742614746094,18.47577476501465,3.197502374649048
1,356821,5.12849235534668,-35.48307800292969,-6.5597615242004395,-21.761585235595703
1,356823,2.317852258682251,-20.735607147216797,8.894250869750977,11.885514259338379
1,356825,-9.67707347869873,19.685373306274414,21.064189910888672,19.3096866607666
1,356827,14.57313346862793,21.032094955444336,-13.003677368164062,-12.913176536560059
1,356829,-1.2232940196990967,-24.982311248779297,-11.192095756530762,14.51562213897705
1,356831,-9.985400199890137,-19.78782081604004,-9.508040428161621,-7.00040864944458
1,356832,37.802005767822266,54.48419189453125,3.615724563598633,-32.39090347290039
1,356835,-14.22228717803955,-16.74070930480957,10.508559226989746,2.112227201461792
1,356836,-35.509918212890625,-38.12897491455078,-3.4018352031707764,9.943397521972656
1,356839,25.86941909790039,18.38399887084961,-3.5614895820617676,22.808813095092773
1,356840,3.265561103820801,-12.568710327148438,-6.115844249725342,15.188373565673828
1,356843,-22.959360122680664,6.205672740936279,21.818979263305664,-7.664399147033691
1,356844,13.68506908416748,17.875978469848633,11.826706886291504,-23.58799171447754
1,356847,12.829383850097656,8.037910461425781,-18.051429748535156,-13.80893325805664
1,356848,-25.270389556884766,0.5169368386268616,-0.6421395540237427,21.087779998779297
1,356851,-0.16058126091957092,-14.463639259338379,-12.758903503417969,6.9316301345825195
1,356852,13.809152603149414,-5.288896083831787,-4.02910852432251,-2.657958745956421
1,356857,-13.273100852966309,10.841110229492188,3.821333885192871,-7.4079270362854
1,356857,18.043371200561523,13.46928596496582,12.879719734191895,9.80654525756836
1,356859,24.854148864746094,-11.395255088806152,24.72760009765625,-11.556753158569336
1,356861,-42.223445892333984,-26.684541702270508,-48.94257354736328,-53.70991516113281
1,356863,-23.62491226196289,4.747680187225342,-18.888689041137695,35.879024505615234
1,356865,37.666927337646484,21.46820068359375,50.81248474121094,47.86610412597656
1,356867,5.68400764465332,-13.117879867553711,-19.391651153564453,-46.98993682861328
1,356869,-10.494009017944336,4.465066909790039,-9.668573379516602,1.94476318359375
1,356871,1.5578144788742065,0.5285365581512451,29.7716064453125,30.901742935180664
1,356873,-6.853108882904053,-19.841352462768555,-13.45053768157959,-7.845902919769287
1,356875,9.572565078735352,7.400017261505127,1.0735911130905151,-6.350013732910156
1,356877,17.962841033935547,9.254419326782227,5.140059947967529,-11.913193702697754
1,356879,-17.46871566772461,2.4411137104034424,-10.60667896270752,10.15699577331543
1,356881,-21.947542190551758,-4.961245536804199,7.984164714813232,0.5573660731315613
1,356883,15.592039108276367,3.360435962677002,7.5988993644714355,-18.334129333496094
1,356885,9.493473052978516,5.606570720672607,-4.80480432510376,7.151552200317383
1,356887,-12.683050155639648,0.44676586985588074,-22.334794998168945,24.561569213867188
1,356889,22.453981399536133,1.0447686910629272,11.790024757385254,-5.784479141235352
1,356891,4.3304948806762695,-20.642488479614258,19.199758529663086,-14.745925903320312
1,356893,-27.384994506835938,9.498197555541992,-15.970261573791504,-9.551434516906738
1,356895,11.61724853515625,50.56422424316406,2.1324663162231445,12.200237274169922
1,356897,-17.153961181640625,-31.534526824951172,-7.721592426300049,30.00773048400879
1,356899,-2.731624126434326,-28.905914306640625,-2.2542083263397217,-18.971843719482422
1,356901,32.03767776489258,39.82624435424805,13.266486167907715,6.068693161010742
1,356903,-21.27578353881836,-22.698293685913086,-6.035948753356934,0.1117517501115799
1,356905,-6.3962531089782715,-10.698575973510742,5.414017677307129,-12.074883460998535
1,356907,2.0221424102783203,27.937780380249023,-9.62834644317627,29.886768341064453
1,356909,-16.237655639648438,-11.48246955871582,-3.9539618492126465,-6.666196346282959
1,356911,18.618741989135742,-11.822745323181152,30.91342544555664,-23.370819091796875
1,356913,-1.324157953262329,-5.583988189697266,0.4108048975467682,-24.329885482788086
1,356915,-10.94597339630127,1.067877173423767,4.867924213409424,-7.898182392120361
1,356917,19.621564865112305,12.877561569213867,-18.130950927734375,11.928274154663086
1,356919,62.75882339477539,-12.895674705505371,-53.1933708190918,4.844516754150391
1,356921,4.279943943023682,-21.479616165161133,19.139677047729492,19.18389320373535
1,356923,-79.91002655029297,22.85302734375,43.10739517211914,-7.847185134887695
1,356925,2.4187722206115723,25.577783584594727,-1.859437346458435,-1.4355005025863647
1,356927,10.495261192321777,-22.310773849487305,-22.941543579101562,12.622352600097656
1,356929,-38.6673698425293,-10.230557441711426,-14.657013893127441,-22.14103126525879
1,356931,14.235785484313965,15.168863296508789,5.4064459800720215,11.154983520507812
1,356933,45.55348587036133,3.53852915763855,-2.0849802494049072,22.008756637573242
1,356935,-18.333797454833984,6.217329025268555,-0.2838484048843384,-22.1214599609375
1,356937,-14.25471019744873,15.219022750854492,16.8234920501709,5.748720169067383
1,356939,4.245782375335693,3.4161715507507324,2.3143184185028076,24.261709213256836
1,356941,-11.514967918395996,-29.245771408081055,19.60838508605957,-38.423728942871094
1,356943,24.111717224121094,-24.525482177734375,14.013614654541016,-37.37743377685547
1,356945,-8.276467323303223,22.86155128479004,-23.931076049804688,40.63349914550781
1,356947,-13.202638626098633,28.2430419921875,-2.8978326320648193,33.56184768676758
1,356949,26.547325134277344,-27.36341667175293,-5.565202713012695,-25.900529861450195
1,356951,-3.16365122795105,-26.194515228271484,-8.123705863952637,-5.730773448944092
1,356953,-13.221161842346191,16.50343894958496,8.865665435791016,0.6902734637260437
1,356955,-5.699316024780273,11.400261878967285,3.3910717964172363,-17.266361236572266
1,356957,8.01059627532959,14.614675521850586,19.83397102355957,44.69059371948242
1,356959,6.260134220123291,-8.557278633117676,-12.259955406188965,37.05536651611328
1,356961,-14.2716703414917,-39.982322692871094,-52.492984771728516,-52.344913482666016
1,356963,9.553471565246582,-0.16201600432395935,21.990951538085938,-27.615081787109375
1,356965,19.300397872924805,50.90481185913086,56.11189651489258,19.607728958129883
1,356967,-1.8323760032653809,13.431687355041504,-31.708890914916992,-10.987894058227539
1,356969,-4.900762557983398,-32.055870056152344,-38.89047622680664,21.051095962524414
1,356971,-7.970068454742432,16.800703048706055,18.47064208984375,6.54373836517334
1,356973,-8.745017051696777,-0.08706212043762207,16.368518829345703,-34.64299011230469
1,356975,1.5603816509246826,-42.73158645629883,-4.781027793884277,20.586442947387695
1,356977,2.5118162631988525,35.39270782470703,3.1235427856445312,16.295734405517578
1,356979,-3.3091869354248047,24.897144317626953,22.49537467956543,-9.192225456237793
1,356981,-13.589592933654785,-53.86396026611328,-10.131110191345215,-9.065192222595215
1,356983,11.504592895507812,-0.9025251269340515,-35.909629821777344,-37.91115951538086
1,356985,15.70315933227539,24.524221420288086,-0.46777936816215515,-12.213452339172363
1,356987,-6.745237827301025,14.093232154846191,17.345853805541992,67.39895629882812
1,356989,-0.052334900945425034,-8.77216625213623,10.252435684204102,18.201675415039062
1,356991,0.23358619213104248,-24.002050399780273,9.847091674804688,-32.68549346923828
1,356993,-0.3969102203845978,26.322669982910156,-6.861893177032471,7.902797222137451
1,356995,-5.104312896728516,-15.105469703674316,-17.61885643005371,-21.175521850585938
1,356997,-2.5742459297180176,-4.016402244567871,11.559282302856445,5.05889892578125
1,356999,28.548738479614258,64.31898498535156,21.919862747192383,40.600704193115234
1,357001,-19.662288665771484,-7.086683750152588,-20.619365692138672,-9.52369213104248
1,357003,-27.139873504638672,-57.18942642211914,-29.31093978881836,-32.541080474853516
1,357005,23.46854591369629,-33.248046875,28.77645492553711,-8.841567039489746
1,357007,-15.060614585876465,-2.5360095500946045,19.82554817199707,31.979429244995117
1,357008,3.3284902572631836,16.277070999145508,-32.48480987548828,2.873753070831299
1,357011,19.386802673339844,21.58069610595703,5.816339492797852,-7.966610431671143
1,357012,-11.915396690368652,34.625858306884766,18.063932418823242,-3.212827682495117
1,357015,13.029145240783691,-1.9319053888320923,-29.7488956451416,-13.957618713378906
1,357016,8.370431900024414,-31.421422958374023,3.501167058944702,-12.999909400939941
1,357019,-16.940757751464844,-13.484090805053711,58.558937072753906,0.19154366850852966
1,357020,-4.193447589874268,7.726239204406738,-26.264677047729492,24.013303756713867
1,357023,-11.894598007202148,25.345623016357422,-49.10392761230469,-10.412120819091797
1,357024,-4.824739456176758,18.77484130859375,25.390460968017578,-19.40869903564453
1,357027,33.08921813964844,-0.9125292301177979,7.3916015625,13.840836524963379
1,357028,15.094581604003906,-20.01834487915039,-1.329594373703003,1.2196763753890991
1,357031,-19.66359519958496,-33.10076141357422,-19.938270568847656,-6.1543121337890625
1,357034,5.675117015838623,-7.778949737548828,-1.9990559816360474,12.35869026184082
1,357034,-1.4055466651916504,12.083044052124023,32.290870666503906,-13.51456356048584
1,357037,-33.42177200317383,3.1795654296875,-15.78903579711914,8.246243476867676
1,357038,5.037773132324219,20.49891471862793,-4.138192653656006,25.559846878051758
1,357041,21.794036865234375,4.156465530395508,37.212432861328125,15.37035083770752
1,357042,-10.355745315551758,-11.874183654785156,-5.111321449279785,11.036916732788086
1,357045,-5.737046241760254,11.629985809326172,-45.9422721862793,-43.498355865478516
1,357046,5.094327926635742,-11.26302719116211,-1.5782872438430786,-13.014242172241211
1,357049,15.259754180908203,-4.242702007293701,45.070831298828125,29.691617965698242
1,357050,-6.985164165496826,4.909067630767822,-2.9066131114959717,-7.885363578796387
1,357053,-28.629194259643555,6.691160678863525,-42.48805236816406,-4.987434387207031
1,357054,18.31058120727539,16.204330444335938,7.6260857582092285,2.4392995834350586
1,357057,2.436802387237549,-29.626577377319336,18.34151840209961,-10.245279312133789
1,357058,-13.51767349243164,-8.144830703735352,-20.0745849609375,-6.150333881378174
1,357061,26.670814514160156,17.71255874633789,-10.396924018859863,-3.1623597145080566
1,357062,8.151832580566406,6.666601181030273,41.86570358276367,9.352785110473633
1,357065,2.855886936187744,-24.715017318725586,7.770838737487793,-1.6308395862579346
1,357066,3.537210702896118,-20.528715133666992,-31.680896759033203,-11.128857612609863
1,357069,-20.696514129638672,48.44351577758789,23.414705276489258,30.941469192504883
1,357070,11.246489524841309,-1.2308261394500732,7.915606498718262,26.043590545654297
1,357073,21.687015533447266,-21.771821975708008,-11.805276870727539,-25.634170532226562
1,357074,-37.1159553527832,11.087733268737793,-11.42381477355957,-13.46672248840332
1,357077,-22.57752799987793,-12.484825134277344,-36.69329071044922,2.5171852111816406
1,357078,31.91693687438965,5.09928035736084,26.905912399291992,-11.515885353088379
1,357081,6.311765670776367,33.39023208618164,47.354496002197266,9.190881729125977
1,357082,-10.72319507598877,13.439643859863281,-22.533374786376953,-4.577183246612549
1,357085,-20.541933059692383,-26.39341163635254,-35.83478927612305,-18.95282554626465
1,357086,-13.104887008666992,-16.70798683166504,7.384634971618652,15.725318908691406
1,357089,25.31378746032715,3.4143404960632324,26.66921615600586,11.164045333862305
1,357090,-3.8051857948303223,-2.3563859462738037,10.578330993652344,-8.838848114013672
1,357093,2.364710569381714,-6.431246757507324,-7.804823875427246,-0.5533862709999084
1,357094,23.356348037719727,-8.168408393859863,-17.428300857543945,6.871174335479736
1,357097,-16.195247650146484,-9.254817008972168,-6.950829982757568,1.4415192604064941
1,357098,-6.8105292320251465,28.707305908203125,4.848932266235352,7.349425792694092
1,357101,-1.1453310251235962,15.644383430480957,2.936098575592041,-9.560080528259277
1,357102,-5.504271030426025,-47.68275451660156,-20.148107528686523,-7.9661383628845215
1,357105,19.25696563720703,16.240514755249023,25.607555389404297,17.600570678710938
1,357106,7.72504186630249,44.27409362792969,30.38762855529785,-0.5419125556945801
1,357109,-13.337419509887695,-29.98952865600586,-41.23546600341797,-22.087129592895508
1,357110,6.210233688354492,-3.7352418899536133,3.920269250869751,11.599259376525879
1,357113,7.273391246795654,23.98387336730957,4.356436729431152,20.129783630371094
1,357114,-17.036060333251953,-17.84149169921875,-35.10886764526367,-31.084867477416992
1,357117,-0.02062876522541046,-2.853533983230591,43.60624313354492,2.8260536193847656
1,357118,14.836438179016113,10.9218168258667,33.00110626220703,18.272714614868164
1,357121,-6.008731365203857,-16.75626564025879,-41.90325927734375,-0.000492439663503319
1,357122,-5.5145182609558105,-11.477811813354492,-3.472773551940918,0.44296032190322876
1,357125,9.313169479370117,21.75372886657715,7.785926342010498,-28.096668243408203
1,357126,-12.148439407348633,10.626007080078125,-13.213187217712402,8.931620597839355
1,357129,-12.441841125488281,-20.58270263671875,-3.1679863929748535,29.076152801513672
1,357130,4.3572306632995605,-26.750761032104492,-4.971465110778809,-12.206579208374023
1,357133,7.362527847290039,36.985145568847656,6.177595615386963,-17.968828201293945
1,357134,7.232808589935303,25.20793914794922,10.878018379211426,-1.2352304458618164
1,357137,-12.51206111907959,-61.6484489440918,-7.231163501739502,12.456903457641602
1,357138,4.403711795806885,13.53209400177002,-0.11920015513896942,27.743085861206055
1,357141,15.609862327575684,13.319839477539062,16.114686965942383,-3.5440783500671387
1,357142,-14.088653564453125,-24.750627517700195,17.415904998779297,-38.33824920654297
1,357145,-2.567028760910034,59.40631866455078,-1.2001099586486816,4.758533954620361
1,357146,13.265710830688477,10.283110618591309,-39.63587188720703,4.556336879730225
1,357149,-10.376642227172852,-50.74824142456055,-5.9103684425354,-32.83148193359375
1,357150,15.304855346679688,25.800365447998047,48.24111557006836,15.508390426635742
1,357153,11.54089641571045,8.135600090026855,5.880656719207764,38.4648551940918
1,357154,-27.998271942138672,-31.05385971069336,-37.12942886352539,-26.4410343170166
1,357157,-4.486484050750732,4.120763301849365,-14.197854042053223,-18.94353675842285
1,357158,11.181711196899414,-2.5875062942504883,5.380123615264893,33.44279098510742
1,357161,-1.3034194707870483,-9.460830688476562,1.500334620475769,18.15435791015625
1,357162,-11.340450286865234,-5.971126556396484,5.04042387008667,-14.879425048828125
1,357165,16.67801284790039,14.742286682128906,8.716490745544434,-5.54555082321167
1,357166,14.639749526977539,28.927364349365234,2.090210437774658,22.61557388305664
1,357169,-26.84707260131836,-17.402109146118164,-22.388452529907227,-7.429245471954346
1,357170,-12.425080299377441,-24.660663604736328,-16.66435432434082,-13.273506164550781
1,357173,5.830539703369141,28.165721893310547,41.80421829223633,1.2724663019180298
1,357174,11.704401016235352,2.7118728160858154,15.460831642150879,-41.528892517089844
1,357177,10.068690299987793,-27.499513626098633,-25.520620346069336,2.0159659385681152
1,357178,-8.132683753967285,13.59068489074707,8.802684783935547,69.8786849975586
1,357181,-11.394057273864746,-5.181623935699463,-13.94684886932373,-9.680044174194336
1,357182,-1.5549864768981934,-10.391639709472656,-23.98539161682129,-48.58905029296875
1,357185,17.964101791381836,32.1380500793457,34.98508834838867,14.752164840698242
1,357187,-6.285367965698242,-0.9680507183074951,18.868146896362305,17.24323081970215
1,357189,-1.8382806777954102,-17.16912269592285,-25.719951629638672,-8.088644981384277
1,357191,0.0007742792367935181,1.7859307527542114,9.69596004486084,1.7376347780227661
1,357193,-13.2859525680542,-6.451178073883057,0.9255030155181885,-4.034821033477783
1,357195,24.82478141784668,4.121345043182373,-16.60975456237793,-13.834779739379883
1,357197,-8.630611419677734,19.756961822509766,16.207948684692383,26.020448684692383
1,357199,-9.48813533782959,1.0008007287979126,-14.986258506774902,2.904078245162964
1,357201,24.54974937438965,-2.043412685394287,2.576706886291504,-42.50813674926758
1,357203,-8.151998519897461,-11.365509986877441,38.30775833129883,4.7071332931518555
1,357205,-13.89367389678955,-16.58205223083496,-24.628633499145508,31.024425506591797
1,357207,5.655117511749268,-2.971644163131714,-33.97663879394531,22.137956619262695
1,357209,17.469030380249023,-1.767069935798645,13.357666969299316,-31.67645835876465
1,357211,-17.899456024169922,32.93260192871094,29.08710289001465,-20.67479133605957
1,357212,-27.207565307617188,4.742807865142822,12.86085033416748,48.04762649536133
1,357215,29.790985107421875,-22.155567169189453,-21.503555297851562,-20.391023635864258
1,357216,11.367307662963867,18.30626678466797,-24.360872268676758,-39.779170989990234
1,357219,-14.797972679138184,3.586219310760498,11.819160461425781,25.48328399658203
1,357220,10.219084739685059,-31.415878295898438,12.855071067810059,18.27018928527832
1,357223,-0.3195444643497467,0.6780756711959839,-12.393559455871582,-4.801223278045654
2,357226,-22.95720863342285,18.988248825073242,-9.793169021606445,-10.107647895812988
2,357226,-3.560015916824341,-33.47407913208008,1.2980058193206787,-5.466928005218506
2,357229,27.22736930847168,9.384875297546387,22.53912353515625,23.05017852783203
2,357230,3.1722412109375,29.49522590637207,-2.1188642978668213,13.9114990234375
2,357233,-22.497678756713867,-5.2470526695251465,-18.15020751953125,-16.450937271118164
2,357234,7.1741485595703125,11.947588920593262,19.771806716918945,7.478391647338867
2,357237,0.015246014110744,-22.55537223815918,0.3237319886684418,-1.3564156293869019
2,357238,-17.625856399536133,-16.06772804260254,-26.355846405029297,-28.272640228271484
2,357241,14.73603630065918,12.653875350952148,7.9805192947387695,-10.624825477600098
2,357242,11.42812728881836,12.3936767578125,30.84526252746582,19.84320068359375
2,357245,-6.406413555145264,-3.231295347213745,-10.193696975708008,14.502020835876465
2,357246,12.323164939880371,-10.156782150268555,-16.63080596923828,-13.714386940002441
2,357249,8.316887855529785,-0.3487658202648163,2.8435723781585693,-5.820132732391357
2,357250,-11.10285758972168,3.5069739818573,-6.944708824157715,-0.20829162001609802
2,357253,-15.132472038269043,14.769509315490723,-6.443662643432617,1.9143023490905762
2,357254,-9.371394157409668,-11.45315170288086,3.015071153640747,1.6155482530593872
2,357257,22.292299270629883,-8.454244613647461,20.605777740478516,10.015512466430664
2,357258,15.352134704589844,25.897424697875977,-0.5493888258934021,13.961642265319824
2,357261,-21.327564239501953,0.5056492686271667,-18.594100952148438,-5.959109783172607
2,357262,-13.75084114074707,-27.349672317504883,-5.856287002563477,-16.379709243774414
2,357265,6.3816046714782715,8.403564453125,23.3769588470459,-6.290014743804932
2,357266,4.973172187805176,10.460654258728027,20.084829330444336,28.944076538085938
2,357269,5.957551956176758,-3.975041389465332,-35.070045471191406,2.6466057300567627
2,357270,-1.9879963397979736,-14.79221248626709,-16.655866622924805,-44.01004409790039
2,357273,-18.168947219848633,-22.403308868408203,16.23933982849121,-4.295742511749268
2,357274,-1.850705623626709,31.419845581054688,10.30162239074707,25.811023712158203
2,357277,16.24336814880371,20.002058029174805,-0.49352410435676575,-10.080219268798828
2,357278,9.690925598144531,-30.206804275512695,-1.8892842531204224,-20.553569793701172
2,357281,-4.328298568725586,-14.405582427978516,11.539715766906738,30.995267868041992
2,357282,-0.1367606818675995,24.846961975097656,-3.526109457015991,14.196088790893555
2,357285,-2.5325708389282227,24.36882781982422,-13.104955673217773,-10.952884674072266
2,357286,-15.584431648254395,-12.096945762634277,-11.52811336517334,12.218530654907227
2,357289,12.60247802734375,-9.70534610748291,7.776866436004639,-7.395504951477051
2,357290,15.046736717224121,15.774565696716309,37.2811164855957,-8.883116722106934
2,357293,-9.17446231842041,-2.6428747177124023,-13.122672080993652,-12.499711990356445
2,357294,-2.5999326705932617,-11.572503089904785,-36.98631286621094,-7.899282455444336
2,357297,-8.602489471435547,-16.760440826416016,19.690114974975586,21.44894027709961
2,357298,-0.9165489077568054,-2.5019171237945557,0.6547128558158875,28.698789596557617
2,357301,9.762907028198242,40.16279602050781,-7.804953575134277,3.349998712539673
2,357302,-2.8391082286834717,-14.856598854064941,23.725143432617188,-36.01809310913086
2,357305,-4.579320907592773,-35.73856735229492,-15.254484176635742,-4.924824237823486
2,357306,2.2757678031921387,8.443312644958496,-0.607666015625,23.658384323120117
2,357309,10.39035701751709,12.931502342224121,27.17559051513672,5.0573272705078125
2,357310,3.8608901500701904,6.446455478668213,-17.392681121826172,-4.89838171005249
2,357313,-18.4855899810791,-14.548113822937012,-8.77275276184082,-21.94965934753418
2,357314,-7.996659278869629,2.84814453125,6.476762294769287,-1.429394006729126
2,357317,30.713775634765625,34.767967224121094,-12.985400199890137,16.702224731445312
2,357318,-1.7071504592895508,4.735271453857422,15.662147521972656,2.3990302085876465
2,357321,-39.770145416259766,-30.94322395324707,3.9402289390563965,-16.527257919311523
2,357322,21.55484962463379,6.913908004760742,-32.0416145324707,-21.63724708557129
2,357325,31.29886817932129,26.44870376586914,4.201135635375977,4.349941730499268
2,357326,-27.442642211914062,-16.533733367919922,4.338284969329834,6.941267967224121
2,357329,-20.87469482421875,-25.066268920898438,12.657094955444336,29.978269577026367
2,357330,21.504499435424805,-2.305041790008545,16.177555084228516,9.951774597167969
2,357333,9.991748809814453,15.944310188293457,-28.344154357910156,-32.624237060546875
2,357334,-8.118080139160156,-5.28936767578125,2.1890299320220947,9.52340316772461
2,357337,5.395013809204102,-14.10250186920166,16.578725814819336,11.37645149230957
2,357338,-15.551928520202637,11.30811882019043,-19.926509857177734,10.30408763885498
2,357341,-10.207015037536621,6.686537265777588,-7.774139404296875,1.763055682182312
2,357342,16.569547653198242,-10.491094589233398,16.845857620239258,-50.81429672241211
2,357345,12.04236888885498,5.464712619781494,21.78829574584961,-24.441818237304688
2,357346,11.471580505371094,31.975690841674805,5.722061634063721,26.090681076049805
2,357349,-13.974871635437012,-6.355932235717773,-32.93949508666992,20.608247756958008
2,357350,-23.368724822998047,-41.81743240356445,-5.027125358581543,24.007854461669922
2,357353,6.446346759796143,-15.202227592468262,19.9837703704834,-7.059048652648926
2,357354,12.74366569519043,13.241087913513184,-2.4623661041259766,-55.77622985839844
2,357357,13.142749786376953,21.73351287841797,12.30691146850586,29.63905143737793
2,357358,-17.410593032836914,19.9197940826416,-3.7355127334594727,60.72294998168945
2,357361,-26.333179473876953,-12.128161430358887,-32.015689849853516,-20.49907112121582
2,357362,22.792360305786133,-22.948135375976562,-3.574880838394165,-34.80610275268555
2,357365,12.71932601928711,14.571524620056152,26.14715576171875,-2.341604709625244
2,357366,-5.949389934539795,6.270801544189453,-4.093503475189209,18.66468048095703
2,357369,10.48079776763916,-17.664228439331055,-6.336463451385498,7.139431953430176
2,357370,2.3881192207336426,12.441166877746582,10.966282844543457,-1.6643028259277344
2,357373,-16.547700881958008,17.222288131713867,-10.397181510925293,-5.349328994750977
2,357374,3.090862512588501,-25.12973403930664,5.165975570678711,-18.948745727539062
2,357377,20.049331665039062,16.44127655029297,6.622613430023193,12.895214080810547
2,357378,-22.62314224243164,2.3643829822540283,-4.465368747711182,19.732358932495117
