Aktueller Finger,timestamp_ms,sensor_0,sensor_1,sensor_2,sensor_3
0,1069843,-23.869773864746094,21.50705909729004,3.358074903488159,4.260087966918945
0,1069843,27.411178588867188,38.018653869628906,22.60129165649414,-49.08218002319336
0,1069845,-4.031811714172363,-39.86109161376953,-15.600174903869629,0.9566942453384399
0,1069847,14.460707664489746,24.513235092163086,14.099205017089844,54.45634841918945
0,1069849,40.283058166503906,11.742058753967285,-13.676553726196289,-11.524065017700195
0,1069851,-57.61061477661133,-64.13739776611328,-20.171585083007812,-57.50309371948242
0,1069853,-5.848915100097656,19.855470657348633,25.965686798095703,-1.090789556503296
0,1069855,32.00413131713867,42.40756607055664,-6.783217430114746,54.06423568725586
0,1069857,-14.061073303222656,-4.680492401123047,-19.23738670349121,5.039060115814209
0,1069859,-9.271987915039062,-14.948822021484375,14.147880554199219,-0.6600079536437988
0,1069861,-18.908485412597656,-3.223081111907959,9.647916793823242,16.128116607666016
0,1069863,34.139686584472656,11.913586616516113,-2.5299246311187744,-1.0071380138397217
0,1069865,21.423250198364258,-21.39784049987793,0.5037746429443359,16.61865234375
0,1069867,-49.90227127075195,12.346296310424805,-3.261183023452759,-53.680503845214844
0,1069869,2.3054516315460205,4.834322452545166,-8.11257553100586,-60.04762268066406
0,1069871,28.412153244018555,-18.570343017578125,0.858110249042511,72.05595397949219
0,1069873,-23.39948272705078,24.160354614257812,11.905413627624512,15.08708381652832
0,1069875,24.026906967163086,23.57229995727539,8.047558784484863,-34.457618713378906
0,1069877,24.930028915405273,0.1771072894334793,-17.359588623046875,11.500293731689453
0,1069879,-26.621566772460938,-34.7474365234375,-30.54481315612793,-19.725975036621094
0,1069881,11.22091007232666,3.3725969791412354,46.24295425415039,45.4896354675293
0,1069883,-23.830169677734375,-15.306134223937988,35.45903778076172,-2.0771961212158203
0,1069885,-30.0272216796875,-32.520301818847656,-53.694923400878906,-87.00477600097656
0,1069887,19.289262771606445,62.871131896972656,-6.755900859832764,37.90448760986328
0,1069889,30.707117080688477,11.177924156188965,11.50710391998291,41.44406509399414
0,1069891,10.488621711730957,-46.785118103027344,-4.092813968658447,-34.98219299316406
0,1069893,-30.16136932373047,-4.59126091003418,7.42252254486084,0.3253940939903259
0,1069895,1.7602421045303345,23.86506462097168,-3.0655810832977295,-0.32114070653915405
0,1069897,24.54271125793457,17.348583221435547,-2.9444382190704346,12.642837524414062
0,1069899,-26.054113388061523,-24.152799606323242,3.1580276489257812,73.84317016601562
0,1069901,-24.543926239013672,-2.870222330093384,16.14584732055664,36.58426284790039
0,1069903,56.040748596191406,23.0694637298584,-6.901605129241943,-58.49568557739258
0,1069905,15.535807609558105,-20.727235794067383,-32.632102966308594,-106.48100280761719
0,1069907,-45.280616760253906,19.358022689819336,-3.44052791595459,-24.14067268371582
0,1069909,-7.931435585021973,35.722740173339844,27.773157119750977,94.42707061767578
0,1069911,-2.0506606101989746,-64.20108795166016,21.811532974243164,27.38601303100586
0,1069913,10.694000244140625,-3.2395660877227783,-12.550837516784668,-33.811851501464844
0,1069915,5.966045379638672,42.540496826171875,-1.75337815284729,13.299869537353516
0,1069917,6.1651105880737305,-22.62306022644043,19.555644989013672,-33.6591682434082
0,1069919,-6.890395641326904,18.328630447387695,-17.77847671508789,-12.3778715133667
0,1069921,-29.294954299926758,-2.73146653175354,-15.365424156188965,68.24449157714844
0,1069923,28.01979637145996,-41.345645904541016,15.290547370910645,-9.279025077819824
0,1069925,-3.3570072650909424,22.73475456237793,-18.539119720458984,-55.4336051940918
0,1069927,-18.243806838989258,22.127805709838867,-6.068049907684326,19.36614990234375
0,1069929,34.98872375488281,-30.293996810913086,51.267677307128906,53.775840759277344
0,1069931,-0.3424515426158905,-0.422382116317749,0.05575403571128845,-22.38292694091797
0,1069933,-11.059326171875,14.385668754577637,-41.76760482788086,-64.16934967041016
0,1069935,8.96151065826416,-8.046300888061523,-16.861543655395508,15.317036628723145
0,1069937,-3.046912670135498,6.564001560211182,-10.690788269042969,21.69225311279297
0,1070192,-41.4002799987793,-29.489503860473633,-18.456741333007812,8.019686698913574
0,1070195,-0.11859393119812012,-15.358522415161133,17.888214111328125,3.089587450027466
0,1070197,69.32933807373047,57.508094787597656,52.65468215942383,-42.92340850830078
0,1070199,20.29364776611328,1.251238465309143,12.370941162109375,28.953636169433594
0,1070201,-48.8464241027832,-25.861597061157227,-26.2922420501709,30.546878814697266
0,1072160,-49.77230453491211,53.59646224975586,-12.605161666870117,-36.73806381225586
0,1072161,3.2644741535186768,-0.7019770741462708,-78.01441955566406,-70.65296936035156
0,1072163,57.0470085144043,-42.940895080566406,50.83210754394531,68.10388946533203
0,1072165,-6.903169631958008,-26.178085327148438,143.2792510986328,138.14796447753906
0,1072167,-50.601051330566406,0.5112952589988708,-82.3453369140625,-144.7249755859375
0,1072169,1.228266954421997,39.9061279296875,-9.729830741882324,-72.5545883178711
0,1072171,37.6568717956543,-0.15311618149280548,-3.9190990924835205,73.1668930053711
0,1072173,16.071306228637695,-5.8207221031188965,-28.72473907470703,30.27039337158203
0,1072175,-40.51849365234375,-23.454832077026367,48.175621032714844,40.364253997802734
0,1072177,-1.732755184173584,-13.582096099853516,-41.057830810546875,-3.7759652137756348
0,1072179,35.17159652709961,7.265994071960449,44.65205764770508,10.977029800415039
0,1072181,3.433053731918335,-12.767023086547852,-18.9168758392334,-37.94728469848633
0,1072183,13.610090255737305,4.019278526306152,-80.9357681274414,5.754283905029297
0,1072185,10.912428855895996,37.09074401855469,75.49016571044922,16.506454467773438
0,1072187,-30.5965576171875,67.5802001953125,21.047039031982422,-51.170562744140625
0,1072189,-18.11471176147461,-16.308368682861328,-59.55624771118164,-36.21601486206055
0,1072191,21.45047950744629,-74.25613403320312,-12.164278030395508,-7.846380233764648
0,1072193,62.24909210205078,51.30459213256836,49.746002197265625,83.92832946777344
0,1072195,-8.800271034240723,5.182717800140381,7.459948539733887,20.298423767089844
0,1072197,-74.96504211425781,-80.89856719970703,-17.664926528930664,-89.12374877929688
0,1072199,8.704105377197266,24.99886703491211,24.814237594604492,-5.843595504760742
0,1072201,-27.112346649169922,38.55018997192383,-54.7847785949707,6.141330242156982
0,1072203,-2.851716995239258,15.885385513305664,-23.821943283081055,-33.57029342651367
0,1072205,90.96855163574219,-11.335121154785156,90.79721069335938,138.6225128173828
0,1072207,-49.71247482299805,-75.11566162109375,45.72420120239258,102.37162017822266
0,1072209,-44.8233642578125,-15.225680351257324,-45.80628967285156,-112.30044555664062
0,1072211,49.45109939575195,74.76022338867188,-66.90936279296875,-117.32859802246094
0,1072213,-10.5542631149292,43.36934280395508,78.75297546386719,46.146385192871094
0,1072215,-33.518436431884766,-59.84123229980469,35.77667236328125,109.23796844482422
0,1072217,-0.43748903274536133,-13.962442398071289,-106.94960021972656,-72.81942749023438
0,1072219,43.1412239074707,52.62314987182617,-1.1802430152893066,-82.41653442382812
0,1072221,20.29852867126465,-20.035078048706055,-12.108115196228027,47.79182434082031
0,1072223,-39.310176849365234,-125.90736389160156,-38.109825134277344,25.272071838378906
0,1072225,7.332442760467529,15.950188636779785,75.66732025146484,-3.1688649654388428
0,1072227,49.926753997802734,244.15020751953125,85.89505004882812,-15.960439682006836
0,1072229,-68.7452621459961,-65.85143280029297,-95.96951293945312,-89.18602752685547
0,1072231,11.72484016418457,-136.2046661376953,-66.99054718017578,16.170032501220703
0,1072233,92.04951477050781,80.17003631591797,83.20599365234375,-5.218957424163818
0,1072235,-95.26365661621094,-46.49668884277344,-16.466278076171875,21.624475479125977
0,1072237,-13.84575366973877,19.297096252441406,20.687023162841797,216.02857971191406
0,1072239,37.21054458618164,60.8188362121582,28.710569381713867,-59.60447692871094
0,1072241,-38.83534240722656,-81.72022247314453,-57.77517318725586,-118.56981658935547
0,1072243,10.760807991027832,5.4025702476501465,20.960721969604492,73.2954330444336
0,1072245,-31.002527236938477,79.29436492919922,40.0098876953125,4.698436737060547
0,1072247,2.6862003803253174,-27.72540855407715,-36.868438720703125,-50.87376403808594
0,1072249,52.25022506713867,-54.18460464477539,-48.153968811035156,-46.056495666503906
0,1072251,-3.897783041000366,13.830723762512207,38.13271713256836,62.26818084716797
0,1072253,8.623554229736328,2.1295838356018066,5.7715744972229,40.118202209472656
0,1072255,-10.473241806030273,-58.353885650634766,-47.9145622253418,-56.46171569824219
0,1072257,-85.80662536621094,0.012728219851851463,13.736300468444824,22.463760375976562
0,1072259,64.17092895507812,66.95677185058594,38.5669059753418,-37.575279235839844
0,1072261,114.54524230957031,12.880690574645996,18.03386878967285,-64.67990112304688
0,1072263,-127.94974517822266,-43.363990783691406,-33.16547393798828,42.58153533935547
0,1072267,-18.207637786865234,-5.642513275146484,-29.91338348388672,6.589047431945801
0,1072267,154.88304138183594,44.95903396606445,59.229183197021484,41.94099426269531
0,1072268,-45.31978988647461,-9.146120071411133,0.1126442402601242,4.486486434936523
0,1072271,-92.2710189819336,-25.60757064819336,-43.52189254760742,-75.86800384521484
0,1072272,23.619714736938477,33.18246841430664,41.63102722167969,27.983402252197266
0,1072275,30.802770614624023,25.34637451171875,-10.676212310791016,34.01702117919922
0,1072276,-11.997248649597168,-33.125885009765625,-39.46002197265625,-26.084348678588867
0,1072279,5.853371620178223,-24.448453903198242,38.367958068847656,20.093156814575195
0,1072280,12.212984085083008,20.36182403564453,25.358226776123047,59.35055923461914
0,1072283,-19.885608673095703,32.44132614135742,-13.531105995178223,-44.51485061645508
0,1072284,-9.303107261657715,-12.371273040771484,-2.9518415927886963,-37.87800979614258
0,1072287,-0.5898779630661011,-35.90036392211914,-12.374058723449707,92.40699005126953
0,1072288,-1.3001927137374878,29.67243194580078,1.7244590520858765,-10.103779792785645
0,1072291,-46.30353546142578,-12.740367889404297,-4.6332573890686035,-80.72966766357422
0,1072292,-16.056549072265625,-35.97244644165039,-33.324684143066406,-2.075674533843994
0,1072295,74.14647674560547,35.09898376464844,24.366695404052734,10.98768424987793
0,1072296,-6.920029640197754,20.600507736206055,37.517818450927734,34.55081558227539
0,1072299,-30.571203231811523,-27.485151290893555,-37.325584411621094,7.620254993438721
0,1072300,62.006248474121094,7.496496200561523,-23.957521438598633,-53.191131591796875
0,1072303,11.335784912109375,41.56816864013672,34.28473663330078,-2.437471389770508
0,1072304,-61.005226135253906,-50.47925567626953,16.290616989135742,2.6994049549102783
0,1072307,12.338720321655273,-25.688106536865234,-13.215407371520996,-3.6961722373962402
0,1072308,42.58702087402344,40.831787109375,-15.297707557678223,64.76577758789062
0,1072311,-31.422147750854492,-4.9190144538879395,11.08331298828125,-8.195647239685059
0,1072312,-27.598257064819336,6.246500492095947,2.276355266571045,-73.56600189208984
0,1072315,28.762460708618164,24.99730110168457,-20.404233932495117,44.821678161621094
0,1072316,25.543909072875977,-17.879552841186523,17.743778228759766,39.95027542114258
0,1072319,-23.46286964416504,-47.630584716796875,1.1679819822311401,-43.614295959472656
0,1072320,-22.31305503845215,3.5138444900512695,-18.313814163208008,-20.96460723876953
0,1072323,-22.492616653442383,31.913671493530273,7.962253093719482,18.819887161254883
0,1072324,8.652705192565918,-6.933870315551758,27.331531524658203,34.04747772216797
0,1072327,59.52493667602539,10.276580810546875,8.386862754821777,60.84819412231445
0,1072328,-3.797139883041382,6.787537097930908,-35.76018524169922,46.7752571105957
0,1072331,-40.55792236328125,-46.891597747802734,-21.07472801208496,-179.2839813232422
0,1072332,19.455703735351562,24.020519256591797,20.659772872924805,-133.4447479248047
0,1072335,12.123905181884766,47.2188720703125,4.682750225067139,170.36834716796875
0,1072336,-34.591224670410156,-40.760986328125,-0.6339296698570251,103.69281005859375
0,1072339,10.104148864746094,-14.564506530761719,29.342111587524414,-59.27505874633789
0,1072340,16.698387145996094,33.80044937133789,5.4279279708862305,-57.85022735595703
0,1072343,11.072626113891602,27.95566177368164,1.1622124910354614,-24.838603973388672
0,1072344,-3.3414487838745117,-12.994189262390137,-21.530900955200195,3.5333144664764404
0,1072347,-52.22848892211914,-53.99077224731445,-39.945186614990234,20.168468475341797
0,1072348,42.97749710083008,37.730045318603516,30.08742332458496,24.497089385986328
0,1072351,33.770565032958984,25.468996047973633,19.62860870361328,21.979938507080078
0,1072352,-87.9950942993164,-86.17517852783203,-33.02912521362305,-9.805237770080566
0,1072355,-35.864349365234375,29.29361915588379,36.6457633972168,-16.752418518066406
0,1072356,63.924800872802734,56.235172271728516,21.606599807739258,17.382417678833008
0,1072359,24.828441619873047,-55.55522537231445,-68.78931427001953,-9.412949562072754
0,1072360,-1.2416726350784302,-11.664852142333984,3.4508888721466064,4.837675094604492
0,1072363,-6.076702117919922,9.782668113708496,20.651586532592773,41.0482177734375
0,1072364,-19.8808650970459,4.374312877655029,-35.45396423339844,-5.171786308288574
0,1072367,50.08774948120117,-17.434688568115234,-2.5665283203125,-57.34364318847656
0,1072368,-25.62815284729004,16.183382034301758,28.554121017456055,-27.901723861694336
0,1072371,-38.744171142578125,68.09361267089844,21.64905548095703,11.076433181762695
0,1072372,71.09821319580078,-42.6513671875,-5.165284156799316,-1.8146103620529175
0,1072375,39.0186882019043,-11.137635231018066,11.316197395324707,47.373477935791016
0,1072376,-57.128936767578125,20.285417556762695,2.4131104946136475,3.3688297271728516
0,1072379,-70.12801361083984,-27.24220085144043,-23.953866958618164,-55.74427032470703
0,1072380,22.823678970336914,-10.761384963989258,-11.35377311706543,14.528388977050781
0,1072383,43.66863250732422,16.151857376098633,8.321805000305176,18.439865112304688
0,1072385,10.50511360168457,42.292884826660156,32.91276931762695,-9.515904426574707
0,1072387,-48.256675720214844,-52.956298828125,-19.01513671875,-17.874380111694336
0,1072389,-22.860523223876953,-4.733603000640869,-12.415543556213379,27.9256591796875
0,1072391,42.7491455078125,33.85188293457031,28.072114944458008,63.634029388427734
0,1072393,-15.566481590270996,-76.56228637695312,-27.458818435668945,-20.800004959106445
0,1072395,-2.457503080368042,-2.5423929691314697,-27.36359977722168,-13.964639663696289
0,1072397,19.203495025634766,61.25636291503906,17.738107681274414,25.085399627685547
0,1072399,-1.595465064048767,28.870019912719727,24.55734634399414,-69.10984802246094
0,1072401,8.184168815612793,24.25361442565918,11.759625434875488,-17.413259506225586
0,1072403,-8.69117259979248,-26.501440048217773,-39.26043701171875,82.22838592529297
0,1072405,18.566661834716797,-52.77528381347656,-10.10600471496582,-16.0830135345459
0,1072407,14.13515567779541,24.2233829498291,54.35369873046875,-46.48664855957031
0,1072409,-23.79598045349121,3.547731399536133,-10.035296440124512,-10.344330787658691
0,1072411,-10.035919189453125,-18.94046974182129,-20.26239585876465,-26.062881469726562
0,1072413,-6.129356861114502,47.62700653076172,5.4235148429870605,26.66925048828125
0,1072415,10.451276779174805,-14.985799789428711,-12.6760835647583,35.551361083984375
0,1072417,-1.2018918991088867,-46.782081604003906,-10.634902000427246,-21.557044982910156
0,1072419,5.842680931091309,49.51566696166992,-2.5996506214141846,-19.416614532470703
0,1072421,23.427244186401367,21.69063377380371,42.557830810546875,6.362167835235596
0,1072423,-1.5310810804367065,-54.01999282836914,8.377605438232422,40.47528839111328
0,1072425,-17.626346588134766,9.673137664794922,-29.718219757080078,5.774261474609375
0,1072427,-43.75145721435547,18.520326614379883,-27.510883331298828,-58.12240982055664
0,1072429,-26.03026580810547,-35.24341583251953,-11.681570053100586,21.403217315673828
0,1072431,57.81386947631836,18.91992950439453,71.86167907714844,85.92626190185547
0,1072433,48.319515228271484,14.481656074523926,26.926259994506836,6.150589466094971
0,1072435,-23.83250617980957,-32.03880310058594,-40.205177307128906,-85.41275787353516
0,1072437,-8.091327667236328,16.69014549255371,-31.602827072143555,-54.994327545166016
0,1072439,-35.33320999145508,47.68313217163086,-2.7547881603240967,33.09933853149414
0,1072441,-15.351737976074219,-11.293699264526367,6.530311107635498,30.31403350830078
0,1072443,48.619171142578125,-59.612125396728516,3.9472196102142334,6.090586185455322
0,1072445,-13.610514640808105,20.1804141998291,25.193967819213867,4.858843803405762
0,1072447,-22.298198699951172,30.43665313720703,-11.717300415039062,-26.282669067382812
0,1072449,8.873114585876465,-34.58186340332031,-33.97060775756836,-18.359840393066406
0,1072451,16.154212951660156,-12.672735214233398,-1.9690278768539429,65.4901351928711
0,1072453,22.777313232421875,15.309788703918457,20.960588455200195,12.901371002197266
0,1072455,-7.2788591384887695,20.120866775512695,31.26839256286621,-73.08965301513672
0,1072457,-37.32483673095703,-0.31199222803115845,19.593854904174805,-13.43603801727295
0,1072459,-19.337974548339844,-2.6331515312194824,-53.28373336791992,22.057151794433594
0,1072461,64.46546936035156,6.83676815032959,-2.4134953022003174,23.892711639404297
0,1072463,24.495357513427734,-24.583253860473633,52.6995735168457,11.844123840332031
0,1072465,-67.65326690673828,-14.83383560180664,-45.34649658203125,14.15190601348877
0,1072467,-9.509058952331543,22.407503128051758,-11.962237358093262,-2.8851311206817627
0,1072469,32.92300796508789,7.504293918609619,26.34786033630371,-59.0490837097168
0,1072471,18.451766967773438,10.429283142089844,-19.07278823852539,21.460010528564453
0,1072473,2.4450719356536865,0.43377885222435,13.266228675842285,50.30757141113281
0,1072475,-31.574798583984375,-33.71515655517578,5.364480018615723,-67.10768127441406
0,1072477,-29.695322036743164,6.617839813232422,-28.733108520507812,-8.3019437789917
0,1072479,32.58698654174805,5.191384315490723,2.2173612117767334,93.88542175292969
0,1072481,33.90787124633789,-23.243701934814453,6.947563171386719,30.275497436523438
0,1072483,-19.488386154174805,49.86295700073242,27.742429733276367,-87.22772216796875
0,1072485,-2.8391740322113037,22.493772506713867,20.012563705444336,-128.1604766845703
0,1072487,7.668300628662109,-45.98030471801758,-56.232276916503906,31.310171127319336
0,1072489,-23.670989990234375,-12.925432205200195,-3.5960562229156494,164.35093688964844
0,1072491,-4.117382526397705,28.06658363342285,51.93102264404297,-10.509724617004395
0,1072493,-0.9442258477210999,25.968536376953125,-6.462055683135986,-41.99967575073242
0,1072495,-20.90141487121582,-51.706668853759766,-23.79593849182129,107.6346435546875
0,1072497,29.00237274169922,-8.425506591796875,-10.66915225982666,-27.701133728027344
0,1072499,26.239511489868164,34.617130279541016,-4.441104412078857,-190.61849975585938
0,1072501,-15.545848846435547,-37.01112365722656,36.4306640625,-60.92434310913086
0,1072503,-22.687265396118164,-15.007857322692871,25.11789894104004,159.52357482910156
0,1072505,-2.9741568565368652,39.784603118896484,-55.026546478271484,51.051998138427734
0,1072507,7.360167503356934,11.00171184539795,-31.242536544799805,-94.6543960571289
0,1072509,-9.133517265319824,-25.664981842041016,50.17424774169922,-32.77187728881836
0,1072511,31.74640464782715,22.07231903076172,24.842859268188477,44.18489456176758
0,1072513,-6.5843706130981445,2.723923444747925,-59.845279693603516,49.486873626708984
0,1072515,-21.5869197845459,-42.41089630126953,-13.277914047241211,-66.78104400634766
0,1072517,9.796749114990234,27.903711318969727,48.153297424316406,0.3159603476524353
0,1072519,8.761496543884277,40.09567642211914,1.6509019136428833,153.16650390625
0,1072521,75.41387939453125,3.608515501022339,0.6907068490982056,67.82479095458984
0,1072525,-22.629526138305664,-30.768054962158203,-12.15024471282959,-143.50367736816406
0,1072525,-77.81015014648438,-48.59599685668945,-1.6324573755264282,-116.06405639648438
0,1072527,26.801759719848633,25.432571411132812,12.46086311340332,88.90399169921875
0,1072529,-6.927346229553223,48.39546585083008,2.6443305015563965,22.492521286010742
0,1072531,-22.009492874145508,-31.982439041137695,-15.461346626281738,-93.89439392089844
0,1072533,37.2097053527832,-39.896324157714844,-35.44314193725586,14.30345630645752
0,1072535,-1.9536689519882202,43.30809020996094,30.307575225830078,72.4578857421875
0,1072537,-21.970125198364258,15.954235076904297,25.847209930419922,-14.9149751663208
0,1072539,33.694725036621094,-38.298988342285156,1.5600101947784424,-7.927285671234131
0,1072541,-21.76614761352539,14.183806419372559,9.671825408935547,30.1319580078125
0,1072543,-55.97807693481445,5.745728492736816,-39.86379623413086,-43.755435943603516
0,1072545,48.69837188720703,-21.762310028076172,-25.96299934387207,-36.05233383178711
0,1072547,56.36495590209961,18.680957794189453,53.17573928833008,35.54454040527344
0,1072549,-60.0561408996582,10.677666664123535,4.911848068237305,38.868343353271484
0,1072551,-14.003239631652832,16.258760452270508,-44.91403579711914,25.235065460205078
0,1072553,74.6890869140625,-1.574990153312683,17.896926879882812,10.59487247467041
0,1072555,-17.878549575805664,-20.80400848388672,8.261809349060059,-66.15230560302734
0,1072557,-61.40633010864258,13.11125659942627,-3.0639379024505615,-81.64982604980469
0,1072559,-1.0570515394210815,-35.84883117675781,-2.2564756870269775,5.493615627288818
0,1072561,36.237422943115234,-22.371173858642578,-30.169021606445312,59.98125457763672
0,1072563,7.535606384277344,52.534854888916016,11.614335060119629,81.2408447265625
0,1072565,-1.3114315271377563,42.574432373046875,60.953182220458984,87.2402114868164
0,1072567,-3.0964081287384033,-30.84751319885254,-0.0032020900398492813,-68.66243743896484
0,1072569,-21.23055076599121,-70.30640411376953,-49.60540008544922,-170.69044494628906
0,1072571,0.9249110221862793,-2.984992265701294,8.98542308807373,-0.7959707379341125
0,1072573,11.095839500427246,52.07588577270508,-12.287101745605469,45.183311462402344
0,1072575,11.636650085449219,35.18143844604492,-8.663564682006836,54.41535186767578
0,1072577,-3.066401958465576,-13.94173812866211,48.39768981933594,99.52567291259766
0,1072579,-13.60870361328125,-52.44647979736328,-24.830690383911133,-59.763851165771484
0,1072581,-5.853775978088379,-2.3349196910858154,-8.198721885681152,-104.85553741455078
0,1072583,17.72662353515625,33.45536422729492,27.131412506103516,-6.127448081970215
0,1072585,18.255781173706055,-6.101614952087402,-6.421692371368408,23.365964889526367
0,1072587,-47.922088623046875,-16.931718826293945,-0.37761789560317993,89.89283752441406
0,1072589,-28.438234329223633,-4.970919609069824,-30.85235023498535,3.685166597366333
0,1072591,42.821678161621094,35.016231536865234,12.401687622070312,-76.50000762939453
0,1072593,44.47429656982422,9.356344223022461,11.221162796020508,26.157554626464844
0,1072595,8.600836753845215,-43.56101989746094,-30.040447235107422,38.15319061279297
0,1072597,-44.792396545410156,12.949783325195312,19.61188316345215,15.83617877960205
0,1072599,-13.2867431640625,32.11614227294922,13.093236923217773,-72.98362731933594
0,1072601,13.502212524414062,3.244906425476074,32.02302169799805,-55.2385368347168
0,1072603,-28.644439697265625,-17.403528213500977,-12.626460075378418,52.45256423950195
0,1072605,-6.681183338165283,-26.86515998840332,-86.99024200439453,19.444913864135742
0,1072607,39.15138626098633,13.895026206970215,23.40198516845703,31.257427215576172
0,1072609,10.263126373291016,25.414215087890625,50.37088394165039,30.587932586669922
0,1072611,-20.209550857543945,-20.5107479095459,-16.59707260131836,-50.78351974487305
0,1072613,0.643081545829773,-27.90761947631836,20.613126754760742,-68.09741973876953
0,1072615,-10.957860946655273,7.054881572723389,13.835235595703125,50.87449264526367
0,1072617,30.0280704498291,30.147502899169922,-25.878713607788086,102.81310272216797
0,1072619,46.30697250366211,17.958065032958984,-0.21562935411930084,-76.70590209960938
0,1072621,-46.44291305541992,-24.533544540405273,-25.99109649658203,-118.53327178955078
0,1072623,-29.472396850585938,-12.143074035644531,-8.047807693481445,71.29322814941406
0,1072625,22.959056854248047,18.096961975097656,27.031457901000977,54.56226348876953
0,1072627,20.219646453857422,15.016565322875977,-25.13268280029297,-40.010982513427734
0,1072629,-17.04277229309082,1.7161706686019897,15.141053199768066,16.430971145629883
0,1072631,-12.157732009887695,-25.22905731201172,24.69053077697754,-35.14256286621094
0,1072633,17.871315002441406,0.7839515209197998,-9.001270294189453,-111.91657257080078
0,1072635,-31.933807373046875,41.351898193359375,51.65826416015625,77.137451171875
0,1072637,-22.8090763092041,-21.252086639404297,-36.945194244384766,138.0381317138672
0,1072640,18.746015548706055,-53.26260757446289,-77.03105163574219,80.92100524902344
0,1072641,19.06841278076172,-5.138453960418701,48.19861602783203,-0.42753827571868896
0,1072642,20.674543380737305,-10.543841361999512,7.959758281707764,-170.61898803710938
0,1072645,7.540948390960693,33.227516174316406,-11.070683479309082,-5.181341648101807
0,1072646,-0.9016457200050354,82.34368896484375,54.7784423828125,62.19120788574219
0,1072649,-12.148207664489746,-25.989593505859375,-2.253136157989502,-40.001060485839844
0,1072650,-10.439846992492676,-50.912471771240234,-65.14288330078125,-4.7945170402526855
0,1072653,7.297829627990723,15.508317947387695,-15.425416946411133,-16.19228744506836
0,1072654,-10.604255676269531,-41.18783950805664,24.446516036987305,-45.396297454833984
0,1072657,-17.436073303222656,-5.793700695037842,0.3027487099170685,6.076996326446533
0,1072658,10.946432113647461,58.503318786621094,8.770774841308594,55.52912139892578
0,1072661,19.27293586730957,5.526546955108643,-18.53783416748047,-4.76175594329834
0,1072662,-4.021718502044678,-31.149381637573242,-10.757174491882324,58.580039978027344
0,1072665,-26.132003784179688,3.7457778453826904,78.50973510742188,9.826342582702637
0,1072666,-9.709284782409668,29.92607307434082,12.051643371582031,-124.5408706665039
0,1072669,32.01885223388672,-24.300121307373047,-60.32417297363281,44.2362174987793
0,1072670,7.712736129760742,-17.982961654663086,-2.1018152236938477,82.51493072509766
0,1072673,-2.511326313018799,48.239009857177734,58.588035583496094,27.035810470581055
0,1072676,15.310866355895996,24.757184982299805,2.3714582920074463,6.21623420715332
0,1072677,-34.244293212890625,-67.8121109008789,-63.43566131591797,-85.203369140625
0,1072678,-10.342058181762695,-44.262516021728516,-3.6837713718414307,-51.74946594238281
0,1072681,33.78107833862305,64.65039825439453,12.860806465148926,10.628008842468262
0,1072682,-13.851311683654785,25.913137435913086,-25.21161651611328,-0.6858657002449036
0,1072685,-0.9625634551048279,-30.81625747680664,0.23574203252792358,41.063053131103516
0,1072686,-3.270749092102051,-24.621597290039062,33.45848846435547,47.20048141479492
0,1072689,-34.03672790527344,-16.18962860107422,-20.085121154785156,-55.47520065307617
0,1072690,20.857379913330078,43.963260650634766,-46.410308837890625,-26.00897216796875
0,1072693,32.89796447753906,12.503094673156738,17.036270141601562,29.935657501220703
0,1072694,-15.670732498168945,-3.3580446243286133,81.72534942626953,8.821520805358887
0,1072697,-8.90390396118164,-9.326988220214844,7.0102949142456055,-15.52542495727539
0,1072698,8.529873847961426,-41.777191162109375,-75.4963607788086,-49.887535095214844
0,1072701,-1.503504753112793,17.576993942260742,25.623905181884766,33.43765640258789
0,1072702,14.620797157287598,51.0208625793457,37.63786315917969,63.56180953979492
0,1072705,-9.979450225830078,5.889038562774658,-31.96042251586914,-52.81023025512695
0,1072706,-8.18057918548584,-54.9232063293457,6.390274524688721,-28.777935028076172
0,1072709,27.40020751953125,4.1408233642578125,5.580400466918945,78.02340698242188
0,1072710,-14.227533340454102,19.302276611328125,-15.061725616455078,47.558040618896484
0,1072713,-26.994525909423828,-28.311908721923828,5.525525093078613,-88.54761505126953
0,1072714,-4.582380294799805,13.0108642578125,-5.7735209465026855,-85.74705505371094
0,1072717,8.89481258392334,-2.984842538833618,-40.0493278503418,58.104434967041016
0,1072718,17.57843017578125,-32.059532165527344,-6.915248394012451,39.775333404541016
0,1072721,-2.1640751361846924,41.89482879638672,69.40206909179688,9.771157264709473
0,1072722,22.789365768432617,43.30681610107422,32.02192687988281,7.371572017669678
0,1072725,21.9189395904541,-29.623281478881836,-27.01793098449707,-44.26139450073242
0,1072726,-25.746248245239258,-17.394153594970703,-20.675094604492188,24.595027923583984
0,1072729,-16.58072280883789,0.13884945213794708,-16.97205924987793,43.77083969116211
0,1072730,-5.584436416625977,-6.737144947052002,-10.158924102783203,-8.655898094177246
0,1072733,5.073238372802734,1.4457539319992065,5.410195350646973,-64.80445861816406
0,1072734,12.914759635925293,11.791528701782227,28.268726348876953,-45.08003234863281
0,1072737,-17.77461051940918,8.396743774414062,9.373282432556152,73.25335693359375
0,1072738,-8.919220924377441,17.524742126464844,-10.542749404907227,66.79682159423828
0,1072741,1.8163048028945923,16.708263397216797,-6.937112331390381,-54.91067886352539
0,1072742,-8.80390453338623,-37.989158630371094,-6.625497341156006,-51.70953369140625
0,1072745,3.7717108726501465,-59.19001388549805,-24.717660903930664,-21.359804153442383
0,1072746,10.734626770019531,28.319374084472656,-1.708939790725708,-49.29988098144531
0,1072749,25.69514274597168,70.15862274169922,52.25642776489258,81.55260467529297
0,1072750,-34.79914093017578,-27.498247146606445,-17.01424217224121,95.27650451660156
0,1072753,-13.99747085571289,-41.161685943603516,-18.19512176513672,-10.164703369140625
0,1072754,66.24932861328125,26.4217472076416,15.282787322998047,11.857152938842773
0,1072757,-8.131312370300293,-0.49172091484069824,-26.3031063079834,-55.46311950683594
0,1072758,-51.92919158935547,-21.68832015991211,16.68269920349121,-53.53684616088867
0,1072761,6.438643455505371,36.29483413696289,41.63478469848633,58.21488952636719
0,1072762,29.03520965576172,24.424211502075195,-5.643073081970215,-9.873883247375488
0,1072765,-24.88092041015625,-43.47319793701172,-37.29153060913086,-56.94663619995117
0,1072766,-3.761298418045044,-20.799123764038086,5.926865100860596,14.858216285705566
0,1072769,37.06373977661133,2.6287171840667725,2.0839056968688965,18.953048706054688
0,1072770,-4.750216960906982,-8.890058517456055,-42.80790710449219,16.092269897460938
0,1072773,9.13075065612793,3.1663129329681396,27.205169677734375,24.2327880859375
0,1072774,-20.06240463256836,33.71458053588867,36.661041259765625,6.607988357543945
0,1072777,-23.875934600830078,36.99812316894531,-17.94198989868164,-33.391658782958984
0,1072778,32.760623931884766,-35.97450256347656,10.861806869506836,-65.747314453125
0,1072781,-38.01966857910156,-45.70936584472656,-1.8573552370071411,36.512386322021484
0,1072782,1.8710435628890991,13.534852981567383,-28.46758270263672,47.004241943359375
0,1072785,43.23113250732422,35.416168212890625,-10.502510070800781,-38.48804473876953
0,1072786,-27.451313018798828,11.88442611694336,-20.702484130859375,9.047412872314453
0,1072789,-41.69265365600586,-32.51106643676758,12.218416213989258,58.79737854003906
0,1072790,12.000250816345215,-15.065152168273926,67.46575927734375,-33.50910949707031
0,1072793,44.66896057128906,43.837493896484375,72.5296401977539,-50.427337646484375
0,1072794,-6.1210408210754395,18.832836151123047,3.8329708576202393,106.16853332519531
0,1072797,38.47354507446289,0.7611134648323059,-98.95742797851562,40.82768630981445
0,1072798,29.68462371826172,15.783408164978027,-70.3171615600586,-70.40293884277344
0,1072801,-72.12339782714844,-57.776973724365234,-7.384545803070068,-31.6674747467041
0,1072802,-78.83562469482422,-62.230857849121094,-1.2836387157440186,-60.389747619628906
0,1072805,13.782559394836426,3.2372496128082275,50.43280792236328,-148.9014892578125
0,1072807,52.164329528808594,15.191450119018555,39.528079986572266,58.58585739135742
0,1072809,25.911008834838867,52.64166259765625,-16.418594360351562,277.6455383300781
0,1072811,41.19546127319336,47.31827163696289,-1.6931030750274658,-95.19863891601562
0,1072813,-55.99871063232422,-79.01385498046875,-40.7070198059082,-132.1614990234375
0,1072815,-46.903682708740234,-60.275962829589844,-35.997920989990234,126.91895294189453
0,1072817,46.4357795715332,95.70730590820312,83.74121856689453,-30.55997657775879
0,1072819,25.994688034057617,68.41543579101562,77.63690948486328,-9.185418128967285
0,1072821,19.253747940063477,-68.95896911621094,-56.41579055786133,16.8558292388916
0,1072823,-50.44184875488281,-14.448697090148926,-58.17237091064453,-26.97368049621582
0,1072825,-10.031444549560547,72.17608642578125,60.051727294921875,12.228381156921387
0,1072827,38.52046585083008,-45.2885627746582,18.06875991821289,12.899397850036621
0,1072829,-31.343212127685547,-41.79399490356445,-46.99654006958008,93.70274353027344
0,1072831,13.992636680603027,6.9668378829956055,-10.73736572265625,7.068199634552002
0,1072833,-10.315974235534668,-30.85996437072754,-20.724328994750977,-122.06349182128906
0,1072835,-45.26817321777344,19.19499969482422,-12.640305519104004,-100.5790786743164
0,1072837,19.382129669189453,-2.1852781772613525,10.181843757629395,-2.844115972518921
0,1072839,35.22456741333008,-1.0566613674163818,6.761729717254639,53.82011032104492
0,1072840,38.499752044677734,55.1212043762207,73.9579086303711,49.76076126098633
0,1072843,-12.081379890441895,4.468631744384766,23.257099151611328,96.4515609741211
0,1072845,-43.12112045288086,-27.7845458984375,-102.05558013916016,6.365288734436035
0,1072847,-9.488996505737305,-4.476761817932129,-7.444766521453857,-107.19371032714844
0,1072849,45.13040542602539,30.943798065185547,52.555301666259766,-29.411256790161133
0,1072851,41.910064697265625,11.661430358886719,-3.4472031593322754,0.9297102689743042
0,1072853,-64.43891143798828,-49.68547821044922,-8.12419605255127,-3.5958735942840576
0,1072855,-26.575071334838867,-24.25969886779785,-19.670377731323242,46.96540451049805
0,1072857,47.33654022216797,15.374964714050293,-1.3213098049163818,10.891679763793945
0,1072859,-39.15121841430664,-3.076094627380371,4.098753929138184,-7.129239082336426
0,1072861,-0.7977280616760254,12.381221771240234,-7.464181423187256,21.82918357849121
0,1072863,43.78404998779297,19.74493980407715,23.527626037597656,19.95523452758789
0,1072865,-26.625072479248047,-1.7627108097076416,1.8030662536621094,21.458316802978516
0,1072867,-15.105908393859863,3.4508066177368164,7.415165424346924,-0.3106210231781006
0,1072869,20.617334365844727,21.753238677978516,42.80539321899414,-70.25514221191406
0,1072871,22.402324676513672,-14.685148239135742,-9.713387489318848,-15.624409675598145
0,1072873,-39.00214767456055,-51.20322799682617,-65.6028823852539,10.85002613067627
0,1072875,-28.48258399963379,-0.14676439762115479,-30.25465965270996,-110.61449432373047
0,1072877,44.849918365478516,3.3386456966400146,9.411805152893066,25.863515853881836
0,1072879,22.619842529296875,-8.668952941894531,0.804604709148407,121.11918640136719
0,1072881,-20.781965255737305,58.66497039794922,53.08366775512695,14.301619529724121
0,1072883,3.6968140602111816,60.511966705322266,50.905250549316406,-12.286707878112793
0,1072885,10.078492164611816,-96.41352081298828,-64.16093444824219,-37.190242767333984
0,1072887,-28.34107208251953,-73.52587127685547,-43.35401153564453,-12.310195922851562
0,1072889,-7.307415962219238,88.9968032836914,26.346004486083984,-11.611818313598633
0,1072891,24.24454116821289,32.61750411987305,0.3880479633808136,-0.032473091036081314
0,1072893,6.609316825866699,1.5914604663848877,14.004368782043457,60.72768783569336
0,1072895,-45.95442199707031,-14.354378700256348,26.31790542602539,25.41413688659668
0,1072897,-14.363590240478516,-64.56975555419922,5.51932954788208,-69.3694839477539
0,1072899,73.82660675048828,15.702371597290039,-5.816747665405273,-34.29493713378906
0,1072901,-2.0784387588500977,36.7361946105957,-32.35292434692383,87.35923767089844
0,1072903,-42.063724517822266,-20.07289695739746,-7.605045318603516,33.028343200683594
0,1072905,15.844133377075195,11.608831405639648,4.953469276428223,-81.3301773071289
0,1072907,16.65955352783203,13.655961990356445,-28.952253341674805,-36.18316650390625
0,1072909,23.095088958740234,-14.9642333984375,9.144783973693848,28.02122688293457
0,1072911,-13.015833854675293,20.98255729675293,56.03423309326172,31.958473205566406
0,1072913,-27.11968994140625,-35.52080154418945,59.918601989746094,-9.399906158447266
0,1072915,-40.37196350097656,-27.242244720458984,5.703226566314697,-45.39231872558594
0,1072917,-4.737316608428955,43.6860466003418,-147.24449157714844,35.38888931274414
0,1072919,47.18587112426758,6.237697124481201,-112.70365142822266,9.255398750305176
0,1072921,6.46469259262085,-8.864180564880371,158.59373474121094,-21.330183029174805
0,1072923,-0.11025619506835938,-27.922042846679688,111.50004577636719,3.0207316875457764
0,1072925,32.12919998168945,-5.143649101257324,-111.6913833618164,15.56831169128418
0,1072927,21.912750244140625,11.59862232208252,-41.43627166748047,27.36824607849121
0,1072929,-86.28999328613281,-7.4638261795043945,21.190773010253906,-27.424036026000977
0,1072931,-37.478614807128906,36.159053802490234,25.39910316467285,47.18856430053711
0,1072933,69.62725830078125,28.384740829467773,24.721830368041992,67.88788604736328
0,1072935,23.358749389648438,0.3707880675792694,-10.240891456604004,-78.69036102294922
0,1072937,-17.59564781188965,-21.065406799316406,2.4299230575561523,-118.40357208251953
0,1072939,-5.253697872161865,14.628483772277832,34.80953598022461,13.129229545593262
0,1072941,24.54960060119629,36.167694091796875,41.29627990722656,111.02964782714844
0,1072943,-46.95541763305664,-57.714088439941406,-85.97229766845703,35.50703430175781
0,1072945,-56.702354431152344,-59.18117141723633,-101.85517883300781,-168.63462829589844
0,1072947,58.364479064941406,18.696378707885742,63.64558792114258,-132.28561401367188
0,1072949,9.815330505371094,22.963714599609375,81.32687377929688,207.73524475097656
0,1072951,-14.440771102905273,14.644445419311523,-18.846237182617188,175.4123077392578
0,1072953,43.75369644165039,11.537067413330078,-59.423587799072266,-120.01460266113281
0,1072955,-1.2431236505508423,13.937315940856934,9.100289344787598,-118.15889739990234
0,1072957,-1.1947624683380127,-15.099943161010742,35.2153434753418,13.859416007995605
0,1072959,-6.096502304077148,-57.80950927734375,-14.457267761230469,93.30406951904297
0,1072961,-17.375858306884766,20.846242904663086,27.436134338378906,74.97757720947266
0,1072963,-2.614126443862915,9.651052474975586,-9.394368171691895,-16.703327178955078
0,1072965,-21.845949172973633,-39.403621673583984,-23.15366554260254,-52.52146530151367
0,1072967,-6.499372482299805,57.22901153564453,17.865245819091797,-70.04627227783203
0,1072969,26.798046112060547,11.972756385803223,-43.184383392333984,-42.8560791015625
0,1072971,38.518531799316406,-58.68093490600586,14.789408683776855,35.699588775634766
0,1072973,7.9386887550354,31.448579788208008,42.85257339477539,83.15568542480469
0,1072975,-69.3348617553711,-1.5619332790374756,-84.94072723388672,19.24669075012207
0,1072977,-6.922632694244385,13.472549438476562,9.963836669921875,-128.26126098632812
0,1072979,39.762569427490234,45.00912094116211,95.56578826904297,-78.43734741210938
0,1072981,-15.169486045837402,-41.97343826293945,-29.0610294342041,108.7876205444336
0,1072983,33.730201721191406,-1.5516517162322998,-8.093765258789062,76.87432861328125
0,1072985,-23.271221160888672,12.947381973266602,16.867572784423828,-25.13669776916504
0,1072987,-51.347110748291016,-28.59637451171875,-42.91128921508789,10.090606689453125
0,1072989,45.27485275268555,1.576657772064209,2.7089920043945312,-4.202425003051758
0,1072991,21.372629165649414,47.052001953125,61.461055755615234,-5.552597999572754
0,1072993,-8.56529712677002,5.1171183586120605,-25.28087615966797,61.53600311279297
0,1072995,20.62289047241211,-44.806236267089844,-38.790687561035156,58.56087875366211
0,1072997,-9.847912788391113,14.835259437561035,26.009897232055664,-211.78074645996094
0,1072999,-44.38136672973633,11.389558792114258,-20.017711639404297,-245.59828186035156
0,1073001,8.250824928283691,-34.51152038574219,-9.816953659057617,258.6601867675781
0,1073003,7.095250606536865,-24.945337295532227,-4.805556297302246,206.690673828125
0,1073005,-18.850191116333008,1.1385691165924072,22.621139526367188,-62.168025970458984
0,1073007,38.0269775390625,31.587604522705078,61.11686706542969,31.009281158447266
0,1073010,2.227036237716675,-20.742578506469727,-65.34729766845703,-151.8813934326172
0,1073011,-30.431751251220703,3.812378406524658,-25.43424415588379,-130.82200622558594
0,1073012,26.03910255432129,61.74649429321289,73.93867492675781,96.1802749633789
0,1073015,-12.692899703979492,-82.35806274414062,-59.42916488647461,48.4083366394043
0,1073016,-19.213502883911133,-32.30457305908203,-17.284284591674805,98.28094482421875
0,1073019,65.80936431884766,128.6284942626953,76.626708984375,80.21983337402344
0,1073020,14.998366355895996,-15.030091285705566,-40.581241607666016,-119.07823944091797
0,1073025,-27.0925235748291,-52.900413513183594,24.826435089111328,-75.24566650390625
0,1073025,27.668577194213867,66.11508178710938,91.08650207519531,43.49299240112305
0,1073027,-21.274431228637695,35.31751251220703,-48.24940490722656,-2.3216185569763184
0,1073029,-75.75945281982422,-79.7668685913086,-129.3782501220703,-13.473892211914062
0,1073031,-6.3376054763793945,-65.95552062988281,-42.0192756652832,37.50742721557617
0,1073033,63.32423400878906,50.440757751464844,85.80098724365234,35.846248626708984
0,1073035,16.00312042236328,16.460174560546875,19.857797622680664,-52.015140533447266
0,1073037,-60.798030853271484,-53.36245346069336,-66.05657958984375,-75.31597900390625
0,1073039,-9.146646499633789,2.422191619873047,28.51146697998047,45.383331298828125
0,1073041,64.95560455322266,43.922447204589844,110.42729187011719,63.914154052734375
0,1073043,-30.600339889526367,-18.51561737060547,-30.791275024414062,-8.41103458404541
0,1073045,-51.21540451049805,-35.28615188598633,-125.9258804321289,8.11403751373291
0,1073047,28.785736083984375,17.68991470336914,13.628767013549805,-64.45342254638672
0,1073049,7.11892032623291,28.247760772705078,87.71785736083984,-86.05193328857422
0,1073051,-18.7429256439209,15.25076675415039,36.4058723449707,54.18925857543945
0,1073053,68.2669448852539,27.766460418701172,53.99738311767578,63.83750915527344
0,1073055,65.07186126708984,29.01255989074707,6.225200176239014,22.247329711914062
0,1073057,-51.90280532836914,-52.251163482666016,-140.27960205078125,25.472719192504883
0,1073059,1.403125286102295,-47.015357971191406,-47.4051399230957,6.307169437408447
0,1073061,-23.78980255126953,51.03318405151367,76.55489349365234,-33.698028564453125
0,1073063,-83.50457763671875,9.947802543640137,-50.62806701660156,-60.161991119384766
0,1073065,31.50415802001953,-7.290587902069092,-13.733155250549316,-7.171949863433838
0,1073067,69.99945831298828,37.42886734008789,135.64683532714844,6.104015827178955
0,1073069,-14.733455657958984,-21.878137588500977,-31.183406829833984,27.586313247680664
0,1073071,-64.0547103881836,-71.6885986328125,-102.07157897949219,25.797739028930664
0,1073073,10.311949729919434,-37.57276153564453,38.92776870727539,-51.2846794128418
0,1073075,21.68595314025879,-9.23360824584961,23.821504592895508,-4.6518988609313965
0,1073077,-56.5871696472168,-10.556519508361816,-51.683326721191406,1.1417149305343628
0,1073079,-12.185407638549805,55.28654098510742,0.08552902936935425,2.534841537475586
0,1073081,57.55449676513672,69.42910766601562,72.130615234375,30.538896560668945
0,1073083,47.78123092651367,15.55318546295166,-1.7804495096206665,15.103509902954102
0,1073085,-10.712230682373047,2.2963149547576904,-45.639408111572266,32.04494857788086
0,1073087,-0.026998620480298996,-26.396270751953125,40.03756332397461,8.170238494873047
0,1073089,57.973472595214844,-2.350987434387207,57.49061584472656,-21.16103172302246
0,1073091,-15.759587287902832,30.708824157714844,-92.51842498779297,-76.83525085449219
0,1073093,-72.82488250732422,-53.65193557739258,-81.64183044433594,-29.327848434448242
0,1073095,-6.966801643371582,-27.783369064331055,151.33831787109375,63.413902282714844
0,1073097,15.902290344238281,64.42906951904297,56.01474380493164,56.812259674072266
0,1073099,3.110954999923706,-34.77388381958008,-138.3343963623047,41.98862838745117
0,1073101,-0.2414809763431549,-64.48070526123047,-47.885921478271484,-75.6250991821289
0,1073103,-8.444023132324219,25.4035701751709,45.80663299560547,-63.33440399169922
0,1073105,39.33427429199219,33.33786392211914,97.7524642944336,31.09402847290039
0,1073107,-13.893522262573242,-23.171314239501953,-41.19047164916992,-33.49250411987305
0,1073109,-57.86996078491211,4.895301342010498,-110.36901092529297,-43.989097595214844
0,1073111,4.771583080291748,8.925039291381836,35.35792541503906,59.240882873535156
0,1073113,24.311416625976562,14.539302825927734,77.9765853881836,156.23631286621094
0,1073115,23.113597869873047,98.9002685546875,54.870880126953125,38.84822082519531
0,1073117,-11.330626487731934,-49.80843734741211,-86.8740234375,-293.1632080078125
0,1073119,23.187381744384766,-93.6009292602539,-47.00288391113281,-168.28005981445312
0,1073121,34.08164596557617,42.28643035888672,85.73109436035156,370.2200927734375
0,1073123,-86.671875,-41.92967987060547,-67.14812469482422,199.13755798339844
0,1073125,-15.597249031066895,-19.13650131225586,-3.366832733154297,-268.85888671875
0,1073127,100.45244598388672,89.2850570678711,114.77751159667969,-78.33882141113281
0,1073129,-32.5717887878418,-16.315523147583008,-78.14163970947266,147.01004028320312
0,1073131,-26.540348052978516,-29.336938858032227,-37.64653778076172,-37.48906326293945
0,1073133,25.489055633544922,80.32051086425781,65.92696380615234,-15.51724910736084
0,1073135,-42.806541442871094,-14.366777420043945,-52.98696517944336,112.31826782226562
0,1073137,9.294290542602539,-81.8318099975586,-19.253658294677734,-133.93572998046875
0,1073139,17.104354858398438,26.608400344848633,63.98438262939453,-101.1482162475586
0,1073141,-42.251285552978516,7.4136247634887695,-6.932081699371338,82.88103485107422
0,1073143,19.918434143066406,-33.76395797729492,-29.10083770751953,-31.661230087280273
0,1073145,55.74015426635742,11.65953254699707,-0.28889966011047363,13.866384506225586
0,1073147,-27.005247116088867,-10.862038612365723,19.66568946838379,18.30329132080078
0,1073149,-17.91765022277832,22.093656539916992,32.14909362792969,-7.535298824310303
0,1073151,25.69295883178711,57.9648323059082,18.571083068847656,67.77161407470703
0,1073153,-18.238651275634766,-26.19967269897461,-30.014280319213867,16.545761108398438
0,1073155,-27.97930145263672,-50.09846496582031,-96.77600860595703,-19.07924461364746
0,1073157,40.61073303222656,41.402103424072266,35.78163528442383,5.988199234008789
0,1073159,18.298173904418945,33.430015563964844,51.35074996948242,-44.668724060058594
0,1073161,-43.6788215637207,-76.92007446289062,-69.59002685546875,-42.39522171020508
0,1073163,25.713455200195312,10.707741737365723,85.23020935058594,58.38334274291992
0,1073165,46.927249908447266,110.55714416503906,108.02523040771484,48.40522003173828
0,1073167,-48.7756462097168,-38.358089447021484,-114.24414825439453,-38.53855514526367
0,1073169,-93.00875854492188,-105.89221954345703,-146.69444274902344,-79.34915161132812
0,1073171,-20.73399543762207,19.480628967285156,52.707252502441406,-20.8662109375
0,1073173,104.66490936279297,55.92306137084961,125.83248901367188,49.689205169677734
0,1073175,56.30122375488281,16.588396072387695,-27.689546585083008,102.51824951171875
0,1073177,-47.8870735168457,-33.624183654785156,-27.526884078979492,64.8840103149414
0,1073179,0.7197872400283813,-23.934972763061523,23.397409439086914,-87.84978485107422
0,1073181,-46.61018753051758,10.058182716369629,-40.856685638427734,-80.10527801513672
0,1073183,-15.435464859008789,-6.916059970855713,10.500038146972656,11.738724708557129
0,1073186,69.49729919433594,11.354501724243164,5.204004287719727,4.922311305999756
0,1073187,-10.202716827392578,3.3771464824676514,-35.77606201171875,28.933942794799805
0,1073188,-10.056650161743164,-26.3438777923584,25.140493392944336,1.3822749853134155
0,1073191,17.829301834106445,-1.3286749124526978,19.174388885498047,-64.2948989868164
0,1073192,-25.428146362304688,14.316193580627441,-44.32393264770508,-1.5613957643508911
0,1073195,-18.648996353149414,15.235196113586426,23.60858726501465,16.989572525024414
0,1073196,27.600204467773438,28.004913330078125,73.69306182861328,-3.6653785705566406
0,1073199,7.154641628265381,-34.002681732177734,-71.53843688964844,-0.3343793451786041
0,1073200,16.84612274169922,-20.587875366210938,-22.090347290039062,-24.246110916137695
0,1073203,16.9786434173584,76.8638687133789,153.56253051757812,88.30989074707031
0,1073204,-65.0047607421875,-3.5618598461151123,24.218219757080078,127.6487045288086
0,1073207,-11.084146499633789,-93.36437225341797,-209.9429168701172,-110.02281951904297
0,1073208,74.6889877319336,26.912948608398438,-71.61357879638672,-106.00050354003906
0,1073211,-1.6217868328094482,63.30906295776367,150.63307189941406,55.64913558959961
0,1073212,-36.34778594970703,-43.428443908691406,-16.035633087158203,-8.176895141601562
0,1073215,-21.356319427490234,-44.498592376708984,-72.80094146728516,26.83097267150879
0,1073216,3.2525134086608887,33.86018753051758,24.49962043762207,63.6822509765625
0,1073220,40.35947799682617,38.79819869995117,29.78054428100586,-80.83320617675781
0,1073220,-20.336307525634766,-42.638938903808594,26.1162052154541,-94.78298950195312
0,1073223,-35.680572509765625,21.76728630065918,-1.5827478170394897,58.736671447753906
0,1073224,29.11932373046875,54.93868637084961,45.111690521240234,61.58391189575195
0,1073227,46.61381149291992,-64.47637939453125,-43.93064880371094,-25.653030395507812
0,1073228,-8.330504417419434,-20.726102828979492,-65.19415283203125,28.586681365966797
0,1073231,-48.54766845703125,25.157384872436523,103.5728530883789,37.93394088745117
0,1073232,-25.065340042114258,-37.23728561401367,16.521610260009766,-71.13916015625
0,1073235,23.10380744934082,0.1931571215391159,-81.41824340820312,-37.87246322631836
0,1073236,-6.900871753692627,81.23517608642578,35.390560150146484,51.0905647277832
0,1073239,-19.836755752563477,1.7570760250091553,8.731772422790527,-4.827275276184082
0,1073240,53.79705047607422,-81.2519760131836,-62.96633529663086,9.220123291015625
0,1073243,29.983686447143555,6.251430511474609,33.894371032714844,4.127960205078125
0,1073244,-55.89213943481445,26.35960578918457,-14.666592597961426,-85.28680419921875
0,1073247,-25.954177856445312,-32.12860107421875,-56.03126525878906,20.638769149780273
0,1073248,58.71046447753906,16.115079879760742,79.1632308959961,116.43367767333984
0,1073251,38.01108169555664,55.438148498535156,107.86309051513672,1.887043833732605
0,1073252,13.256866455078125,38.52742004394531,29.322647094726562,-52.5324821472168
0,1073255,-51.13214874267578,-39.02610778808594,-97.11509704589844,-45.096351623535156
0,1073256,-73.35247039794922,-96.98912048339844,-97.90348815917969,-36.40702438354492
0,1073259,41.285823822021484,28.749868392944336,39.39522171020508,33.87349319458008
0,1073260,32.85121154785156,64.07098388671875,4.870910167694092,82.9693603515625
0,1073263,-37.44939041137695,-26.793628692626953,-43.98866653442383,124.72756958007812
0,1073264,-48.41093826293945,-29.765945434570312,81.15691375732422,-43.767677307128906
0,1073267,39.46908950805664,8.538150787353516,18.239486694335938,-210.24368286132812
0,1073268,115.8931655883789,19.142553329467773,-67.22584533691406,-3.6311497688293457
0,1073271,-28.326141357421875,6.310112476348877,-6.6497955322265625,79.23684692382812
0,1073272,-108.71015930175781,-25.93505096435547,-12.765233993530273,-1.203983187675476
0,1073275,1.8432838916778564,-9.73645305633545,34.94568634033203,-4.911968231201172
0,1073276,54.109710693359375,61.0900764465332,25.017786026000977,-46.50980758666992
0,1073279,-2.2754013538360596,-21.002044677734375,-2.4732491970062256,-41.21504211425781
0,1073280,-28.407608032226562,-62.698184967041016,-26.137357711791992,-16.847820281982422
0,1073283,9.502840995788574,54.913352966308594,-43.44215393066406,146.34664916992188
0,1073284,4.898896217346191,55.54045867919922,64.30828857421875,140.7613525390625
0,1073287,-11.848979949951172,-84.67665100097656,3.336723804473877,-188.56858825683594
0,1073288,-18.096792221069336,-66.39629364013672,-62.83195877075195,-91.5219955444336
0,1073291,28.861021041870117,108.87495422363281,77.78959655761719,183.33251953125
0,1073292,39.378997802734375,41.03672409057617,9.959322929382324,68.92315673828125
0,1073295,-26.93410301208496,-49.38809585571289,-62.24797439575195,-130.53773498535156
0,1073296,4.731420516967773,-19.819339752197266,49.45722198486328,-96.1551284790039
0,1073299,15.457213401794434,-10.958979606628418,13.645989418029785,69.74638366699219
0,1073300,-18.18877410888672,15.433127403259277,-45.49153137207031,60.1615104675293
0,1073303,-1.50545072555542,-2.0793802738189697,-21.187931060791016,-53.38947296142578
0,1073304,15.066238403320312,-1.1528143882751465,29.811038970947266,-34.66746520996094
0,1073307,10.741822242736816,-4.36483097076416,-6.6403045654296875,6.718597412109375
0,1073308,0.30713170766830444,-20.03597640991211,-17.660310745239258,-6.877345085144043
0,1073311,-12.338671684265137,54.36796188354492,43.42229461669922,28.029922485351562
0,1073312,-40.549991607666016,45.539981842041016,-20.86688804626465,64.52571105957031
0,1073315,-17.48285484313965,-92.7538070678711,-76.39492797851562,5.989739418029785
0,1073316,47.786251068115234,-18.82770538330078,41.19130325317383,-38.82456970214844
0,1073319,32.9058837890625,63.886756896972656,110.66262817382812,-45.52404022216797
0,1073320,-19.59947395324707,-22.364843368530273,-25.949417114257812,-21.37135124206543
0,1073323,-10.799216270446777,2.095828056335449,-48.44127655029297,65.66389465332031
0,1073324,-3.4403505325317383,13.34225845336914,-17.97308349609375,20.980241775512695
0,1073327,-33.38903045654297,-18.83271026611328,-6.6867241859436035,-67.55279541015625
0,1073328,-30.31039810180664,30.44672393798828,54.39994812011719,-17.654685974121094
0,1073331,39.11555099487305,-3.459336042404175,-8.018074035644531,45.81803512573242
0,1073332,29.160804748535156,-55.051307678222656,-31.745840072631836,63.51469802856445
0,1073335,-10.883075714111328,12.441248893737793,26.541908264160156,-20.439245223999023
0,1073336,20.919252395629883,20.489479064941406,9.698694229125977,-92.33818054199219
0,1073339,-37.237548828125,-17.841209411621094,-55.3885383605957,59.53451156616211
0,1073340,-23.698179244995117,8.85731315612793,-19.327960968017578,49.272796630859375
0,1073343,70.05547332763672,26.64189910888672,55.68309020996094,-77.64469146728516
0,1073344,9.731767654418945,-21.809703826904297,2.9877049922943115,-2.091942548751831
0,1073347,-56.24024963378906,-24.235010147094727,-22.55527114868164,0.1781584769487381
0,1073348,-13.48652172088623,39.364261627197266,10.936678886413574,-50.58198928833008
0,1073351,25.570287704467773,3.2968695163726807,-0.22201983630657196,24.017711639404297
0,1073352,24.59976577758789,-45.06654357910156,-11.673139572143555,96.92253112792969
0,1073355,32.6669921875,17.028078079223633,1.6581103801727295,29.739608764648438
0,1073356,-29.799474716186523,29.79100799560547,-14.268404960632324,-29.45184898376465
0,1073359,-70.79554748535156,7.251979827880859,12.710000038146973,-6.224656105041504
0,1073360,33.07493591308594,-10.942713737487793,75.63201904296875,-60.123321533203125
0,1073363,19.786035537719727,-24.060501098632812,35.60324478149414,-49.86217498779297
0,1073364,6.445920467376709,33.2451286315918,-66.00789642333984,49.744483947753906
0,1073367,37.190269470214844,2.0181729793548584,-90.30534362792969,42.501617431640625
0,1073368,-63.820396423339844,-29.80055809020996,7.184826374053955,-12.023930549621582
0,1073371,-52.05907440185547,-37.59393310546875,0.35214123129844666,-87.21272277832031
0,1073372,34.9627571105957,-32.595947265625,-2.8603198528289795,-30.708234786987305
0,1073375,55.550296783447266,59.104461669921875,72.72389221191406,117.8305892944336
0,1073376,15.951565742492676,54.612953186035156,2.3998818397521973,69.30528259277344
0,1073379,-58.73738098144531,-23.78187370300293,-20.290903091430664,-72.79041290283203
0,1073380,-26.865955352783203,0.2143830806016922,11.53269100189209,-19.017295837402344
0,1073383,38.00337219238281,19.524858474731445,-30.24576187133789,14.189518928527832
0,1073384,-3.5102360248565674,-56.2091178894043,0.3527090847492218,4.0247931480407715
0,1073387,30.032079696655273,1.9829802513122559,28.402484893798828,66.08325958251953
0,1073388,21.0751953125,45.70307922363281,-6.66806173324585,-22.489099502563477
0,1073391,-42.207828521728516,-21.114118576049805,20.3445987701416,-66.32268524169922
0,1073392,40.15801239013672,-22.295818328857422,13.643012046813965,-22.7817325592041
0,1073395,-24.73769187927246,6.781801223754883,-27.382722854614258,-18.48956298828125
0,1073396,-36.80719757080078,30.13361167907715,-0.9071271419525146,-5.474876403808594
0,1073399,67.4278335571289,-9.312997817993164,-22.21702003479004,112.29824829101562
0,1073400,-37.52978515625,-32.83040237426758,-32.11220932006836,67.18376922607422
0,1073403,-37.416259765625,5.433049201965332,11.313202857971191,-207.22438049316406
0,1073404,28.204978942871094,19.701602935791016,-0.9997901916503906,-101.27197265625
0,1073407,-19.778839111328125,10.021454811096191,4.966149806976318,142.05625915527344
0,1073408,2.12873911857605,-17.168350219726562,28.530126571655273,176.91839599609375
0,1073411,44.421756744384766,-2.623931646347046,33.486080169677734,43.4947509765625
0,1073413,10.802953720092773,19.52519989013672,-8.985090255737305,-225.39028930664062
0,1073415,-60.496337890625,-34.3386116027832,-31.945232391357422,-41.755088806152344
0,1073417,-0.3661718964576721,-21.755844116210938,2.930009365081787,169.94259643554688
0,1073419,32.95466613769531,25.735883712768555,7.009321689605713,-59.5749626159668
0,1073421,-10.256421089172363,29.468914031982422,12.539809226989746,-97.87535095214844
0,1073423,31.090436935424805,27.008338928222656,-18.06726837158203,65.53585052490234
0,1073425,-39.24134826660156,-31.71921157836914,-50.787357330322266,56.61681365966797
0,1073429,-12.454072952270508,18.593067169189453,45.234012603759766,9.557939529418945
0,1073429,79.2484130859375,47.95988464355469,69.03694915771484,0.20906226336956024
0,1073431,-43.40853500366211,-80.7447509765625,-53.94127655029297,-34.67070007324219
0,1073433,-26.945877075195312,-50.26368713378906,-35.54163360595703,-75.3216552734375
0,1073435,34.28271484375,51.705772399902344,24.532926559448242,-91.9862060546875
0,1073437,-52.774009704589844,6.883303165435791,-15.913763999938965,127.54595947265625
0,1073439,17.011672973632812,-10.793252944946289,-21.053449630737305,130.84471130371094
0,1073441,81.80304718017578,7.005990982055664,54.22109603881836,-87.15532684326172
0,1073443,-35.39073181152344,-29.587570190429688,27.420923233032227,-17.099016189575195
0,1073445,-50.34370803833008,38.62659454345703,-60.14942932128906,11.058456420898438
0,1073447,31.998659133911133,47.46364974975586,14.52616024017334,0.011379131115972996
0,1073449,-7.898859977722168,-55.86256408691406,35.31098175048828,17.349666595458984
0,1073451,-40.82183837890625,-26.594345092773438,-46.96807098388672,-50.25372314453125
0,1073453,41.76716232299805,23.353498458862305,-0.7750771045684814,-14.733312606811523
0,1073455,13.370715141296387,16.913118362426758,37.2923469543457,35.360450744628906
0,1073457,-53.77823257446289,2.0180890560150146,-16.637699127197266,23.666893005371094
0,1073459,2.2630233764648438,-18.73963737487793,-2.5827176570892334,19.2134952545166
0,1073461,38.981719970703125,-0.6977533102035522,14.02353572845459,-46.4341926574707
0,1073463,17.35008430480957,20.88416290283203,-9.793292999267578,-55.01609802246094
0,1073465,-44.560577392578125,-5.836542129516602,9.203795433044434,27.741884231567383
0,1073467,-7.204540729522705,-18.518617630004883,-4.5604658126831055,31.05390167236328
0,1073469,70.43080139160156,4.179135799407959,-8.46332836151123,14.579615592956543
0,1073471,-5.49949312210083,10.740497589111328,14.559255599975586,-8.486546516418457
0,1073473,-21.984943389892578,-23.087539672851562,-32.09458541870117,-48.23645782470703
0,1073475,5.506322383880615,2.1975290775299072,-7.950819969177246,24.667333602905273
0,1073477,-36.85573959350586,46.72164535522461,13.626165390014648,33.256744384765625
0,1073479,10.166019439697266,15.253693580627441,1.0024943351745605,-11.63253402709961
0,1073481,38.70405578613281,-24.387483596801758,13.397825241088867,-9.9730806350708
0,1073483,-52.62932586669922,-31.951074600219727,-3.0052356719970703,-35.051841735839844
0,1073485,-18.223777770996094,-0.6418184041976929,11.709935188293457,89.08867645263672
0,1073487,43.235469818115234,-5.758555889129639,-23.160030364990234,96.10614013671875
0,1073489,-25.108318328857422,-9.573497772216797,-36.984466552734375,-163.00694274902344
0,1073491,10.38924789428711,11.684283256530762,33.68730545043945,-130.80934143066406
0,1073493,42.39524459838867,21.479719161987305,30.443803787231445,113.78240203857422
0,1073495,-11.706964492797852,7.158781051635742,-35.67643737792969,55.09428405761719
0,1073497,0.26407337188720703,-9.100984573364258,-1.207223892211914,-38.735816955566406
0,1073499,2.079890251159668,-5.800865173339844,38.341209411621094,30.062362670898438
0,1073501,-28.920007705688477,-20.502147674560547,-6.190667152404785,38.7562255859375
0,1073503,6.606374740600586,-0.7952859401702881,-10.185759544372559,-34.86581802368164
0,1073505,6.960295677185059,33.53791046142578,3.1838736534118652,-54.51024627685547
0,1073507,-21.407690048217773,8.199564933776855,15.65301513671875,11.067831039428711
0,1073509,28.303653717041016,-29.98641014099121,13.427177429199219,25.4362735748291
0,1073511,-22.742473602294922,-23.31485366821289,-33.3856201171875,43.63153076171875
0,1073513,-30.636999130249023,38.15195083618164,-1.5427818298339844,29.125
0,1073515,59.98136901855469,39.446632385253906,34.46590805053711,-48.28107452392578
0,1073517,9.052366256713867,-29.032493591308594,-32.95763397216797,-73.64886474609375
0,1073519,-21.87091064453125,-5.268200874328613,-10.643738746643066,19.395477294921875
0,1073521,6.629848003387451,-11.246688842773438,-2.209261655807495,56.631534576416016
0,1073523,-7.605025768280029,-30.400087356567383,-35.534751892089844,-38.2464714050293
0,1073525,-22.88184928894043,11.733795166015625,34.225032806396484,-64.12046813964844
0,1073527,3.3158864974975586,-0.492747038602829,23.569053649902344,-0.9470070600509644
0,1073529,18.147308349609375,-5.781731128692627,-6.068498134613037,100.91726684570312
0,1073531,-39.52751541137695,21.733060836791992,-8.073952674865723,42.91219711303711
0,1073533,18.385658264160156,47.67170715332031,-10.822211265563965,-73.16400146484375
0,1073535,32.34198760986328,5.757953643798828,31.231252670288086,-31.943588256835938
0,1073537,-56.98549270629883,-66.39067840576172,-6.82908296585083,49.65056610107422
0,1073539,18.176944732666016,-26.48702621459961,-19.60956573486328,80.68464660644531
0,1073541,29.63602066040039,22.659709930419922,8.096967697143555,-36.75188446044922
0,1073543,-14.496618270874023,41.3718376159668,10.811124801635742,-99.84683227539062
0,1073545,16.420265197753906,2.3853065967559814,17.60078239440918,18.028745651245117
0,1073547,4.6008524894714355,-37.91310501098633,-16.12357521057129,27.2740535736084
0,1073549,-13.27700424194336,34.22369384765625,-24.482929229736328,-40.46738815307617
0,1073551,-8.883999824523926,18.253047943115234,12.578811645507812,5.331370830535889
0,1073553,11.807000160217285,-27.117643356323242,18.81505584716797,67.46220397949219
0,1073555,9.76221752166748,-3.4467244148254395,-1.1827857494354248,40.83576583862305
0,1073557,-6.613070487976074,-16.200069427490234,-7.420184135437012,-52.5806999206543
0,1073559,8.878644943237305,-16.901865005493164,-19.847471237182617,-79.37542724609375
0,1073561,-6.789614200592041,40.04316711425781,-4.863975524902344,37.321922302246094
0,1073563,-0.4109305441379547,29.214879989624023,12.85019588470459,96.794921875
0,1073565,19.24041748046875,-45.324668884277344,-1.2949179410934448,-9.526884078979492
0,1073567,-12.503639221191406,-10.982263565063477,-18.510953903198242,-83.43885040283203
0,1073569,3.5034236907958984,-3.9543240070343018,-1.8540698289871216,-22.01137351989746
0,1073571,-14.956425666809082,-38.970916748046875,39.28120422363281,25.481412887573242
0,1073573,-33.410282135009766,29.18919563293457,2.9003207683563232,20.258779525756836
0,1073575,32.8172492980957,53.99150085449219,-35.97828674316406,31.260334014892578
0,1073577,11.604558944702148,-23.52391242980957,-13.18287467956543,-32.723289489746094
0,1073579,-42.597835540771484,-32.54621505737305,29.43990707397461,-69.47087097167969
0,1073581,-0.6537838578224182,44.42801284790039,32.429962158203125,38.41440200805664
0,1073583,41.9444465637207,18.33245277404785,-32.240482330322266,29.897886276245117
0,1073585,21.923032760620117,-26.73295783996582,-16.185739517211914,0.9108322858810425
0,1073587,-22.069154739379883,0.8980507254600525,34.225887298583984,15.062861442565918
0,1073589,-36.54228591918945,-36.108646392822266,-19.49976921081543,-47.77873229980469
0,1073591,8.636080741882324,-18.468881607055664,-8.871065139770508,21.867530822753906
0,1073593,26.62706184387207,41.743431091308594,41.478981018066406,48.37904357910156
0,1073595,-0.18636195361614227,58.30086135864258,-22.5040283203125,-18.809221267700195
0,1073598,15.431057929992676,4.962624549865723,-38.72096633911133,-24.14340591430664
0,1073599,10.338814735412598,-91.28938293457031,18.88954734802246,-21.72270393371582
0,1073600,-22.99601936340332,21.98973846435547,39.80759811401367,21.6630859375
0,1073603,-39.9306526184082,47.172691345214844,1.7538455724716187,-11.168832778930664
0,1073604,-20.469911575317383,-61.60822677612305,-36.634456634521484,33.25037384033203
0,1073607,14.149365425109863,5.655792236328125,-4.655981063842773,61.76889419555664
0,1073608,23.928312301635742,36.02589797973633,23.704683303833008,-40.641090393066406
0,1073611,12.69914436340332,6.202381134033203,15.168586730957031,-60.31919860839844
0,1073612,5.798339366912842,-19.1326961517334,-20.787212371826172,-44.58561706542969
0,1073615,15.747802734375,-31.384689331054688,-29.374622344970703,-4.5034990310668945
0,1073616,-46.3184814453125,11.786827087402344,30.048105239868164,25.647687911987305
0,1073619,-5.657824993133545,17.71409797668457,10.424592018127441,61.68307113647461
0,1073620,83.36244201660156,4.365302562713623,-43.98786544799805,1.3211636543273926
0,1073623,-11.082541465759277,11.421897888183594,7.032162189483643,-2.558764696121216
0,1073624,-63.30134582519531,-19.859285354614258,16.554615020751953,26.91083526611328
0,1073627,-6.587768077850342,-10.69324016571045,9.42723560333252,-51.51796340942383
0,1073628,28.330066680908203,23.791484832763672,5.1096954345703125,23.131845474243164
0,1073631,-7.191258430480957,-15.712014198303223,-35.94847106933594,42.12958908081055
0,1073632,-3.0769739151000977,44.148704528808594,53.58878707885742,-48.127960205078125
0,1073635,20.408592224121094,41.263427734375,21.36191177368164,-12.12758731842041
0,1073636,-20.140525817871094,-100.0071792602539,-88.29163360595703,-10.191106796264648
0,1073639,4.323408603668213,-56.77358627319336,5.831602573394775,-20.012649536132812
0,1073640,-1.1535474061965942,57.04743576049805,51.487735748291016,4.244626045227051
0,1073643,-13.313207626342773,35.91557312011719,10.431010246276855,-8.238377571105957
0,1073644,43.97734069824219,-17.790647506713867,-16.10708999633789,29.96942710876465
0,1073647,-13.87144947052002,-18.97035026550293,-10.805777549743652,-10.977193832397461
0,1073651,-47.27692413330078,15.18623161315918,-23.336868286132812,-15.50380802154541
0,1073651,25.230117797851562,23.866342544555664,-22.38712501525879,40.67116165161133
0,1073652,8.540045738220215,-27.5211181640625,24.68580436706543,21.97542381286621
0,1073655,-29.298555374145508,-1.7832876443862915,14.36047077178955,-6.972532272338867
0,1073656,5.048729419708252,-6.0503129959106445,-13.562606811523438,-67.69888305664062
0,1073659,46.66048812866211,-14.818853378295898,29.8906192779541,78.81927490234375
0,1073660,1.0360137224197388,57.04032516479492,31.99880027770996,112.812744140625
0,1073663,-26.523696899414062,-4.264508247375488,-33.5702018737793,-157.34352111816406
0,1073664,13.17726993560791,-30.781593322753906,-24.265567779541016,-128.46400451660156
0,1073667,8.942313194274902,21.66390609741211,-13.714202880859375,74.89029693603516
0,1073668,9.305699348449707,-5.399545192718506,18.921337127685547,56.39033126831055
0,1073671,-26.568023681640625,-29.8985538482666,35.54024887084961,-12.036645889282227
0,1073672,-15.151830673217773,11.785984992980957,-0.45931345224380493,44.11856460571289
0,1073675,10.720977783203125,20.369844436645508,-14.375125885009766,24.604537963867188
0,1073676,-12.908641815185547,-18.28622817993164,-13.37145709991455,-57.4412727355957
0,1073679,18.854211807250977,9.8436918258667,8.692205429077148,-14.98900318145752
0,1073680,10.394096374511719,25.61903190612793,1.8529307842254639,42.52413558959961
0,1073683,-5.581448554992676,-15.419730186462402,-15.518524169921875,-2.883528709411621
0,1073684,5.184269428253174,-23.0465030670166,-22.735811233520508,-57.90046310424805
0,1073687,-2.7242252826690674,40.6899528503418,23.24921417236328,49.14693069458008
0,1073688,-19.342472076416016,12.836869239807129,23.495542526245117,24.871122360229492
0,1073691,-8.561197280883789,-44.29194259643555,-9.840856552124023,-78.60931396484375
0,1073692,13.311582565307617,0.1251264214515686,5.194904804229736,26.117202758789062
0,1073695,9.215662002563477,-7.396199703216553,-8.869112014770508,59.91156005859375
0,1073696,-32.384334564208984,-6.585261344909668,-19.664798736572266,4.723172664642334
0,1073699,-26.548011779785156,9.640478134155273,-24.808664321899414,-41.85643768310547
0,1073700,38.37679672241211,6.084146976470947,34.15250778198242,-35.17229080200195
0,1073703,32.05908966064453,9.457584381103516,45.59872817993164,19.87120246887207
0,1073704,24.951330184936523,-1.0747052431106567,-28.93012237548828,54.75333786010742
0,1073707,-37.520965576171875,-16.613588333129883,-18.885461807250977,-24.915084838867188
0,1073708,-36.26738739013672,2.232342004776001,-5.1317853927612305,-97.6473617553711
0,1073711,66.58086395263672,2.8894217014312744,-9.745966911315918,50.25092315673828
0,1073712,-9.910355567932129,-26.861583709716797,23.955951690673828,50.63999938964844
0,1073715,-43.47991943359375,21.419780731201172,23.301517486572266,-43.47039794921875
0,1073716,25.376455307006836,25.756547927856445,-12.803878784179688,22.171154022216797
0,1073719,13.358465194702148,-22.08292579650879,1.9839857816696167,1.500567078590393
0,1073720,-19.971614837646484,-22.370140075683594,-11.60184097290039,-13.63276195526123
0,1073723,-33.793670654296875,16.782503128051758,-38.45478057861328,80.38324737548828
0,1073724,-7.726104736328125,55.4399528503418,23.44329833984375,67.63917541503906
0,1073727,44.718849182128906,-7.385505676269531,27.09314727783203,-126.71617889404297
0,1073728,16.856901168823242,-44.671302795410156,-8.102041244506836,-118.0845718383789
0,1073731,-27.613243103027344,-5.684995651245117,14.026835441589355,87.5458755493164
0,1073732,13.018179893493652,4.194385528564453,-9.58582592010498,78.56993103027344
0,1073735,-7.764693737030029,17.4126033782959,-39.344032287597656,-31.159223556518555
0,1073736,5.750583171844482,11.842734336853027,5.713192462921143,-57.06755065917969
0,1073739,38.658973693847656,-6.1956610679626465,30.186641693115234,-22.915081024169922
0,1073740,-33.688995361328125,-22.369890213012695,19.137290954589844,8.181931495666504
0,1073743,-13.690649032592773,-6.840231418609619,-1.4946457147598267,53.3270378112793
0,1073744,0.5299565196037292,25.674224853515625,-15.828072547912598,27.954429626464844
0,1073747,-9.808446884155273,-7.455708026885986,-18.930267333984375,-37.67155075073242
0,1073748,12.449442863464355,9.051042556762695,-7.595713138580322,13.01933479309082
0,1073751,17.96283531188965,28.97948455810547,23.99008560180664,20.201513290405273
0,1073752,11.325532913208008,-5.85636043548584,9.783409118652344,-55.32465362548828
0,1073755,-32.52587127685547,-26.95943260192871,-33.44129943847656,-10.275059700012207
0,1073756,-0.5136556625366211,-32.30385971069336,0.951744556427002,48.86787414550781
0,1073759,6.188943862915039,17.992450714111328,36.89630126953125,-0.1838647425174713
0,1073760,-23.458431243896484,17.268564224243164,-23.63158416748047,-3.7001280784606934
0,1073763,19.63248634338379,-15.890311241149902,-22.080686569213867,25.741117477416992
0,1073764,35.77799606323242,-18.011037826538086,31.30153465270996,-38.901023864746094
0,1073767,-35.300010681152344,-12.358865737915039,-15.325103759765625,-70.86679077148438
0,1073768,-17.58519744873047,30.03827667236328,-9.082054138183594,58.873416900634766
0,1073771,56.503318786621094,14.380620002746582,42.810298919677734,60.34682846069336
0,1073772,-3.0932552814483643,-16.313093185424805,-10.780107498168945,-35.890438079833984
0,1073775,-52.09818649291992,33.08247756958008,5.593602180480957,10.491989135742188
0,1073776,-21.370952606201172,-4.32274055480957,9.089540481567383,0.6216049194335938
0,1073779,29.943958282470703,-35.5781135559082,-55.01288604736328,-46.81583023071289
0,1073780,13.911231994628906,33.85929870605469,11.353978157043457,-1.1993591785430908
0,1073783,-0.9260495901107788,-5.025974273681641,41.48615264892578,25.61562728881836
0,1073784,17.003520965576172,-6.724714756011963,-17.777685165405273,8.356369018554688
0,1073787,-48.262325286865234,32.08973693847656,-14.721379280090332,-17.505569458007812
0,1073788,-5.009611129760742,-45.950286865234375,2.6559696197509766,14.226082801818848
0,1073791,55.9388542175293,-29.706756591796875,-3.163456439971924,47.80490493774414
0,1073792,-8.552701950073242,28.08424186706543,13.912210464477539,-45.2070426940918
0,1073795,-17.661869049072266,-11.378874778747559,18.875009536743164,-49.25682067871094
0,1073796,8.353560447692871,10.21634292602539,-15.174137115478516,67.47891998291016
0,1073799,20.403770446777344,33.04812240600586,0.01855168491601944,59.42123794555664
0,1073800,-51.07663345336914,-37.9528694152832,-5.802675724029541,-86.87332916259766
0,1073803,-28.393457412719727,-28.140769958496094,-28.647092819213867,-108.2867660522461
0,1073804,82.57795715332031,31.158432006835938,14.359491348266602,58.2542724609375
0,1073807,-1.0165570974349976,-16.569055557250977,-7.997689247131348,81.11209869384766
0,1073808,-54.06843566894531,10.631415367126465,-25.658910751342773,-13.944397926330566
0,1073811,24.300561904907227,61.50244903564453,27.490232467651367,-25.0205135345459
0,1073812,32.43195343017578,-15.518779754638672,34.73908615112305,-7.397497653961182
0,1073815,-26.255212783813477,-18.210691452026367,5.937158107757568,-5.115261077880859
0,1073816,-11.71132755279541,9.393776893615723,-6.893672943115234,-6.7740325927734375
0,1073819,27.58371353149414,-19.592649459838867,-25.53714370727539,64.00316619873047
0,1073820,-3.1475822925567627,-11.228378295898438,-31.185754776000977,59.13772964477539
0,1073823,-39.136932373046875,22.067913055419922,39.89480209350586,-67.85865020751953
0,1073824,8.602876663208008,-7.146277904510498,24.631093978881836,-54.81028747558594
0,1073827,39.064517974853516,-45.10898971557617,-38.79164123535156,21.343704223632812
0,1073828,-0.049222759902477264,23.981266021728516,26.827442169189453,21.460041046142578
0,1073831,-5.384816646575928,36.33696746826172,-12.350258827209473,-11.480412483215332
0,1073832,-20.24554443359375,-24.338258743286133,-20.382343292236328,-9.137125968933105
0,1073835,1.387231469154358,24.315553665161133,54.61902618408203,9.38089656829834
0,1073837,5.022650718688965,-6.99171257019043,-40.42005157470703,-3.2556381225585938
0,1073839,-13.230874061584473,-39.891883850097656,-33.83217239379883,-14.015649795532227
0,1073841,-1.4038634300231934,64.08209228515625,36.49831008911133,16.712614059448242
0,1073843,-2.1162092685699463,4.251720905303955,20.8629150390625,34.244667053222656
0,1073845,22.967525482177734,-79.04225158691406,-6.725759506225586,-26.26640510559082
0,1073847,-12.728938102722168,-1.7272417545318604,-18.45948600769043,-7.483575344085693
0,1073849,-15.870238304138184,38.27522659301758,13.237784385681152,15.340564727783203
0,1073851,15.19061279296875,18.23004913330078,-5.510641098022461,-5.860185623168945
0,1073853,5.5490264892578125,-6.35741662979126,2.4442155361175537,26.298458099365234
0,1073855,13.572630882263184,-24.085186004638672,15.168708801269531,-65.84579467773438
0,1073857,-17.509822845458984,23.890865325927734,-16.722259521484375,-60.079246520996094
0,1073859,-20.011356353759766,34.57445526123047,13.806098937988281,44.06272888183594
0,1073861,4.853789806365967,-52.1176872253418,-11.016671180725098,39.843379974365234
0,1073863,30.258769989013672,-36.81718063354492,-53.01836395263672,32.09541320800781
0,1073865,15.804561614990234,45.60297775268555,40.9803352355957,-12.67347240447998
0,1073867,-30.7651309967041,16.710330963134766,39.79239273071289,-12.94393539428711
0,1073869,2.787069797515869,-31.06631088256836,-44.76177215576172,-0.9911543726921082
0,1073872,-18.11086082458496,13.749978065490723,19.448238372802734,-4.229589462280273
0,1073873,-19.02262306213379,19.289594650268555,18.66972541809082,9.64404582977295
0,1073874,53.891178131103516,-36.94240951538086,-43.97846984863281,10.869091987609863
0,1073877,10.514946937561035,-17.066783905029297,-0.40528520941734314,-12.849776268005371
0,1073878,-24.175437927246094,36.49189758300781,29.798297882080078,1.3116371631622314
0,1073881,-49.962554931640625,3.4711835384368896,6.66200065612793,1.4344385862350464
0,1073882,18.74017333984375,-9.763914108276367,-20.87666893005371,-41.60987854003906
0,1073885,65.8770980834961,4.5304460525512695,-20.146270751953125,-104.68029022216797
0,1073887,-8.1863374710083,20.21120834350586,20.927040100097656,66.88090515136719
0,1073889,-13.850641250610352,28.750734329223633,36.25490951538086,222.4183349609375
0,1073891,-48.27884292602539,-68.46514892578125,-22.782529830932617,-60.953739166259766
0,1073893,17.854812622070312,-9.55540657043457,-36.1770133972168,-106.70894622802734
0,1073895,20.24615478515625,26.15336036682129,-10.248393058776855,21.201993942260742
0,1073897,-35.077247619628906,-11.654338836669922,30.067899703979492,18.12870979309082
0,1073899,11.022150039672852,21.588098526000977,13.658557891845703,-4.8096232414245605
0,1073901,24.952796936035156,-5.033267021179199,-24.88209342956543,-25.74532699584961
0,1073903,6.143156051635742,10.642375946044922,37.15743637084961,32.237586975097656
0,1073905,-26.13526725769043,-11.250364303588867,4.9648847579956055,17.054691314697266
0,1073907,-4.287583827972412,-18.74837303161621,-49.205650329589844,-51.43839645385742
0,1073909,20.873807907104492,27.648801803588867,15.609040260314941,1.4615050554275513
0,1073911,-5.336151123046875,-14.816222190856934,20.248058319091797,11.250387191772461
0,1073913,12.845332145690918,-30.364681243896484,-19.918989181518555,-52.93446350097656
0,1073915,10.681832313537598,32.44646453857422,2.6670210361480713,-31.870283126831055
0,1073917,-42.783897399902344,19.863975524902344,7.310863494873047,25.689428329467773
0,1073919,19.881925582885742,-13.526777267456055,-4.3151960372924805,81.73268127441406
0,1073921,14.917570114135742,-2.374042510986328,19.663576126098633,156.6771697998047
0,1073923,-14.315892219543457,5.473521709442139,-8.95372200012207,62.10320281982422
0,1073925,15.564478874206543,7.431498050689697,-7.701130390167236,-328.71875
0,1073927,-45.161407470703125,12.542034149169922,25.921815872192383,-173.80288696289062
0,1073929,17.297151565551758,-5.120791912078857,-20.814924240112305,256.2010192871094
0,1073931,38.61271667480469,-41.80124282836914,-35.4273681640625,56.33386993408203
0,1073933,-38.97159957885742,-11.33204460144043,-0.4871561527252197,-113.01002502441406
0,1073935,31.85399627685547,36.91716003417969,44.945011138916016,15.78333568572998
0,1073937,10.227533340454102,6.988908290863037,-6.027194976806641,75.25699615478516
0,1073939,-56.05427551269531,-40.2349739074707,-46.010215759277344,-5.822189807891846
0,1073941,43.8829460144043,25.217283248901367,61.70099639892578,-68.27986145019531
0,1073943,13.678616523742676,39.18119812011719,33.34629440307617,40.240177154541016
0,1073945,-81.7065200805664,-29.999713897705078,-60.534156799316406,21.43832015991211
0,1073947,-3.2239596843719482,-1.3168257474899292,-23.944894790649414,-57.151058197021484
0,1073949,28.72248077392578,-15.52950382232666,16.75950813293457,49.1706428527832
0,1073951,30.110136032104492,-13.75461483001709,10.81889533996582,48.73908996582031
0,1073953,6.34040641784668,9.74352741241455,-11.447669982910156,-48.00116729736328
0,1073955,-5.7132792472839355,6.54940128326416,-2.973982334136963,-37.31378173828125
0,1073957,24.98681640625,24.41702651977539,-14.603724479675293,14.850643157958984
0,1073959,-52.51832580566406,-30.25456428527832,8.082578659057617,21.35433006286621
0,1073961,-26.470613479614258,-167.4774169921875,17.007047653198242,-14.727020263671875
0,1073963,48.206504821777344,56.01840591430664,-13.582732200622559,4.39644193649292
0,1073965,13.915874481201172,259.8465576171875,22.704627990722656,12.368505477905273
0,1073967,18.274927139282227,-88.74702453613281,5.851772308349609,-35.67903518676758
0,1073969,13.068825721740723,-59.44694137573242,-2.722001552581787,-1.7036418914794922
0,1073971,-30.281288146972656,85.66149139404297,23.153247833251953,45.30781936645508
0,1073973,-45.70053482055664,-77.87535095214844,-17.248401641845703,22.641040802001953
0,1073975,3.6257941722869873,0.47945457696914673,-30.5865535736084,-32.7194938659668
0,1073977,21.436737060546875,47.68989944458008,19.05497169494629,-11.661742210388184
0,1073979,0.5218058824539185,-13.791352272033691,12.386014938354492,-4.014077186584473
0,1073981,5.08206844329834,1.1410467624664307,-18.289812088012695,-9.028590202331543
0,1073983,-15.385921478271484,-6.443853378295898,-1.2225719690322876,15.311549186706543
0,1073985,14.432943344116211,-13.434266090393066,0.4801415503025055,-22.732032775878906
0,1073987,41.28527069091797,-22.312236785888672,11.564237594604492,-20.89291763305664
0,1073989,-1.0634115934371948,-3.951831579208374,1.610456943511963,67.16780853271484
0,1073991,-45.0544548034668,19.765365600585938,-17.73236846923828,114.30622100830078
0,1073993,-28.983877182006836,-13.4878511428833,-9.48526668548584,-96.02070617675781
0,1073995,25.779306411743164,-8.627232551574707,-5.618412017822266,-145.22621154785156
0,1073997,34.82970428466797,19.00944709777832,13.768917083740234,50.411293029785156
0,1073999,-3.2094693183898926,-18.948518753051758,-13.404521942138672,44.07159423828125
0,1074001,-38.41680145263672,-17.610660552978516,4.365509510040283,-4.726495265960693
0,1074003,-15.503321647644043,53.84115982055664,22.99319076538086,0.8316031694412231
0,1074005,41.50648880004883,21.46145248413086,-23.812610626220703,-6.219782829284668
0,1074007,-1.0933401584625244,-45.7620849609375,3.5809173583984375,-20.490413665771484
0,1074009,-29.438053131103516,-11.590869903564453,32.47650909423828,33.95249938964844
0,1074011,19.766183853149414,11.427978515625,-5.647921562194824,84.08788299560547
0,1074013,-20.284934997558594,-0.8942292332649231,-10.089591026306152,11.38888931274414
0,1074015,-23.076868057250977,23.535341262817383,35.883426666259766,-74.59546661376953
0,1074017,54.46553421020508,-10.106168746948242,-3.4977080821990967,-79.49830627441406
0,1074019,36.261837005615234,-25.559913635253906,-34.12037658691406,15.538095474243164
0,1074021,-36.23015213012695,30.75760269165039,-11.584954261779785,56.824520111083984
0,1074023,-14.047093391418457,-0.0340326763689518,10.077537536621094,-3.6744425296783447
0,1074025,25.70241928100586,-23.38421058654785,28.182199478149414,4.3466105461120605
0,1074027,-35.36404800415039,-7.504234313964844,-29.19383430480957,-5.471791744232178
0,1074029,-12.344161033630371,11.869643211364746,-47.737972259521484,-37.67966079711914
0,1074031,31.13117218017578,6.085569381713867,21.698013305664062,15.209433555603027
0,1074033,-14.163071632385254,-22.533924102783203,23.706954956054688,42.737735748291016
0,1074035,20.83070182800293,17.38210105895996,5.451391220092773,3.6510424613952637
0,1074037,24.90120506286621,31.205842971801758,18.658620834350586,-32.969093322753906
0,1074039,-18.419435501098633,-7.9146575927734375,-23.615806579589844,-4.221408367156982
0,1074041,-4.587505340576172,15.609159469604492,7.622432708740234,1.5807267427444458
0,1074043,-0.0948098823428154,-4.375778675079346,11.060067176818848,-0.6294636726379395
0,1074045,-22.25183868408203,-59.57205581665039,-23.79921531677246,28.979793548583984
0,1074047,-7.512322902679443,17.29514503479004,20.94384765625,17.588497161865234
0,1074049,-7.8084893226623535,33.891849517822266,2.485414505004883,-27.32198143005371
0,1074051,-12.049918174743652,5.773405075073242,-21.21569061279297,-38.50487518310547
0,1074053,11.441412925720215,-11.524404525756836,4.745102405548096,7.0600504875183105
0,1074055,-4.67698860168457,-36.66342544555664,10.962480545043945,41.77055740356445
0,1074057,30.593650817871094,-2.304006814956665,-19.45845603942871,33.827781677246094
0,1074059,40.08053970336914,-1.8100789785385132,-8.655420303344727,-44.56376647949219
0,1074061,-52.41617202758789,23.94300651550293,21.870769500732422,-23.3846435546875
0,1074063,-29.444616317749023,9.000289916992188,15.725689888000488,21.16768455505371
0,1074065,59.95497512817383,-19.137754440307617,-15.828788757324219,-27.7886962890625
0,1074067,8.789119720458984,-8.792915344238281,-51.2861442565918,26.383699417114258
0,1074069,-38.5604133605957,-1.4454877376556396,35.34754943847656,38.831275939941406
0,1074071,26.532268524169922,41.4255256652832,67.03465270996094,-53.35356521606445
0,1074073,21.301698684692383,-20.582359313964844,-40.68706130981445,-43.50675582885742
0,1074075,-59.59546661376953,-10.471061706542969,-38.7005729675293,32.10649108886719
0,1074077,2.047718048095703,39.915950775146484,13.2649507522583,13.565966606140137
0,1074079,59.34330368041992,-18.447439193725586,19.615251541137695,-45.755550384521484
0,1074081,-45.65480422973633,-3.453646183013916,-15.348135948181152,13.47046947479248
0,1074083,-10.766258239746094,18.078393936157227,-2.154245138168335,62.43965148925781
0,1074085,58.07716751098633,3.9964210987091064,51.50883102416992,-8.795526504516602
0,1074087,-53.01995086669922,-23.086889266967773,-14.155980110168457,-26.41771697998047
0,1074089,-20.4136905670166,-14.35224723815918,-34.27489471435547,-6.140842437744141
0,1074091,42.285858154296875,-4.964655876159668,9.022964477539062,16.515365600585938
0,1074094,-30.760425567626953,-2.8992958068847656,-3.624739646911621,12.502497673034668
0,1074095,14.356215476989746,39.309085845947266,15.364346504211426,-11.636253356933594
0,1074096,35.46708297729492,-14.654914855957031,-13.147252082824707,5.5304365158081055
0,1074099,-26.748733520507812,-32.63555908203125,-18.297075271606445,12.247631072998047
0,1074100,-17.254993438720703,43.43975830078125,11.903450012207031,-3.458042621612549
0,1074103,-6.130648136138916,-17.714948654174805,1.7027937173843384,-15.517627716064453
0,1074104,-3.2830076217651367,-3.1922526359558105,9.564492225646973,23.63508415222168
0,1074107,12.56747817993164,42.65193176269531,-7.655178070068359,1.1181983947753906
0,1074108,13.464221954345703,-63.73439025878906,-9.915794372558594,-25.572444915771484
0,1074111,6.195830821990967,-7.758705139160156,5.52921199798584,12.27237606048584
0,1074112,-17.740333557128906,60.120784759521484,20.023841857910156,-32.99690246582031
0,1074115,8.665989875793457,-2.8513662815093994,8.194552421569824,-15.025571823120117
0,1074116,23.898075103759766,-24.54941177368164,-32.49320602416992,42.487220764160156
0,1074119,-25.396770477294922,-2.1982779502868652,-8.910367012023926,-31.544490814208984
0,1074120,-1.1739307641983032,29.984933853149414,30.20839500427246,-42.528743743896484
0,1074123,22.86756134033203,-18.30170249938965,6.316192150115967,83.22234344482422
0,1074124,-7.6474995613098145,-51.41939926147461,-35.755348205566406,77.01822662353516
0,1074127,-36.61989974975586,23.463722229003906,-20.325647354125977,-54.59756088256836
0,1074128,16.659746170043945,31.622474670410156,38.68193817138672,4.296954154968262
1,1074133,43.045440673828125,-24.66071891784668,22.39119529724121,-32.36556625366211
1,1074133,-48.720638275146484,-11.542837142944336,-30.52773666381836,-124.80838775634766
1,1074135,-20.895565032958984,3.952197313308716,-8.242560386657715,45.003204345703125
1,1074137,48.94904327392578,-2.559460163116455,3.94512939453125,100.34370422363281
1,1074139,-7.537199020385742,16.123746871948242,3.4525043964385986,7.485326766967773
1,1074141,-20.590469360351562,4.3917951583862305,33.30266189575195,-44.27570343017578
1,1074143,16.086830139160156,-5.100778102874756,8.698627471923828,-0.8603178858757019
1,1074145,5.27644681930542,-0.2947787344455719,-39.389835357666016,23.67794418334961
1,1074147,9.648147583007812,2.710923671722412,-2.792184352874756,-27.383041381835938
1,1074149,-15.786823272705078,18.25061798095703,36.01462173461914,-18.309329986572266
1,1074151,-16.11376953125,1.0575575828552246,-6.541560649871826,52.8548698425293
1,1074153,0.9382777810096741,-9.804195404052734,3.8177289962768555,40.24917984008789
1,1074155,7.244630813598633,15.45811939239502,8.418902397155762,-47.77590560913086
1,1074157,29.069847106933594,9.546431541442871,-29.660337448120117,-13.725190162658691
1,1074159,2.3488783836364746,-18.647092819213867,7.857388019561768,-2.246385097503662
1,1074161,-30.467365264892578,0.6377186179161072,4.1363444328308105,-53.351318359375
1,1074163,-36.0442008972168,-29.173259735107422,-49.450870513916016,25.160594940185547
1,1074165,42.365882873535156,-23.75691795349121,-0.8194401860237122,89.00991821289062
1,1074167,25.823734283447266,44.64029312133789,28.19185447692871,31.927690505981445
1,1074169,-48.0367431640625,7.264922142028809,15.865636825561523,-115.80674743652344
1,1074171,10.575748443603516,-8.146074295043945,-2.595937490463257,-87.65550994873047
1,1074173,36.518951416015625,1.1260063648223877,-19.78673553466797,105.69306182861328
1,1074175,-28.42662239074707,16.085878372192383,39.550331115722656,63.81532669067383
1,1074177,-24.60370635986328,3.1665377616882324,4.4212517738342285,-28.528549194335938
1,1074179,43.621559143066406,-60.418373107910156,-60.079994201660156,-39.38931655883789
1,1074181,8.993435859680176,18.907773971557617,7.08578634262085,-10.039262771606445
1,1074183,-37.11158752441406,47.16893005371094,37.42361068725586,5.19881534576416
1,1074185,-2.6919379234313965,-23.31084632873535,2.696962594985962,-15.376999855041504
1,1074187,50.18132019042969,16.542882919311523,-2.2450754642486572,4.729101657867432
1,1074189,11.524065971374512,-19.815210342407227,-9.765636444091797,10.761287689208984
1,1074191,-42.42546463012695,-40.25870132446289,-5.060295104980469,22.58525848388672
1,1074193,-42.76389694213867,41.299468994140625,-23.32256507873535,-2.220083236694336
1,1074195,-11.045190811157227,-3.377549171447754,-16.444026947021484,13.50832748413086
1,1074197,63.5504150390625,-13.486896514892578,13.48304557800293,26.045759201049805
1,1074199,-3.1076207160949707,29.914758682250977,14.436223983764648,-35.63907241821289
1,1074201,-47.14686584472656,-21.568819046020508,35.9061279296875,-5.082685470581055
1,1074203,24.645442962646484,-35.844703674316406,11.341060638427734,1.6591989994049072
1,1074205,-7.230784893035889,8.466437339782715,-40.18191146850586,-71.36576080322266
1,1074207,-8.75621509552002,26.64444923400879,-22.820188522338867,-44.6754150390625
1,1074209,45.88258743286133,22.795942306518555,33.87081527709961,127.75435638427734
1,1074211,24.621305465698242,0.6179450154304504,3.4606006145477295,159.69647216796875
1,1074213,-14.86939525604248,-31.987424850463867,-32.8798828125,-41.96559524536133
1,1074215,-38.2047233581543,-11.899582862854004,34.88162612915039,-125.80913543701172
1,1074217,-7.798530101776123,37.28309631347656,29.940990447998047,-79.99971771240234
1,1074219,27.660680770874023,8.507932662963867,-41.20482635498047,4.116481304168701
1,1074221,2.4990227222442627,-20.16896629333496,-6.996359825134277,68.67462921142578
1,1074223,-24.647397994995117,-6.212368965148926,0.25196194648742676,3.4817593097686768
1,1074225,-4.202821731567383,8.710931777954102,-8.15196418762207,-31.52351188659668
1,1074227,29.811830520629883,8.301105499267578,36.88648223876953,-22.978614807128906
1,1074229,-21.877002716064453,-13.429717063903809,-8.26718521118164,-19.630094528198242
1,1074231,-11.965391159057617,13.355978965759277,-26.061681747436523,29.781042098999023
1,1074233,42.415645599365234,-26.649383544921875,0.17449232935905457,32.46452331542969
1,1074235,-22.81201934814453,-27.184490203857422,-0.6095958948135376,21.367454528808594
1,1074237,-16.820837020874023,54.49479675292969,13.375983238220215,29.893190383911133
1,1074239,47.36570739746094,0.95817631483078,0.25074541568756104,-16.177474975585938
1,1074241,-9.285487174987793,-27.223047256469727,-4.946301460266113,-50.77330017089844
1,1074243,-25.141040802001953,13.183539390563965,21.19160270690918,-7.928083419799805
1,1074245,-5.248013019561768,13.155294418334961,-0.678590714931488,55.61021423339844
1,1074247,0.9353585839271545,11.23145580291748,-27.472471237182617,24.162315368652344
1,1074249,20.17258071899414,-10.474010467529297,8.478148460388184,-39.18460464477539
1,1074251,-18.060930252075195,-36.64651107788086,4.796204566955566,7.533405780792236
1,1074506,2.3124375343322754,15.04629135131836,-33.57741165161133,-36.44752502441406
1,1074507,-4.043259620666504,35.838356018066406,-22.561279296875,-133.52020263671875
1,1074510,18.120067596435547,-6.673299789428711,34.1717643737793,95.9695053100586
1,1074511,12.35096549987793,-0.3428645730018616,50.60472106933594,171.4425506591797
1,1075405,-33.71551513671875,-58.280250549316406,-39.49003601074219,-95.80995178222656
1,1075405,42.637996673583984,-17.233009338378906,-2.8103790283203125,-36.18783187866211
1,1075406,-0.49712029099464417,71.73590087890625,62.338233947753906,87.02352142333984
1,1075409,-127.44673156738281,-79.79248809814453,29.9518985748291,17.024017333984375
1,1075410,25.929203033447266,24.82401466369629,-7.031373977661133,-28.113203048706055
1,1075413,156.49142456054688,133.63111877441406,-111.41958618164062,-101.57713317871094
1,1075414,-46.10034942626953,-69.67859649658203,27.301843643188477,-11.219340324401855
1,1075417,-47.95769500732422,-18.535932540893555,80.6568374633789,84.071533203125
1,1075418,12.917134284973145,46.96018600463867,-57.14590835571289,-20.716083526611328
1,1075421,-31.797208786010742,-38.39256286621094,-6.929800987243652,-27.274002075195312
1,1075422,28.92042350769043,-29.86620330810547,-24.12724494934082,39.15559005737305
1,1075425,12.141459465026855,22.702733993530273,-38.0202522277832,0.5949417352676392
1,1075426,10.507428169250488,51.28361129760742,68.91973876953125,-18.365690231323242
1,1075429,6.818647384643555,-25.324865341186523,4.964527606964111,-47.89119338989258
1,1075430,-40.33848571777344,-78.96967315673828,-81.8420181274414,-52.17853546142578
1,1075433,-1.5809886455535889,20.218017578125,28.465404510498047,68.5715560913086
1,1075434,7.024613857269287,26.481355667114258,36.16889190673828,36.876075744628906
1,1075437,9.662649154663086,-24.792261123657227,-3.700218439102173,-22.117616653442383
1,1075438,-15.509347915649414,4.140194892883301,21.895017623901367,24.076919555664062
1,1075441,-4.983251571655273,14.177403450012207,-4.865594863891602,-4.392037868499756
1,1075442,18.560131072998047,-2.936840534210205,-21.665538787841797,-24.640029907226562
1,1075445,-29.54652214050293,-0.5973125696182251,4.619227409362793,3.7090749740600586
1,1075446,26.116046905517578,20.506179809570312,-9.21091079711914,3.147014856338501
1,1075449,44.66258239746094,2.717172145843506,-3.152752637863159,56.21784973144531
1,1075450,-27.330764770507812,-2.256584644317627,30.537466049194336,56.52289962768555
1,1075453,-13.646098136901855,7.887513637542725,-9.943731307983398,-109.14515686035156
1,1075454,-4.569441318511963,-8.645532608032227,-27.822834014892578,-73.32614135742188
1,1075457,-24.217771530151367,-8.237975120544434,16.647357940673828,95.12903594970703
1,1075458,26.995325088500977,1.5465283393859863,57.31999206542969,74.84069061279297
1,1075461,20.823728561401367,-21.837383270263672,-28.06641387939453,-123.97809600830078
1,1075462,-51.217124938964844,-28.359350204467773,-73.04190063476562,-117.43018341064453
1,1075465,-37.44374465942383,52.23152160644531,26.99808120727539,113.23125457763672
1,1075466,54.898319244384766,12.619425773620605,39.31454086303711,164.2819366455078
1,1075469,57.44330978393555,-62.45751953125,5.208216190338135,-6.115088939666748
1,1075470,-21.80586051940918,8.249865531921387,-30.993993759155273,-177.78314208984375
1,1075473,-31.57683563232422,42.53135299682617,-11.934325218200684,-27.057159423828125
1,1075474,-17.269180297851562,6.494494915008545,7.541703224182129,82.2469482421875
1,1075477,18.101463317871094,-21.007240295410156,1.7521202564239502,-7.6247429847717285
1,1075478,49.68670654296875,-0.08049864321947098,20.837779998779297,24.842079162597656
1,1075481,-14.65473747253418,3.6460869312286377,-13.455719947814941,9.387384414672852
1,1075482,-66.67478942871094,10.829509735107422,14.539531707763672,-49.58883285522461
1,1075485,-4.45286226272583,18.206905364990234,8.953235626220703,40.85316848754883
1,1075486,68.7167739868164,-17.680442810058594,-38.90959930419922,20.171804428100586
1,1075489,15.428208351135254,-3.4546151161193848,-4.425991058349609,-61.5589714050293
1,1075490,-73.73832702636719,9.337973594665527,30.097057342529297,4.0837297439575195
1,1075493,-24.79151153564453,-31.19520378112793,22.70711898803711,6.77934455871582
1,1075494,58.0910758972168,2.987626791000366,-20.32587242126465,-4.645009994506836
1,1075497,31.31686019897461,36.727516174316406,-9.851744651794434,26.486526489257812
1,1075498,-14.560551643371582,-12.195096969604492,25.337562561035156,25.188961029052734
1,1075501,-20.404808044433594,-15.918106079101562,6.781700134277344,29.918779373168945
1,1075502,9.88740062713623,-0.5257419347763062,-24.358070373535156,-80.00385284423828
1,1075505,11.070694923400879,-0.062259603291749954,-8.134809494018555,-41.55146789550781
1,1075506,-5.014676094055176,4.937265396118164,3.191739797592163,59.259681701660156
1,1075509,-17.286245346069336,-0.2395961433649063,-6.564542293548584,-30.581315994262695
1,1075510,-5.2641425132751465,-9.802117347717285,13.939955711364746,14.5380220413208
1,1075513,7.664216995239258,-4.489085674285889,5.533246040344238,36.5189323425293
1,1075514,-36.00582504272461,23.24517059326172,-35.34589385986328,-11.32243537902832
1,1075517,-1.4651081562042236,-6.312910079956055,-12.347761154174805,9.414414405822754
1,1075518,35.37663650512695,-31.6954288482666,36.460243225097656,3.0304906368255615
1,1075521,7.856314182281494,32.66611099243164,11.33719539642334,-25.165889739990234
1,1075522,-3.8935084342956543,34.61745071411133,-7.242237567901611,19.188636779785156
1,1075525,21.866952896118164,-24.758670806884766,-7.131335258483887,13.837804794311523
1,1075526,9.027043342590332,-18.26287841796875,-15.680621147155762,-77.56128692626953
1,1075529,-45.810997009277344,10.913175582885742,3.171597480773926,-14.558605194091797
1,1075530,-0.2814398407936096,-16.216094970703125,-23.510770797729492,87.02216339111328
1,1075533,36.57940673828125,-23.17125701904297,12.031420707702637,15.991836547851562
1,1075534,-21.294742584228516,14.714675903320312,54.86072540283203,-55.369407653808594
1,1075537,-25.692289352416992,29.313732147216797,-9.2224702835083,8.157544136047363
1,1075538,25.272998809814453,26.210445404052734,-11.237359046936035,12.54537582397461
1,1075541,12.225541114807129,-26.018102645874023,-1.8393210172653198,61.32830810546875
1,1075542,-41.348018646240234,-66.05986785888672,-15.736145973205566,43.97954177856445
1,1075547,-15.39115047454834,18.665409088134766,-8.507298469543457,-173.5275115966797
1,1075547,28.888608932495117,63.1845817565918,-5.548472881317139,-77.66609191894531
1,1075548,14.554511070251465,2.5118625164031982,12.231118202209473,94.5744857788086
1,1075551,-13.103058815002441,-22.813066482543945,38.764225006103516,63.84009552001953
1,1075552,-3.941239595413208,-8.141345024108887,8.341794967651367,22.164405822753906
1,1075555,38.09585952758789,10.186676025390625,-35.8751220703125,-43.136627197265625
1,1075556,-0.9173299074172974,-17.300260543823242,-5.619608402252197,-32.066436767578125
1,1075559,-3.1308507919311523,11.75571346282959,-2.1866514682769775,15.544837951660156
1,1075560,15.788697242736816,15.553339958190918,-26.37989044189453,5.942478656768799
1,1075563,-46.717308044433594,-40.671165466308594,-9.296024322509766,-22.22990608215332
1,1075564,-14.56991958618164,22.384113311767578,29.904817581176758,31.953218460083008
1,1075567,53.815330505371094,51.41377258300781,48.59606170654297,106.30113220214844
1,1075568,4.124267101287842,-35.38521194458008,-19.209806442260742,19.571624755859375
1,1075571,-36.97080612182617,-52.22562789916992,-37.37871551513672,-51.6946907043457
1,1075572,-5.528125286102295,15.533843040466309,22.66232681274414,-43.02838134765625
1,1075575,4.329900741577148,27.375215530395508,6.674657344818115,-76.72000885009766
1,1075576,-8.978071212768555,2.665548801422119,-13.04534912109375,-25.57628631591797
1,1075579,21.07864761352539,1.497685432434082,-0.15230929851531982,48.16834259033203
1,1075580,41.74795913696289,12.360859870910645,-7.003842353820801,37.803253173828125
1,1075583,-54.441017150878906,-10.972835540771484,21.864803314208984,15.225870132446289
1,1075584,-40.56438064575195,-44.00595474243164,-14.64979076385498,-1.6307950019836426
1,1075587,95.0921859741211,22.60979461669922,-32.00544738769531,-48.180015563964844
1,1075588,21.89287757873535,45.705265045166016,42.75070571899414,-45.990806579589844
1,1075591,-63.2476921081543,-51.510292053222656,10.403048515319824,37.341796875
1,1075592,-16.5291748046875,-27.77621078491211,-7.1750946044921875,41.850093841552734
1,1075595,-22.434123992919922,57.4438591003418,-1.8765071630477905,9.872939109802246
1,1075596,16.370887756347656,6.699915409088135,-29.83872413635254,4.53412389755249
1,1075599,43.83308029174805,-43.456119537353516,17.39634132385254,5.113101959228516
1,1075600,-25.00069808959961,23.757841110229492,22.06094741821289,-8.109951972961426
1,1075603,-32.50784683227539,10.94797134399414,-7.467169761657715,-41.544700622558594
1,1075604,28.562599182128906,-42.01361846923828,7.265277862548828,16.410324096679688
1,1075607,6.942659378051758,22.621904373168945,4.229101181030273,28.90204620361328
1,1075608,-22.799741744995117,24.450864791870117,-31.019824981689453,-38.33171081542969
1,1075611,46.92822265625,11.66352367401123,-5.316450119018555,-23.35289764404297
1,1075612,32.737831115722656,20.45315933227539,19.691844940185547,8.558085441589355
1,1075615,-39.664581298828125,-43.39905548095703,-5.168509483337402,16.82020378112793
1,1075616,-44.98446273803711,-26.183494567871094,10.759444236755371,16.863500595092773
1,1075619,-13.016852378845215,28.07034683227539,12.446043968200684,-2.3869805335998535
1,1075620,0.37789326906204224,-3.8803799152374268,-7.152599334716797,-12.76275634765625
1,1075623,49.21242904663086,11.690869331359863,-49.825767517089844,5.804821491241455
1,1075624,35.349761962890625,7.523299694061279,-37.569862365722656,12.718291282653809
1,1075627,-78.1451416015625,-33.0706672668457,23.452722549438477,10.279623985290527
1,1075628,-4.906611919403076,11.598711013793945,43.96202087402344,-0.930916965007782
1,1075631,67.50030517578125,-34.00636672973633,9.049017906188965,-4.192535877227783
1,1075632,-4.821408271789551,-37.76580047607422,-44.37108612060547,41.73110580444336
1,1075635,-6.122110366821289,69.95471954345703,48.58562469482422,-28.784048080444336
1,1075636,56.41534423828125,34.20208740234375,59.36335372924805,-80.13697052001953
1,1075639,-51.89181137084961,-19.711681365966797,-45.622230529785156,18.625368118286133
1,1075640,-123.20341491699219,15.377081871032715,17.823366165161133,41.58115005493164
1,1075643,53.017086029052734,-4.366179466247559,13.55341911315918,-9.081729888916016
1,1075644,65.66938018798828,-35.79708480834961,-31.719331741333008,-17.54041862487793
1,1075647,-31.111492156982422,-2.7281041145324707,-47.40473175048828,9.309308052062988
1,1075648,20.07874298095703,14.30707836151123,-77.01931762695312,-1.771132469177246
1,1075651,2.509185314178467,6.586167812347412,55.51981735229492,16.71082305908203
1,1075652,-81.59925842285156,-1.064344882965088,88.8019027709961,14.753490447998047
1,1075655,30.83938217163086,-3.000328540802002,11.969391822814941,-8.12263011932373
1,1075656,94.33924102783203,-17.937355041503906,-50.98794937133789,8.507248878479004
1,1075659,-10.011733055114746,-5.1575775146484375,-79.9521484375,-12.055510520935059
1,1075660,-16.806543350219727,-7.071952819824219,36.38287353515625,-5.964266777038574
1,1075663,39.033607482910156,1.1952135562896729,45.47678756713867,-14.99270248413086
1,1075665,-17.671762466430664,48.742897033691406,-5.918583869934082,-32.18160629272461
1,1075667,-120.84700012207031,5.347879409790039,54.5384635925293,19.723814010620117
1,1075669,-10.383831977844238,-37.31560516357422,8.574177742004395,55.471893310546875
1,1075671,51.95612335205078,-29.18191146850586,-110.06689453125,16.13749885559082
1,1075673,-2.7026314735412598,20.138042449951172,-40.87138366699219,-62.41734313964844
1,1075675,77.41390228271484,44.786319732666016,71.34661102294922,-5.272621154785156
1,1075677,34.84784698486328,13.067529678344727,48.884273529052734,65.98170471191406
1,1075679,-58.37849807739258,-22.499540328979492,4.463837146759033,-24.813098907470703
1,1075681,-16.455366134643555,-53.0771484375,-34.51055908203125,-26.4039363861084
1,1075683,-15.658698081970215,8.833028793334961,21.00778579711914,7.1082563400268555
1,1075685,3.1724812984466553,33.86505126953125,43.80150604248047,-33.47834777832031
1,1075687,-7.224195957183838,6.479794979095459,-50.224464416503906,3.840733051300049
1,1075689,-53.971351623535156,40.52116775512695,22.050983428955078,42.156463623046875
1,1075691,30.16206932067871,-29.173114776611328,7.131521701812744,8.609591484069824
1,1075693,66.85438537597656,-74.0576171875,-91.28816223144531,-33.1331672668457
1,1075695,-14.818563461303711,28.318044662475586,-22.296846389770508,-17.012157440185547
1,1075697,-39.67784118652344,64.18631744384766,56.40739822387695,10.77942180633545
1,1075700,90.6165771484375,17.837778091430664,127.16755676269531,57.78774642944336
1,1075701,23.088563919067383,-40.40195083618164,-17.64805030822754,25.060880661010742
1,1075704,-163.97930908203125,-47.50543212890625,-183.30810546875,-71.71422576904297
1,1075705,-21.36319923400879,-30.086284637451172,-83.71343231201172,-12.802515983581543
1,1075706,90.40078735351562,2.3253231048583984,0.8843644857406616,32.733768463134766
1,1075709,50.24116134643555,45.0165901184082,28.28631019592285,31.46944236755371
1,1075710,21.549501419067383,29.058979034423828,96.39910125732422,2.2835566997528076
1,1075713,-34.354248046875,2.306201696395874,108.3724136352539,-45.73908233642578
1,1075714,-48.55979919433594,-16.447324752807617,27.24286460876465,-12.498027801513672
1,1075717,-32.32667922973633,-13.985560417175293,14.37147045135498,-29.476293563842773
1,1075718,33.542911529541016,3.8271665573120117,18.509376525878906,-18.46587371826172
1,1075721,38.55528259277344,12.028460502624512,-61.273563385009766,42.4801025390625
1,1075722,-61.5864372253418,1.7848957777023315,-74.98363494873047,-0.6306486129760742
1,1075725,-71.79522705078125,5.412353992462158,-12.172370910644531,10.465536117553711
1,1075726,60.076751708984375,6.601715564727783,0.7025248408317566,40.350547790527344
1,1075729,86.4604721069336,-12.019858360290527,7.229514122009277,-17.70026206970215
1,1075730,-5.860097885131836,-3.768951654434204,31.69700050354004,-11.153823852539062
1,1075733,130.9767608642578,15.366835594177246,13.98998737335205,-15.2116117477417
1,1075734,38.57810592651367,-6.514985084533691,-2.778984785079956,-33.03150177001953
1,1075737,-312.6109313964844,-53.52020263671875,-19.731264114379883,4.450764179229736
1,1075738,-91.9955062866211,-4.984095573425293,-3.9287991523742676,40.041717529296875
1,1075741,250.84115600585938,47.76203155517578,-12.26133918762207,57.353702545166016
1,1075742,22.063854217529297,-6.257113456726074,-66.54596710205078,-32.92431640625
1,1075745,-117.17345428466797,-16.477031707763672,-33.54804229736328,-44.63372039794922
1,1075746,53.2986946105957,7.689448833465576,9.382055282592773,38.01214599609375
1,1075749,5.10068941116333,-11.051871299743652,59.962791442871094,-15.896344184875488
1,1075750,-16.656646728515625,20.67044448852539,99.18942260742188,0.5655899047851562
1,1075753,15.04386043548584,34.87819290161133,15.246253967285156,41.994895935058594
1,1075754,-57.55487823486328,-39.73137283325195,-60.22471618652344,-54.85271453857422
1,1075757,-33.82876968383789,-40.449459075927734,-33.635379791259766,-31.08721351623535
1,1075758,54.9843864440918,37.15009689331055,14.408220291137695,36.23957061767578
1,1075761,99.88993835449219,26.652280807495117,8.961115837097168,44.27021789550781
1,1075762,48.159271240234375,2.7911922931671143,9.06566047668457,18.697982788085938
1,1075765,-37.159358978271484,-2.9769904613494873,126.75463104248047,-94.36011505126953
1,1075766,-60.6091194152832,11.187965393066406,86.54461669921875,-35.4709587097168
1,1075769,16.955718994140625,24.582847595214844,-144.75584411621094,17.991811752319336
1,1075770,12.234477043151855,-35.995365142822266,-106.18592071533203,-22.585073471069336
1,1075773,-126.10562133789062,-25.266672134399414,-100.5305404663086,62.76974105834961
1,1075774,-77.41980743408203,3.3622288703918457,-157.97308349609375,80.67967224121094
1,1075777,58.54946517944336,-0.9894253015518188,29.56643295288086,31.540822982788086
1,1075778,50.6700439453125,-25.642845153808594,94.24309539794922,-26.771778106689453
1,1075781,58.678260803222656,-19.587173461914062,141.66412353515625,-35.457435607910156
1,1075782,90.15454864501953,45.90373611450195,158.39578247070312,17.931102752685547
1,1075785,-40.56315612792969,36.75246810913086,12.805736541748047,-56.35049057006836
1,1075786,-84.2007064819336,-15.257675170898438,-20.747848510742188,-60.34127426147461
1,1075789,71.9930419921875,-50.61123275756836,-89.30794525146484,-11.773282051086426
1,1075790,47.365684509277344,10.446701049804688,-100.67932891845703,-10.972579002380371
1,1075793,-76.10716247558594,57.51582717895508,120.18821716308594,37.96086120605469
1,1075794,-95.02964782714844,-11.606156349182129,91.55325317382812,36.48392105102539
1,1075797,33.59895706176758,-11.646259307861328,-125.66785430908203,32.03390884399414
1,1075798,71.93341827392578,-16.658185958862305,-68.91905212402344,-25.334131240844727
1,1075801,0.8734776973724365,-7.802107334136963,36.90669631958008,-45.7854118347168
1,1075802,46.66227340698242,81.36199188232422,-34.66230773925781,16.646705627441406
1,1075805,-87.00105285644531,-16.752666473388672,-24.57744789123535,97.15177917480469
1,1075806,-154.8411407470703,-109.68367767333984,73.45772552490234,84.1449966430664
1,1075809,32.34817886352539,4.435420036315918,-37.73617935180664,-123.32893371582031
1,1075810,83.46380615234375,48.926368713378906,-103.9865951538086,-89.194091796875
1,1075813,69.47823333740234,-11.23703384399414,20.61418914794922,94.03440856933594
1,1075814,77.24208068847656,12.205615997314453,64.26626586914062,10.784241676330566
1,1075817,-29.575664520263672,40.4461784362793,86.55619049072266,-44.27293395996094
1,1075818,-90.01719665527344,-18.744178771972656,11.997925758361816,-22.974618911743164
1,1075821,-22.553577423095703,-19.814226150512695,-57.945274353027344,-13.081089973449707
1,1075822,24.773221969604492,-9.07050609588623,17.547183990478516,27.742582321166992
1,1075825,22.25992202758789,30.561269760131836,24.32089614868164,12.442940711975098
1,1075826,-14.415837287902832,24.41704559326172,-7.487239360809326,-9.847105026245117
1,1075829,9.372657775878906,-35.26414489746094,31.016698837280273,32.985565185546875
1,1075830,55.583091735839844,-3.1687939167022705,22.94251251220703,59.351566314697266
1,1075833,-12.609448432922363,-17.84572982788086,-77.17228698730469,-65.83892059326172
1,1075834,-48.715633392333984,-26.405086517333984,-22.741138458251953,-70.55255889892578
1,1075837,1.9769099950790405,20.74578094482422,92.44317626953125,51.66231155395508
1,1075838,2.085331916809082,26.803550720214844,11.586043357849121,12.456372261047363
1,1075841,-4.389966011047363,-5.419025897979736,-169.93243408203125,-32.96323013305664
1,1075842,-42.8205680847168,-28.18180274963379,-157.83140563964844,18.563352584838867
1,1075845,11.72467041015625,7.749464988708496,54.891212463378906,26.798702239990234
1,1075847,93.67130279541016,39.44926452636719,129.22720336914062,-11.316344261169434
1,1075849,-52.2074089050293,6.155774116516113,108.82940673828125,-31.10442543029785
1,1075851,-68.794677734375,-28.295164108276367,55.94814682006836,-0.697329044342041
1,1075853,40.44188690185547,-5.929501056671143,-9.893610000610352,15.307917594909668
1,1075855,26.65013885498047,3.633873701095581,-47.28114318847656,-15.631216049194336
1,1075857,22.8129825592041,-1.8929110765457153,-50.86146926879883,34.71060562133789
1,1075859,7.743039608001709,25.84763526916504,1.6643027067184448,-16.834318161010742
1,1075861,-35.57257080078125,22.299388885498047,33.17572784423828,-56.388587951660156
1,1075863,-8.095858573913574,1.3703826665878296,64.10935974121094,65.90441131591797
1,1075865,50.81436538696289,-56.77013397216797,-30.530223846435547,18.122711181640625
1,1075867,-37.18001174926758,-20.637069702148438,-59.36717224121094,-38.78757095336914
1,1075869,-61.42784118652344,49.20441436767578,-43.46113204956055,0.024641936644911766
1,1075871,22.448686599731445,-10.877527236938477,-84.63407135009766,26.770719528198242
1,1075874,49.684547424316406,-32.11063003540039,15.02933120727539,75.42120361328125
1,1075876,41.368736267089844,2.3714892864227295,19.96929359436035,-34.3420295715332
1,1075876,-45.440635681152344,29.825162887573242,-29.418947219848633,-98.1599349975586
1,1075879,-12.449444770812988,-5.136760711669922,66.20421600341797,4.851508140563965
1,1075880,10.966007232666016,-19.731735229492188,93.10028076171875,20.291378021240234
1,1075883,-4.1791205406188965,14.81245231628418,24.196748733520508,47.099754333496094
1,1075884,24.01268768310547,11.391714096069336,9.202372550964355,13.619555473327637
1,1075887,-44.6849250793457,-3.941704273223877,7.79425048828125,-106.48806762695312
1,1075888,-23.85685157775879,5.943457126617432,-15.710163116455078,-55.25201416015625
1,1075891,32.90653991699219,19.634775161743164,-57.212867736816406,114.49884796142578
1,1075892,10.408441543579102,-36.96047592163086,-42.6554069519043,77.28413391113281
1,1075895,22.378067016601562,-12.629328727722168,36.811119079589844,-49.07912063598633
1,1075896,-34.167816162109375,35.74286651611328,67.6700210571289,-8.955299377441406
1,1075899,-66.91215515136719,-19.925485610961914,-25.110122680664062,-17.80883026123047
1,1075900,30.733205795288086,2.3736307621002197,-135.1564178466797,-20.32863998413086
1,1075903,29.72428321838379,0.1301303505897522,-103.48040771484375,52.50875473022461
1,1075904,11.694953918457031,-16.273427963256836,11.807652473449707,41.6480598449707
1,1075907,28.778043746948242,14.777213096618652,120.11103820800781,-26.635705947875977
1,1075908,-28.38214683532715,16.465242385864258,85.80691528320312,-28.42754364013672
1,1075911,16.758207321166992,6.354855060577393,-15.92647647857666,-27.34086036682129
1,1075912,56.25700759887695,-6.680147171020508,23.534828186035156,-42.27955627441406
1,1075915,-40.076499938964844,15.172011375427246,30.950838088989258,42.87193298339844
1,1075916,-45.846656799316406,0.4521172046661377,-39.2726936340332,31.072593688964844
1,1075919,-9.412222862243652,-36.0025634765625,-34.777198791503906,-36.34698486328125
1,1075920,23.850730895996094,-19.467912673950195,39.09431076049805,5.473019123077393
1,1075923,52.63496780395508,18.4488468170166,30.988208770751953,14.811598777770996
1,1075924,-7.876306533813477,9.416681289672852,-53.211997985839844,-29.6152286529541
1,1075927,-26.35273551940918,-16.085689544677734,-21.494285583496094,-8.307934761047363
1,1075928,-8.179878234863281,18.458539962768555,41.11452865600586,59.54106140136719
1,1075931,-25.74361228942871,18.06938934326172,5.048819065093994,12.752742767333984
1,1075932,-19.671306610107422,-15.172574043273926,-30.516782760620117,-44.215904235839844
1,1075935,3.5984678268432617,26.610288619995117,-18.04729652404785,-7.205133438110352
1,1075936,-0.3648136854171753,15.704111099243164,-14.751742362976074,14.545147895812988
1,1075939,-16.307353973388672,-53.8678092956543,-27.920698165893555,-5.597343444824219
1,1075940,43.55461502075195,-41.60197830200195,-16.87217903137207,-4.501045227050781
1,1075943,44.91952896118164,33.828041076660156,61.68775177001953,21.876211166381836
1,1075944,-21.52495002746582,29.824445724487305,36.817264556884766,36.25144577026367
1,1075947,-0.14898595213890076,-41.368408203125,-31.138761520385742,-35.53660583496094
1,1075948,-2.952080011367798,-31.66012954711914,25.404539108276367,-84.027587890625
1,1075951,-32.9409065246582,32.00669479370117,5.045677661895752,69.49763488769531
1,1075952,-35.9233283996582,56.761207580566406,-71.13978576660156,39.90890884399414
1,1075955,30.982316970825195,-8.439223289489746,-4.498514175415039,-88.60326385498047
1,1075956,51.7072639465332,-46.71953201293945,70.69538116455078,52.23552322387695
1,1075959,-9.312658309936523,12.7138090133667,-13.02241039276123,56.27458190917969
1,1075960,-11.74299144744873,39.444740295410156,-9.105850219726562,-45.249820709228516
1,1075963,-16.837467193603516,-14.136259078979492,19.329103469848633,-23.369796752929688
