Aktueller Finger,timestamp_ms,sensor_0,sensor_1,sensor_2,sensor_3
0,1614975,-4.4717116355896,-43.81599044799805,-18.289287567138672,22.25718879699707
0,1614976,-42.562007904052734,-133.25149536132812,-12.121298789978027,8.445015907287598
0,1614977,-10.064992904663086,71.09974670410156,5.014650821685791,-39.23788833618164
0,1614980,52.693328857421875,64.8691177368164,-19.038745880126953,20.759456634521484
0,1614981,36.108028411865234,-43.15894317626953,17.069541931152344,16.85789680480957
0,1614984,-39.015377044677734,-0.46070727705955505,11.596510887145996,-59.29401397705078
0,1614985,-47.34364318847656,-11.147759437561035,-44.851993560791016,-37.87723922729492
0,1614988,18.06448745727539,-30.24965476989746,15.132174491882324,128.92050170898438
0,1614989,11.09830379486084,13.418597221374512,34.176361083984375,68.24783325195312
0,1614992,0.3895275592803955,59.31074905395508,-24.74085807800293,-110.1645736694336
0,1614993,39.94424819946289,44.24228286743164,18.53179359436035,-23.695518493652344
0,1614996,-14.23852825164795,-71.9772720336914,1.7604602575302124,45.386051177978516
0,1614997,-26.129732131958008,-27.133346557617188,-42.12300491333008,-14.740080833435059
0,1615252,3.2092785835266113,98.32013702392578,26.447538375854492,-22.700899124145508
0,1615255,-5.023540496826172,114.00048065185547,3.443570613861084,-21.480493545532227
0,1615256,28.801063537597656,5.4064226150512695,-25.276714324951172,11.050673484802246
0,1615259,5.903532981872559,-201.46975708007812,36.03407287597656,32.825016021728516
0,1615260,-4.274875164031982,-142.47085571289062,16.360153198242188,-1.709652304649353
0,1615263,-0.016872402280569077,5.470919132232666,-16.379039764404297,19.12700653076172
0,1615264,-31.68743133544922,0.6689161658287048,-10.754450798034668,-21.458759307861328
0,1615267,29.021665573120117,69.04972839355469,3.0232815742492676,-37.23988342285156
0,1618443,-5.6082587242126465,98.27045440673828,25.628887176513672,8.171002388000488
0,1618444,-39.368812561035156,37.38552474975586,-3.4928293228149414,2.3223485946655273
0,1618445,26.567087173461914,2.816967487335205,-32.26911926269531,9.799844741821289
0,1618448,2.2670955657958984,59.84745407104492,-43.7750358581543,-4.010888576507568
0,1618449,1.4898215532302856,23.710102081298828,6.030674457550049,39.10982894897461
0,1618452,-8.494030952453613,-164.291259765625,55.349979400634766,22.74195098876953
0,1618453,6.170109748840332,-16.78521728515625,52.49651336669922,-36.6755485534668
0,1618456,113.59210205078125,104.76264190673828,33.2789421081543,10.004232406616211
0,1618457,-9.18908405303955,-142.86985778808594,-70.45928192138672,-1.3181034326553345
0,1618460,-159.40689086914062,-56.7064208984375,-84.69120025634766,-23.110244750976562
0,1618461,6.51073694229126,138.03517150878906,4.842795372009277,-6.4464111328125
0,1618464,57.560699462890625,25.505640029907227,34.816471099853516,-5.33351993560791
0,1618465,-13.66065502166748,-36.65278244018555,20.14051628112793,-6.126922607421875
0,1618468,-4.838966369628906,62.50212097167969,-13.552319526672363,2.800779104232788
0,1618469,45.890506744384766,101.22338104248047,-0.8980591893196106,29.961475372314453
0,1618472,-10.658622741699219,-135.41525268554688,21.147167205810547,12.14306354522705
0,1618473,-107.3555679321289,-177.69686889648438,-19.663095474243164,-104.84717559814453
0,1618476,42.772098541259766,74.04547119140625,-18.283187866210938,7.296140193939209
0,1618477,48.512088775634766,48.955833435058594,5.944399356842041,166.21621704101562
0,1618480,-11.851022720336914,2.393869400024414,7.5821919441223145,-51.6533317565918
0,1618481,33.313419342041016,70.14219665527344,45.48578643798828,-78.8454360961914
0,1618484,-41.2458610534668,-4.0007405281066895,13.14432430267334,48.3358154296875
0,1618485,-6.251262187957764,-31.171157836914062,-44.66242599487305,-10.683916091918945
0,1618488,18.088520050048828,53.61990737915039,-8.163816452026367,14.694499015808105
0,1618489,-28.3509521484375,29.774124145507812,-1.8735382556915283,46.355560302734375
0,1618492,22.65947723388672,-107.33006286621094,14.355874061584473,-32.10639190673828
0,1618493,17.466825485229492,-75.14192962646484,15.327629089355469,-42.54938888549805
0,1618496,-22.673006057739258,93.09417724609375,-23.837230682373047,12.125019073486328
0,1618498,-8.851092338562012,50.17965316772461,-7.705627918243408,11.627973556518555
0,1618500,12.30224609375,-95.30083465576172,13.610502243041992,-5.745518207550049
0,1618502,21.534591674804688,22.204051971435547,29.42593765258789,-31.092252731323242
0,1618504,2.311070680618286,59.200355529785156,5.146322727203369,13.19123649597168
0,1618506,2.3942630290985107,-27.597801208496094,-54.95957946777344,30.562021255493164
0,1618508,6.90600061416626,53.23451232910156,-10.206753730773926,-19.997922897338867
0,1618510,-39.00392532348633,-28.968660354614258,34.374900817871094,-8.242293357849121
0,1618512,-16.9605655670166,-81.9072265625,-28.248916625976562,1.0706353187561035
0,1618514,21.25463104248047,21.685625076293945,17.911298751831055,36.0523567199707
0,1618516,8.63782787322998,11.537196159362793,30.246280670166016,-17.584970474243164
0,1618518,3.5650811195373535,13.431492805480957,-46.03333282470703,-45.56464767456055
0,1618520,-34.7567024230957,31.452075958251953,32.16507339477539,59.722076416015625
0,1618522,2.4137988090515137,2.102585792541504,12.259821891784668,3.8898608684539795
0,1618524,47.50946807861328,-42.431880950927734,-37.096439361572266,-57.69381332397461
0,1618526,22.68355369567871,3.6492276191711426,43.36349105834961,24.04517936706543
0,1618528,12.292460441589355,80.79265594482422,-25.79568862915039,29.202131271362305
0,1618530,-25.268518447875977,-16.69855499267578,-26.835960388183594,14.58673095703125
0,1618532,-15.827559471130371,-75.40776824951172,57.118980407714844,8.677753448486328
0,1618534,-14.095011711120605,-50.55670928955078,-3.0263583660125732,-25.812252044677734
0,1618536,11.462979316711426,29.489696502685547,-48.63103103637695,-14.353876113891602
0,1618537,17.877643585205078,72.46356201171875,-6.020188808441162,-26.937278747558594
0,1618540,-27.064952850341797,-3.8722808361053467,8.312867164611816,-10.243645668029785
0,1618541,-9.890629768371582,-16.737857818603516,25.720680236816406,26.097652435302734
0,1618544,0.8995539546012878,-44.742122650146484,25.300622940063477,18.176204681396484
0,1618545,17.66575050354004,-9.77515697479248,-38.138668060302734,-1.2795131206512451
0,1618548,8.03171157836914,83.21916198730469,-52.087684631347656,-55.554988861083984
0,1618549,-50.4354133605957,39.418663024902344,7.988425254821777,-16.001914978027344
0,1618552,-10.734556198120117,-66.87863159179688,81.2454833984375,73.89995574951172
0,1618553,70.4132080078125,-43.585960388183594,19.83742904663086,22.392892837524414
0,1618556,-7.917015075683594,23.966962814331055,-72.27083587646484,-44.72126770019531
0,1618557,-51.21586227416992,-26.593883514404297,-24.869314193725586,-5.715142726898193
0,1618560,6.760711193084717,-32.03306198120117,37.13779830932617,42.063690185546875
0,1618562,16.360523223876953,64.91509246826172,20.55852508544922,12.906161308288574
0,1618564,15.92842960357666,53.51206588745117,-15.902348518371582,-37.55348587036133
0,1618566,26.961246490478516,-35.8337287902832,8.548908233642578,-12.429515838623047
0,1618568,0.9065685272216797,-1.403259038925171,11.827006340026855,-5.942630767822266
0,1618570,-47.368900299072266,24.949787139892578,-23.65643310546875,-13.16045093536377
0,1618572,4.079117298126221,-66.85631561279297,6.653866767883301,36.32072448730469
0,1618574,15.17533016204834,-20.302608489990234,6.448498249053955,12.966955184936523
0,1618576,-14.12642765045166,88.43529510498047,-16.75789451599121,-17.633220672607422
0,1618578,28.31915283203125,28.341272354125977,-4.617929458618164,-9.817802429199219
0,1618580,-19.113920211791992,-25.934736251831055,-8.333354949951172,-22.333202362060547
0,1618582,-24.22831153869629,-24.140682220458984,20.148658752441406,18.469676971435547
0,1618584,15.674327850341797,-45.78560256958008,34.18183517456055,37.47380065917969
0,1618586,-25.323213577270508,-35.90031814575195,-29.36526107788086,-6.127609729766846
0,1618588,36.8990364074707,82.75729370117188,-4.797816276550293,-12.591336250305176
0,1618590,31.833688735961914,52.284114837646484,21.539474487304688,-4.3056254386901855
0,1618592,-73.97250366210938,-99.98562622070312,-19.548999786376953,-3.8921799659729004
0,1618594,20.0816707611084,6.795145511627197,4.3015265464782715,-6.0417399406433105
0,1618596,56.81929016113281,26.378124237060547,2.652269124984741,0.5587545037269592
0,1618598,-23.493183135986328,-37.807315826416016,28.600130081176758,24.754287719726562
0,1618600,-13.298831939697266,49.470985412597656,9.58152961730957,-10.940741539001465
0,1618602,4.04486608505249,11.999405860900879,-56.80353927612305,-24.05401611328125
0,1618604,12.034466743469238,-47.023826599121094,-6.096378803253174,14.064876556396484
0,1618606,-5.021359443664551,-16.37799835205078,27.70458984375,-8.240391731262207
0,1618608,-4.973379135131836,67.76293182373047,-10.540635108947754,7.053748607635498
0,1618610,-7.672268390655518,45.95743942260742,-37.48301696777344,20.94734764099121
0,1618612,-31.353317260742188,-119.34310913085938,2.3308417797088623,-6.0255937576293945
0,1618614,31.608531951904297,-52.52900314331055,25.20223617553711,-17.12710952758789
0,1618616,21.882272720336914,90.00363159179688,12.335704803466797,-16.943090438842773
0,1618618,-57.32982635498047,42.91789245605469,1.3759958744049072,2.545851945877075
0,1618620,3.49029803276062,2.6391525268554688,-2.934659004211426,13.115767478942871
0,1618622,41.94488525390625,-9.169785499572754,2.234635591506958,13.763045310974121
0,1618624,9.411938667297363,-61.03423309326172,-13.178489685058594,1.3379818201065063
0,1618626,-7.258750915527344,-45.3696403503418,3.031029224395752,8.874579429626465
0,1618628,-17.52330780029297,81.41566467285156,3.699277400970459,7.8748698234558105
0,1618630,8.02844524383545,75.59559631347656,1.2999069690704346,-14.316041946411133
0,1618632,3.571833610534668,-87.81759643554688,23.580718994140625,-6.709810733795166
0,1618634,-26.195964813232422,-30.242053985595703,2.270656108856201,7.245082378387451
0,1618636,28.782136917114258,59.845890045166016,-19.409738540649414,8.089364051818848
0,1618639,28.458948135375977,-26.64967918395996,-19.322147369384766,-24.621326446533203
0,1618639,-59.01954650878906,-12.452136993408203,-1.785801649093628,-31.028705596923828
0,1618642,-5.974301815032959,42.88312530517578,27.69025230407715,29.732736587524414
0,1618643,44.61137390136719,-26.864990234375,13.606149673461914,22.811094284057617
0,1618646,2.7253551483154297,-41.10260009765625,-26.015993118286133,-24.45561408996582
0,1618647,-25.164012908935547,77.93993377685547,-6.915826320648193,-2.0583293437957764
0,1618650,-24.51880645751953,14.386544227600098,23.09735107421875,-9.531512260437012
0,1618651,24.962078094482422,-74.07379913330078,-13.339582443237305,9.605334281921387
0,1618654,10.216761589050293,-1.5278435945510864,-23.061458587646484,37.40224075317383
0,1618655,-10.443400382995605,16.11676025390625,19.57587242126465,-28.37841033935547
0,1618658,12.059938430786133,18.636157989501953,25.83774185180664,10.561957359313965
0,1618659,6.198747158050537,9.531290054321289,-6.741379261016846,24.157989501953125
0,1618662,7.3933024406433105,-4.90817928314209,-23.84392547607422,-41.212955474853516
0,1618663,-24.730424880981445,-47.434329986572266,-26.274532318115234,-1.476831316947937
0,1618666,-11.408602714538574,-25.23566246032715,6.297882080078125,1.126565933227539
0,1618667,21.85794448852539,71.77511596679688,37.30248260498047,-4.47526216506958
0,1618670,-1.5008798837661743,16.512495040893555,3.294048309326172,24.67764663696289
0,1618671,3.1410064697265625,-34.441810607910156,-0.5654596090316772,12.898292541503906
0,1618674,-2.3560149669647217,-0.21944956481456757,7.5870490074157715,-7.8800554275512695
0,1618675,-19.421079635620117,9.062935829162598,-10.58415412902832,-22.278114318847656
0,1618678,3.996108293533325,8.686125755310059,-5.6804022789001465,-5.759494304656982
0,1618679,8.690176010131836,-9.544929504394531,-4.65455961227417,16.808774948120117
0,1618682,-9.129494667053223,-21.96282386779785,-7.086118698120117,15.775436401367188
0,1618683,0.6054084897041321,-10.531907081604004,11.227617263793945,-0.5847891569137573
0,1618686,16.520599365234375,5.6341633796691895,10.353665351867676,-8.624855041503906
0,1618687,14.337942123413086,53.81582260131836,-7.462156772613525,-37.75495910644531
0,1618690,-13.902036666870117,13.503791809082031,-12.13702392578125,-2.467672348022461
0,1618691,-4.503920078277588,-63.318538665771484,-4.222140312194824,55.93162155151367
0,1618694,11.191839218139648,-20.670608520507812,11.470605850219727,-11.5524320602417
0,1618695,-18.13899803161621,37.28761672973633,1.7483203411102295,-32.25243377685547
0,1618698,5.075170516967773,41.377925872802734,-0.45136529207229614,10.33036994934082
0,1618699,18.342010498046875,-15.013083457946777,2.329599380493164,12.020967483520508
0,1618702,11.251649856567383,0.17401403188705444,-11.903229713439941,-6.822691440582275
0,1618703,-2.190894603729248,-10.744532585144043,21.647661209106445,-4.527634620666504
0,1618706,-46.33457946777344,-55.3753547668457,-0.18252718448638916,-1.7686604261398315
0,1618707,-2.3414697647094727,47.253082275390625,-29.077129364013672,3.208860397338867
0,1618710,29.369104385375977,35.00831985473633,23.294984817504883,45.46372604370117
0,1618711,-6.259130954742432,-53.53521728515625,-3.1678810119628906,-4.959850311279297
0,1618714,-13.316234588623047,-25.621431350708008,-8.04403305053711,-71.47345733642578
0,1618715,0.9866958856582642,23.525089263916016,11.449960708618164,-7.587034702301025
0,1618718,5.586649417877197,33.311195373535156,-28.142406463623047,30.309314727783203
0,1618719,-13.304874420166016,-14.455867767333984,-8.106796264648438,25.6407470703125
0,1618722,7.0663862228393555,-2.8214170932769775,42.37700653076172,0.30581754446029663
0,1618723,5.367048740386963,-21.894926071166992,7.540605068206787,-3.5585978031158447
0,1618726,-7.331076622009277,-11.287288665771484,-30.701671600341797,-1.1498425006866455
0,1618727,15.745123863220215,81.5580825805664,5.641206741333008,-28.011993408203125
0,1618730,-4.363832473754883,-35.661502838134766,-2.110809087753296,22.399967193603516
0,1618731,11.696869850158691,-46.4532356262207,6.143797874450684,23.444171905517578
0,1618734,-2.610680103302002,42.39143371582031,15.223990440368652,-12.703001022338867
0,1618735,-29.018413543701172,-15.15050220489502,-31.910076141357422,-19.450252532958984
0,1618738,25.85476303100586,-4.214755535125732,-3.839937686920166,-3.3938405513763428
0,1618739,16.238811492919922,17.412580490112305,28.985504150390625,13.119962692260742
0,1618742,-29.856487274169922,-3.694383382797241,-18.59146499633789,-10.75993537902832
0,1618743,-4.244261264801025,-27.01646614074707,5.346064567565918,12.865153312683105
0,1618746,22.720447540283203,-9.393911361694336,42.56057357788086,39.691162109375
0,1618747,-14.12526798248291,59.32516860961914,-27.94813346862793,-28.083480834960938
0,1618750,-1.3334159851074219,26.255552291870117,-39.38874435424805,-68.64894104003906
0,1618751,31.949583053588867,-37.80086898803711,23.563079833984375,-16.010696411132812
0,1618754,-9.87155532836914,-25.266992568969727,6.525610446929932,35.88975524902344
0,1618755,-19.704835891723633,-7.911840438842773,-20.511503219604492,58.159236907958984
0,1618758,10.91275405883789,14.165223121643066,21.55427360534668,22.772987365722656
0,1618759,-6.10745906829834,-6.523623466491699,16.299034118652344,-14.246925354003906
0,1618762,-27.699159622192383,16.834009170532227,-27.352096557617188,-41.99298858642578
0,1618763,6.965522766113281,-6.747389316558838,5.939050197601318,-12.105899810791016
0,1618766,12.685759544372559,-41.95780563354492,14.898581504821777,20.949644088745117
0,1618767,1.6495916843414307,64.21239471435547,-18.178680419921875,-21.040992736816406
0,1618770,6.886499404907227,20.929616928100586,5.840518951416016,23.013303756713867
0,1618771,-23.821304321289062,-63.76442337036133,-7.729772567749023,23.225191116333008
0,1618774,3.2942123413085938,-16.730342864990234,4.59368371963501,-37.64720916748047
0,1618775,43.22556686401367,17.203662872314453,12.72867488861084,9.29517650604248
0,1618778,1.9626057147979736,31.657432556152344,-19.993309020996094,21.756465911865234
0,1618779,-23.0809326171875,6.143363952636719,11.059388160705566,-20.373733520507812
0,1618782,-2.9444053173065186,-4.1216583251953125,19.123489379882812,-24.848751068115234
0,1618783,23.706445693969727,-7.2919840812683105,-9.074052810668945,23.20026206970215
0,1618786,-18.54087257385254,-17.50349235534668,-17.537145614624023,23.812747955322266
0,1618787,-46.16848373413086,38.96702575683594,3.8247768878936768,-43.37533187866211
0,1618790,29.161828994750977,6.463109016418457,15.907876968383789,-9.54350757598877
0,1618791,28.21019744873047,-48.58259582519531,10.790534019470215,47.379913330078125
0,1618794,-21.19906997680664,-6.767681121826172,3.6633493900299072,14.04976749420166
0,1618795,4.675839900970459,23.326990127563477,-23.360795974731445,-39.023414611816406
0,1618798,12.496874809265137,26.1413631439209,-29.69548797607422,-18.779319763183594
0,1618799,-26.131738662719727,-17.765966415405273,2.9579246044158936,20.633567810058594
0,1618802,11.74283218383789,-12.720062255859375,15.142718315124512,6.827498435974121
0,1618803,31.618972778320312,-11.302449226379395,-2.51777982711792,0.09733875095844269
0,1618806,-43.835655212402344,-32.65155029296875,25.29249382019043,7.733339309692383
0,1618807,-27.015026092529297,36.87605285644531,21.949140548706055,17.838350296020508
0,1618810,25.655574798583984,29.484432220458984,-21.91016387939453,-17.791545867919922
0,1618811,12.80944538116455,-9.877164840698242,-3.1836023330688477,-19.511432647705078
0,1618814,22.505205154418945,-37.52000045776367,-23.018720626831055,8.575006484985352
0,1618815,7.700020790100098,2.656973361968994,-26.00704002380371,-35.092864990234375
0,1618818,-12.004860877990723,71.62393188476562,35.061832427978516,23.98617172241211
0,1618819,-4.149199962615967,-20.69631576538086,11.440564155578613,60.26405334472656
0,1618822,-19.96571159362793,-35.55870819091797,-13.518585205078125,-20.614625930786133
0,1618823,-3.2927403450012207,-13.365796089172363,-15.604839324951172,-28.494609832763672
0,1618826,5.221067428588867,-18.322315216064453,-4.167820453643799,-6.813717365264893
0,1618827,3.6847503185272217,57.5911865234375,14.66801643371582,-26.69952964782715
0,1618830,1.5156886577606201,9.113485336303711,6.21211051940918,27.65807342529297
0,1618831,-11.655172348022461,-87.47357177734375,7.603741645812988,44.99610900878906
0,1618834,20.878551483154297,20.156158447265625,-19.179513931274414,-28.562082290649414
0,1618835,10.657211303710938,94.37909698486328,22.408967971801758,18.51935577392578
0,1618838,-35.52713394165039,-12.225576400756836,40.13180923461914,-4.924386501312256
0,1618839,-21.43630027770996,-41.65394973754883,-23.87462615966797,-62.816383361816406
0,1618842,27.631078720092773,21.21600914001465,-26.263185501098633,41.97420120239258
0,1618843,39.47489929199219,13.008399963378906,12.6934175491333,44.19240951538086
0,1618846,-5.316545486450195,-57.82071304321289,2.822169303894043,-75.85462188720703
0,1618847,-13.129244804382324,-6.490546226501465,-39.504859924316406,-33.60451889038086
0,1618850,1.1407593488693237,41.80469512939453,-6.7866740226745605,66.14295959472656
0,1618851,-26.354034423828125,-19.670650482177734,31.79684066772461,-7.474977493286133
0,1618854,-29.552011489868164,-7.4743332862854,-4.084467887878418,-32.25102996826172
0,1618855,27.20500946044922,19.79231834411621,-9.381011009216309,58.388160705566406
0,1618858,35.60967254638672,13.927841186523438,39.58869552612305,22.110572814941406
0,1618859,-6.663050651550293,-6.402430057525635,-18.933876037597656,-37.83073043823242
0,1618862,-7.008596897125244,-22.196571350097656,-26.159379959106445,-42.91912841796875
0,1618863,3.37955641746521,-10.091140747070312,70.21527099609375,16.50338363647461
0,1618866,-2.5195069313049316,19.30290985107422,-3.2542359828948975,65.62908172607422
0,1618867,6.1664719581604,51.02020263671875,-85.58491516113281,20.258394241333008
0,1618870,-15.65707778930664,-18.006710052490234,-8.521917343139648,-38.56390380859375
0,1618871,-14.638092041015625,-59.044124603271484,63.2260856628418,-56.23027801513672
0,1618874,45.849849700927734,13.143745422363281,9.913566589355469,31.453908920288086
0,1618875,-6.353228569030762,7.820811748504639,-37.561275482177734,-4.55065393447876
0,1618878,-52.55343246459961,2.0614097118377686,11.345039367675781,-44.59581756591797
0,1618879,9.312346458435059,10.838165283203125,-3.81923246383667,43.976707458496094
0,1618882,18.706151962280273,-25.476396560668945,-27.70121192932129,12.03264331817627
0,1618883,19.198352813720703,-2.6049857139587402,25.65381622314453,-16.40349006652832
0,1618886,4.267576694488525,15.661874771118164,6.486367225646973,1.1378421783447266
0,1618887,-29.67218017578125,35.4204216003418,1.8381227254867554,-15.14399242401123
0,1618890,1.9465090036392212,-11.383212089538574,36.9586067199707,56.385433197021484
0,1618891,18.44048309326172,-64.82939147949219,-15.283447265625,51.57326889038086
0,1618894,-10.066048622131348,31.64601707458496,-46.90839385986328,-116.07894134521484
0,1618895,0.7516171336174011,45.89383316040039,-21.75090980529785,-87.43106079101562
0,1618898,7.543047904968262,-20.67575454711914,18.09031867980957,102.0162582397461
0,1618899,-41.59653091430664,-30.350690841674805,49.1505241394043,82.09342956542969
0,1618902,-5.209325313568115,27.29132080078125,10.805436134338379,-39.029876708984375
0,1618903,54.276859283447266,32.36219024658203,-27.47884178161621,-9.540301322937012
0,1618906,-9.13115119934082,-47.02292251586914,1.121393084526062,5.427932262420654
0,1618907,-48.34520721435547,6.96446418762207,16.242637634277344,-36.39335632324219
0,1618910,42.16707992553711,47.377296447753906,-3.9393863677978516,1.1844490766525269
0,1618911,21.435470581054688,-57.8412971496582,-14.2208890914917,36.13607406616211
0,1618914,-25.16253662109375,-54.59850311279297,-30.08477020263672,-17.70677947998047
0,1618915,32.2216682434082,53.63955307006836,-10.505683898925781,-33.638999938964844
0,1618918,-25.492202758789062,44.015708923339844,49.87109375,29.56150245666504
0,1618919,-23.273799896240234,-0.40079304575920105,41.39066696166992,20.126245498657227
0,1618922,36.95442581176758,1.4242117404937744,-45.2119140625,-21.60715675354004
0,1618923,10.359831809997559,-50.656890869140625,-76.89585876464844,-22.50179672241211
0,1618926,-13.605567932128906,-30.641908645629883,27.385324478149414,-28.703142166137695
0,1618927,-23.082767486572266,68.49002075195312,65.02195739746094,27.304141998291016
0,1618930,-2.7302253246307373,0.9222050309181213,-18.623825073242188,57.86341094970703
0,1618931,-5.5816330909729,-67.79185485839844,-16.452489852905273,-8.081747055053711
0,1618934,0.2560179829597473,-48.60024642944336,-34.9470329284668,-21.628524780273438
0,1618935,36.914756774902344,50.331729888916016,24.71791648864746,2.715240240097046
0,1618938,-4.474982261657715,128.7694549560547,106.02505493164062,3.7194876670837402
0,1618939,-37.86054611206055,-28.40325927734375,-54.0766487121582,-15.400778770446777
0,1618942,6.050826072692871,-55.82972717285156,-60.865699768066406,-20.2756404876709
0,1618943,23.896669387817383,-12.281468391418457,26.262033462524414,-1.4468655586242676
0,1618946,-14.689396858215332,-22.09592628479004,-9.239459991455078,-4.639834880828857
0,1618947,-10.307243347167969,59.643070220947266,14.378644943237305,-5.91110372543335
0,1618950,33.424190521240234,48.514244079589844,32.16444778442383,45.11769485473633
0,1618951,-7.461062431335449,-41.701358795166016,-17.093976974487305,51.466243743896484
0,1618954,-25.676530838012695,-54.03900146484375,-15.845406532287598,-52.006622314453125
0,1618955,11.130753517150879,13.027667045593262,17.43558120727539,-28.730819702148438
0,1618958,8.795336723327637,23.09986686706543,-19.555618286132812,46.61531448364258
0,1618959,17.188072204589844,-26.315052032470703,-44.56996536254883,36.50305938720703
0,1618962,-15.544476509094238,-39.53065872192383,-9.495748519897461,-44.173377990722656
0,1618963,-12.454710960388184,16.761783599853516,57.541770935058594,-76.43328857421875
0,1618966,21.433935165405273,47.119022369384766,19.57819366455078,77.92588806152344
0,1618967,-12.587129592895508,57.06437301635742,-29.60274314880371,9.080289840698242
0,1618970,-21.14226531982422,-27.31928253173828,18.364110946655273,-80.8717041015625
0,1618971,8.139360427856445,-98.0408935546875,21.593233108520508,49.10988998413086
0,1618974,8.529806137084961,33.19951629638672,-3.812013626098633,15.802284240722656
0,1618975,-9.8958101272583,55.733795166015625,-30.24562644958496,-87.61247253417969
0,1618978,3.481943368911743,-23.37013816833496,-4.954085826873779,31.841541290283203
0,1618979,-2.636150360107422,-25.435699462890625,6.534491062164307,107.48319244384766
0,1618982,16.58305549621582,10.6564302444458,-24.689855575561523,-42.2691764831543
0,1618983,24.35763168334961,19.18292808532715,-1.2621209621429443,-29.67771339416504
0,1618986,-12.212592124938965,-12.504672050476074,10.82075023651123,59.33143997192383
0,1618987,-46.85337829589844,-12.113608360290527,4.489044666290283,-7.647442817687988
0,1618990,4.6631317138671875,3.848945140838623,15.281676292419434,-50.186195373535156
0,1618991,50.508705139160156,-1.4873144626617432,28.066797256469727,-18.691490173339844
0,1618994,-12.079151153564453,29.25216293334961,-18.872005462646484,4.1833319664001465
0,1618995,-11.470159530639648,23.290119171142578,-66.59519958496094,26.886472702026367
0,1618998,-11.583473205566406,-36.66400146484375,32.51900863647461,40.098331451416016
0,1618999,-12.102221488952637,-18.09665870666504,70.38755798339844,-11.305169105529785
0,1619002,4.933526992797852,13.774935722351074,-34.209266662597656,-101.01327514648438
0,1619003,10.489862442016602,-19.481945037841797,-25.836572647094727,-25.534631729125977
0,1619006,35.56093215942383,4.572989463806152,41.87774658203125,75.96408081054688
0,1619007,4.124517917633057,75.10308074951172,-14.482068061828613,-1.210384726524353
0,1619010,-23.860687255859375,-35.45563888549805,-45.65349197387695,18.306726455688477
0,1619011,8.290197372436523,-74.87140655517578,26.995952606201172,60.73553466796875
0,1619014,-8.328218460083008,43.13433074951172,39.91600036621094,-33.20738983154297
0,1619015,-22.271459579467773,36.210391998291016,-11.966503143310547,-57.375244140625
0,1619018,1.7637896537780762,-23.76246452331543,-46.88249206542969,23.074886322021484
0,1619019,14.221458435058594,-49.729942321777344,-3.8303937911987305,43.736717224121094
0,1619022,0.7697622179985046,29.990570068359375,41.72587203979492,8.114672660827637
0,1619023,-30.152109146118164,-0.34944355487823486,-19.016550064086914,-30.047395706176758
0,1619026,16.075490951538086,-36.962066650390625,-19.218067169189453,-57.4815559387207
0,1619027,17.69672203063965,80.23200225830078,28.56121063232422,5.0659308433532715
0,1619030,-12.23876667022705,8.290177345275879,11.345928192138672,53.402442932128906
0,1619031,2.5316929817199707,-62.62022018432617,-17.13850212097168,3.921409845352173
0,1619034,25.09231185913086,-8.362138748168945,-57.21189498901367,-54.12614440917969
0,1619035,4.275829315185547,21.29596519470215,15.044782638549805,-3.6148829460144043
0,1619038,-40.186031341552734,47.64593505859375,67.50688171386719,26.216781616210938
0,1619039,18.51833724975586,4.843186378479004,2.033207416534424,-2.454489231109619
0,1619042,13.98167610168457,-38.842506408691406,-8.369647979736328,36.03955841064453
0,1619043,-20.396451950073242,-31.736068725585938,-17.050996780395508,4.3895792961120605
0,1619046,0.28623121976852417,-27.237682342529297,-35.804222106933594,-31.766216278076172
0,1619047,4.251986026763916,68.55799865722656,14.619039535522461,-11.077566146850586
0,1619050,7.000452041625977,59.70897674560547,42.90410232543945,25.402706146240234
0,1619051,-14.641763687133789,-91.45851135253906,-22.873830795288086,24.435501098632812
0,1619054,-17.666364669799805,-31.791915893554688,-1.1543927192687988,-17.454851150512695
0,1619055,0.7268919348716736,83.45094299316406,8.180996894836426,-17.161527633666992
0,1619058,21.763647079467773,7.792922496795654,-35.371498107910156,-31.49444580078125
0,1619059,3.302873373031616,-55.71551513671875,14.259263038635254,4.783386707305908
0,1619062,-19.799867630004883,-1.0077396631240845,5.424506187438965,42.995018005371094
0,1619063,3.4677352905273438,-2.7114784717559814,28.731830596923828,23.240367889404297
0,1619066,11.9843111038208,13.845542907714844,12.544964790344238,-7.463734149932861
0,1619067,-4.15308952331543,55.25379943847656,-94.63081359863281,-80.42443084716797
0,1619070,-14.3516263961792,-50.778907775878906,-4.936556816101074,5.9769415855407715
0,1619071,5.688160419464111,-53.01302719116211,121.73517608642578,109.0040512084961
0,1619074,22.83363151550293,19.539003372192383,-0.1073649674654007,-24.19895362854004
0,1619075,10.775710105895996,15.819931983947754,-92.41046905517578,-51.93313217163086
0,1619078,-2.066009283065796,47.718719482421875,27.794677734375,15.217121124267578
0,1619079,-0.1554567962884903,17.2992000579834,56.68764877319336,-31.44005012512207
0,1619082,-21.48318862915039,-15.333014488220215,-21.92520523071289,-20.679149627685547
0,1619083,-20.210861206054688,-39.47577667236328,-46.541168212890625,42.27473831176758
0,1619086,38.956512451171875,-15.817913055419922,-31.540327072143555,2.5354716777801514
0,1619087,-3.8589699268341064,57.609092712402344,-4.454195976257324,-63.84219741821289
0,1619090,-38.73237991333008,-18.256439208984375,44.966697692871094,-1.8220731019973755
0,1619091,46.906314849853516,-27.03462791442871,48.27457809448242,81.39270782470703
0,1619094,-0.4640635550022125,-0.9854657649993896,-28.0041446685791,48.70652770996094
0,1619095,-27.326322555541992,2.9832184314727783,-25.289806365966797,1.402538537979126
0,1619098,20.499773025512695,26.661651611328125,40.54391860961914,-64.31201171875
0,1619099,-39.303260803222656,-33.9795036315918,0.31150203943252563,-67.28638458251953
0,1619102,-12.194868087768555,-4.206101894378662,-27.82966423034668,73.50584411621094
0,1619103,45.35518264770508,0.6860385537147522,31.327890396118164,71.24626159667969
0,1619106,15.099067687988281,21.39013671875,5.585280418395996,-57.87202835083008
0,1619107,-4.173480987548828,81.12319946289062,-64.73824310302734,-48.50356674194336
0,1619110,-13.115221977233887,-31.098119735717773,4.128357410430908,14.809884071350098
0,1619111,-17.448450088500977,-97.25909423828125,35.65837097167969,26.155397415161133
0,1619114,-10.336607933044434,3.557818651199341,-19.513620376586914,25.33316421508789
0,1619115,32.781532287597656,48.867923736572266,7.256861686706543,-44.60689926147461
0,1619118,4.610004901885986,-2.195618152618408,-7.905062675476074,-63.076866149902344
0,1619119,-26.251075744628906,24.602487564086914,9.705208778381348,71.19564056396484
0,1619122,35.513580322265625,17.184812545776367,27.542078018188477,35.11252975463867
0,1619123,-9.351103782653809,-100.25074005126953,-25.663198471069336,-35.18229293823242
0,1619126,-25.044416427612305,-29.51767349243164,-6.127884864807129,28.257694244384766
0,1619127,1.7775049209594727,114.45228576660156,-5.272540092468262,-57.93378829956055
0,1619130,-12.20124340057373,14.264180183410645,1.4575384855270386,-19.46932029724121
0,1619131,31.340715408325195,-69.16966247558594,38.08849334716797,67.90811920166016
0,1619134,10.090478897094727,-19.308868408203125,-16.449005126953125,-18.360658645629883
0,1619135,-20.012208938598633,36.735469818115234,-46.922096252441406,14.225434303283691
0,1619138,14.864119529724121,45.5130729675293,-7.763833045959473,-33.23399353027344
0,1619139,-2.8432419300079346,-20.268966674804688,0.2760317325592041,-59.57749938964844
0,1619142,-18.896953582763672,7.012342929840088,48.77001190185547,84.90617370605469
0,1619143,1.489682674407959,-16.904329299926758,53.37228775024414,36.14338684082031
0,1619146,-21.8045597076416,-64.54938507080078,-61.59931945800781,-17.566295623779297
0,1619147,-15.419400215148926,57.23013687133789,-34.572509765625,0.6390885710716248
0,1619150,65.71987915039062,47.22164535522461,71.16960906982422,-14.931032180786133
0,1619151,13.749906539916992,-56.07963562011719,-7.813560485839844,9.731369018554688
0,1619154,-55.1054801940918,-16.958637237548828,-37.888954162597656,-45.1882438659668
0,1619155,18.590431213378906,28.244646072387695,1.031702995300293,-67.2424545288086
0,1619158,17.56672477722168,-6.652960777282715,-28.49193572998047,67.1000747680664
0,1619159,-25.537057876586914,-6.089820861816406,37.4563102722168,97.6945571899414
0,1619162,-26.208267211914062,30.606294631958008,48.51833724975586,-41.22236633300781
0,1619163,16.13632583618164,-13.480857849121094,-25.6816349029541,-33.41877365112305
0,1619166,58.241424560546875,-26.847942352294922,-31.899816513061523,10.010523796081543
0,1619167,-15.982550621032715,38.12941360473633,-25.773801803588867,-32.654903411865234
0,1619170,-54.082950592041016,1.3834208250045776,64.83916473388672,38.709564208984375
0,1619171,23.398061752319336,-47.41399383544922,6.203948974609375,30.896976470947266
0,1619174,1.4371672868728638,-1.7178815603256226,-57.11578369140625,-44.17259979248047
0,1619175,-20.73483657836914,33.54921340942383,64.30330657958984,-10.562950134277344
0,1619178,26.489456176757812,18.642070770263672,-52.48323059082031,-25.768938064575195
0,1619179,10.8077974319458,-2.1294162273406982,-43.80484390258789,-8.936530113220215
0,1619182,-2.1005196571350098,-25.841928482055664,62.52781295776367,34.1407470703125
0,1619183,-6.367420673370361,-40.79775619506836,-15.639577865600586,29.15372085571289
0,1619186,-5.934124946594238,39.77140808105469,5.479881286621094,-4.143723964691162
0,1619187,13.17594051361084,74.90325164794922,10.192499160766602,-32.82872009277344
0,1619190,16.875852584838867,-54.598628997802734,-35.78266525268555,12.60369873046875
0,1619191,-22.28664779663086,-61.07857894897461,-4.810645580291748,-20.451126098632812
0,1619194,-21.456527709960938,47.86164093017578,59.27766799926758,19.70309066772461
0,1619195,19.16394805908203,19.07080078125,20.88401222229004,51.36992263793945
0,1619198,-9.075942039489746,-6.781698226928711,-61.17329406738281,-33.47063064575195
0,1619199,-16.86207389831543,-12.221080780029297,-12.041779518127441,6.6847710609436035
0,1619202,17.997325897216797,-34.49762725830078,24.91371726989746,16.61859130859375
0,1619203,17.35150146484375,-11.03734016418457,-23.213333129882812,-58.242225646972656
0,1619206,1.7292178869247437,49.38652420043945,27.939159393310547,-24.067829132080078
0,1619207,-7.568228244781494,50.51039123535156,37.7348747253418,61.36873245239258
0,1619210,-1.466282844543457,-52.46335220336914,-50.62042236328125,11.224661827087402
0,1619211,-13.920671463012695,-31.307147979736328,-28.633441925048828,-29.344459533691406
0,1619214,3.223332405090332,27.525575637817383,17.11627960205078,-19.18257713317871
0,1619215,34.95168685913086,25.373674392700195,8.383113861083984,-19.061447143554688
0,1619218,-28.837669372558594,3.5160305500030518,4.451699733734131,39.4237174987793
0,1619219,-29.68588638305664,-35.6686897277832,13.849793434143066,39.19500732421875
0,1619222,26.540904998779297,1.8521860837936401,6.484838485717773,-10.290889739990234
0,1619223,9.584978103637695,-10.335945129394531,20.307327270507812,-12.839363098144531
0,1619226,12.886510848999023,-9.231734275817871,17.161876678466797,-38.38581085205078
0,1619227,-9.640719413757324,64.20942687988281,-48.893699645996094,-31.994604110717773
0,1619230,-22.730066299438477,-13.014663696289062,-59.724796295166016,51.8181037902832
0,1619231,6.971362113952637,-98.5850830078125,37.48773956298828,44.97951126098633
0,1619234,13.275115966796875,24.543563842773438,65.5970230102539,-18.564401626586914
0,1619235,-3.084080457687378,62.25952911376953,-42.478580474853516,-38.48959732055664
0,1619238,-17.229394912719727,-26.265146255493164,-32.75416946411133,-8.701135635375977
0,1619239,22.072526931762695,29.86320686340332,30.73040199279785,25.026262283325195
0,1619242,-5.448020935058594,14.234041213989258,14.210615158081055,34.36650848388672
0,1619243,-0.4958648681640625,-64.78142547607422,-6.056844234466553,17.248233795166016
0,1619246,-0.6871882677078247,18.616262435913086,-14.916318893432617,-71.447998046875
0,1619247,-26.940629959106445,68.40279388427734,-10.998566627502441,-78.43788146972656
0,1619250,38.413692474365234,-23.294462203979492,15.587376594543457,92.40534210205078
0,1619251,-7.428554534912109,-69.74203491210938,18.267667770385742,116.91726684570312
0,1619254,-31.262165069580078,15.692220687866211,-1.8405052423477173,-92.466552734375
0,1619255,22.710493087768555,49.5971565246582,-18.390443801879883,-60.01032638549805
0,1619258,13.553238868713379,-4.138243198394775,-2.3012447357177734,54.520381927490234
0,1619259,-16.302587509155273,-21.01424789428711,22.160566329956055,-40.94697570800781
0,1619262,3.3150155544281006,-12.564149856567383,-52.79020690917969,-7.9318766593933105
0,1619263,34.33974838256836,-14.687458992004395,0.12790954113006592,49.48180389404297
0,1619266,-15.856430053710938,28.282758712768555,75.7679214477539,-6.784256935119629
0,1619267,-21.665328979492188,79.49808502197266,-7.338772773742676,-1.6056729555130005
0,1619270,15.477059364318848,-40.408042907714844,-44.076900482177734,-10.343695640563965
0,1619271,-12.239416122436523,-118.40647888183594,-37.45160675048828,-19.719655990600586
0,1619276,-10.356122970581055,12.06330680847168,39.68169021606445,46.982017517089844
0,1619276,0.25042566657066345,60.56279373168945,40.79714584350586,16.913307189941406
0,1619278,-11.658685684204102,30.999048233032227,-26.889680862426758,-59.335777282714844
0,1619279,18.359291076660156,20.426555633544922,5.254490852355957,-19.12871551513672
0,1619282,7.91792106628418,-33.210235595703125,-6.315961837768555,22.532697677612305
0,1619283,-8.034250259399414,-65.79043579101562,-0.9637256264686584,14.165969848632812
0,1619286,-3.1285111904144287,19.243749618530273,9.193546295166016,4.161037445068359
0,1619287,-1.2603776454925537,87.9971923828125,-33.31924819946289,33.28379440307617
0,1619290,11.156515121459961,-47.22056198120117,-0.15269151329994202,27.234025955200195
0,1619291,0.693234920501709,-63.0653076171875,46.050418853759766,-63.728816986083984
0,1619294,1.2233654260635376,46.91978454589844,7.118195533752441,-46.36681365966797
0,1619295,-5.0285258293151855,28.3046875,-46.481693267822266,34.753665924072266
0,1619298,21.55697250366211,16.193185806274414,-6.396918773651123,7.777637958526611
0,1619299,7.469139099121094,-10.04909896850586,35.903953552246094,1.0457098484039307
0,1619302,-44.222206115722656,-28.414819717407227,-5.487900257110596,15.377083778381348
0,1619303,6.266883850097656,-32.23786926269531,-18.960588455200195,-7.525939464569092
0,1619306,6.1668620109558105,22.35564613342285,-7.220874309539795,-5.855547904968262
0,1619307,-14.124999046325684,81.18284606933594,-16.815210342407227,-14.541300773620605
0,1619310,15.919657707214355,-62.2415885925293,13.325498580932617,13.84945297241211
0,1619311,-6.023870944976807,-74.76850128173828,26.232463836669922,26.561803817749023
0,1619314,-7.935299396514893,73.83158111572266,28.30970001220703,-27.856081008911133
0,1619315,-0.7608677744865417,25.42431640625,16.406951904296875,-6.55679988861084
0,1619318,5.918074607849121,-32.370784759521484,-49.56880569458008,9.757587432861328
0,1619319,5.962259292602539,-17.092670440673828,-29.352615356445312,32.629695892333984
0,1619322,8.566286087036133,8.836496353149414,30.178253173828125,41.658172607421875
0,1619323,6.088593482971191,-22.76226806640625,10.709159851074219,-68.8363037109375
0,1619326,-14.701288223266602,-1.4680827856063843,-28.82811737060547,-61.34321594238281
0,1619327,2.807727336883545,75.82637023925781,9.360814094543457,44.32238006591797
0,1619330,2.9203600883483887,-36.80815124511719,33.933006286621094,10.17662525177002
0,1619331,30.286531448364258,-16.015546798706055,-7.744225978851318,-30.711925506591797
0,1619334,-0.765623927116394,13.983989715576172,4.2199602127075195,27.308420181274414
0,1619335,-37.39763259887695,-18.321456909179688,-23.113758087158203,30.897750854492188
0,1619338,19.11682891845703,54.784969329833984,-32.723785400390625,-0.2876737713813782
0,1619339,2.0497794151306152,0.5283522009849548,40.52031707763672,-28.36711883544922
0,1619342,-15.641359329223633,-45.73859786987305,-17.842496871948242,-19.303335189819336
0,1619343,14.301409721374512,-52.47811508178711,-30.55459976196289,41.721500396728516
0,1619346,-19.33090591430664,30.663795471191406,45.95130920410156,-1.3901786804199219
0,1619347,-21.959728240966797,104.58372497558594,21.434114456176758,-58.04330062866211
0,1619350,15.986260414123535,-57.099918365478516,-15.823134422302246,48.65082550048828
0,1619351,0.5390170216560364,-87.9955825805664,-35.01441192626953,78.69818878173828
0,1619354,-6.200375080108643,39.613197326660156,-1.8991612195968628,-73.30231475830078
0,1619355,-3.1341066360473633,35.59831619262695,12.682029724121094,-58.50975036621094
0,1619358,46.50535202026367,13.747031211853027,5.374911308288574,40.877281188964844
0,1619359,26.86428451538086,5.149500846862793,32.94724655151367,29.71034049987793
0,1619362,-56.739383697509766,-27.270614624023438,14.360136032104492,-19.059301376342773
0,1619363,-15.157381057739258,-40.125083923339844,-35.79116439819336,-53.91385269165039
0,1619366,33.494850158691406,35.47324752807617,-33.91499710083008,3.9457945823669434
0,1619367,19.61859893798828,81.44766235351562,28.173946380615234,49.84245681762695
0,1619370,-49.23158645629883,-70.1165542602539,38.78341293334961,28.023468017578125
0,1619371,-20.451980590820312,-62.817222595214844,-20.87214469909668,-17.58607292175293
0,1619374,39.83918762207031,32.63389205932617,-32.23832321166992,-69.2793197631836
0,1619375,-12.52204704284668,33.17164611816406,10.877876281738281,-9.753872871398926
0,1619378,-7.3911824226379395,60.46854019165039,14.507505416870117,78.37617492675781
0,1619379,14.675704002380371,-41.716819763183594,-1.4729775190353394,13.816804885864258
0,1619382,7.5016632080078125,-58.43462371826172,-13.3763427734375,-24.799890518188477
0,1619383,-5.7329559326171875,-29.144189834594727,-4.688398838043213,27.794658660888672
0,1619386,-4.950567722320557,8.971031188964844,12.479353904724121,-0.5760778784751892
0,1619387,21.624401092529297,114.25995635986328,0.6440410614013672,-25.026182174682617
0,1619390,-16.11798095703125,-25.567825317382812,20.540294647216797,-8.175338745117188
0,1619391,-11.554386138916016,-90.76998138427734,17.73481559753418,-6.66091251373291
0,1619394,36.22249984741211,29.154991149902344,-49.275970458984375,-0.8911272287368774
0,1619395,-16.15024757385254,41.6749382019043,-17.902143478393555,-28.049272537231445
0,1619398,-5.2315754890441895,-0.35654565691947937,9.341873168945312,37.611961364746094
0,1619399,30.85272216796875,-2.6704049110412598,-17.46963882446289,57.09831237792969
0,1619402,-17.167404174804688,-13.039586067199707,30.303977966308594,-37.185237884521484
0,1619403,-35.49496841430664,-43.31564712524414,9.590252876281738,-4.2808837890625
0,1619406,-4.491084575653076,23.504724502563477,-29.391937255859375,-28.186763763427734
0,1619407,22.09837532043457,87.31035614013672,25.381549835205078,-39.707298278808594
0,1619410,-17.24837303161621,-23.410747528076172,50.1724739074707,38.24037551879883
0,1619411,-3.339581251144409,-85.24923706054688,-30.760156631469727,13.89006519317627
0,1619414,30.940011978149414,3.4595913887023926,-21.124462127685547,-8.494237899780273
0,1619415,-34.93782043457031,29.082504272460938,17.114315032958984,23.358428955078125
0,1619418,3.6051549911499023,49.996368408203125,-16.103656768798828,18.425296783447266
0,1619419,51.07622528076172,-17.945396423339844,23.900362014770508,-30.24534797668457
0,1619422,-22.58848762512207,-68.72340393066406,-13.916326522827148,-43.33489227294922
0,1619423,-16.608158111572266,-1.929005742073059,-23.40155792236328,-1.8108601570129395
0,1619426,14.236196517944336,42.92203140258789,29.746681213378906,48.26979064941406
0,1619427,-4.269069671630859,69.17405700683594,-24.463350296020508,36.111488342285156
0,1619430,7.776879787445068,-58.88534927368164,-29.50214195251465,-22.578481674194336
0,1619433,12.782642364501953,-105.99172973632812,-5.190925121307373,-40.432960510253906
0,1619434,9.054854393005371,48.76256561279297,24.270540237426758,14.002391815185547
0,1619435,-22.54183578491211,81.99484252929688,38.17052459716797,18.724388122558594
0,1619438,-29.430450439453125,8.858466148376465,-17.131195068359375,-21.393131256103516
0,1619439,33.16968536376953,-12.341414451599121,-23.48304557800293,-30.192033767700195
0,1619442,-7.34550666809082,-9.485650062561035,21.127687454223633,26.81709098815918
0,1619443,-48.97412872314453,-46.228885650634766,14.386948585510254,44.46882629394531
0,1619446,11.22342586517334,8.108562469482422,-17.517223358154297,-56.011863708496094
0,1619447,42.01133728027344,111.5135498046875,-1.0415962934494019,-11.600740432739258
0,1619450,21.710113525390625,-47.481197357177734,-3.5292739868164062,78.23916625976562
0,1619451,-22.413450241088867,-120.97220611572266,17.201141357421875,5.554029941558838
0,1619454,-42.451026916503906,29.126502990722656,-6.70904016494751,-50.491790771484375
0,1619455,33.90387725830078,52.433799743652344,-33.767608642578125,102.14379119873047
0,1619458,49.176185607910156,17.718830108642578,29.694868087768555,-0.9286392331123352
0,1619459,-35.45526123046875,-10.740673065185547,27.753890991210938,-198.18663024902344
0,1619462,-22.53110122680664,-17.83741569519043,-10.389932632446289,46.93690872192383
0,1619463,-8.104357719421387,-14.207917213439941,6.511656761169434,74.91036987304688
0,1619466,13.034651756286621,18.552087783813477,-15.483152389526367,-40.06708908081055
0,1619467,28.9199275970459,51.84174728393555,-49.13099670410156,22.240596771240234
0,1619470,-21.09902572631836,-45.23418426513672,33.68986511230469,-12.179706573486328
0,1619471,-2.800168752670288,-50.28697204589844,52.127174377441406,-11.275012969970703
0,1619474,-17.244834899902344,39.88198471069336,-29.565044403076172,-1.2946008443832397
0,1619475,-28.411563873291016,4.514610290527344,-44.918914794921875,-19.620628356933594
0,1619478,47.54725646972656,16.106304168701172,19.421783447265625,6.393536567687988
0,1619479,-4.758477210998535,-9.628376960754395,0.12444725632667542,21.410219192504883
0,1619482,-49.2538948059082,-53.705142974853516,-36.48967361450195,9.481866836547852
0,1619483,54.758094787597656,-6.791547775268555,62.087806701660156,5.346460342407227
0,1619486,39.32223129272461,30.066577911376953,13.482661247253418,5.09403657913208
0,1619487,-20.950721740722656,88.16156005859375,-65.22351837158203,-19.54319190979004
0,1619490,8.464345932006836,-37.46527862548828,29.56842803955078,10.011433601379395
0,1619491,-21.454423904418945,-86.21772003173828,65.12690734863281,25.87654685974121
0,1619494,-35.419559478759766,62.89982604980469,-26.473268508911133,-4.9266839027404785
0,1619495,34.9246940612793,40.05535888671875,-52.59602737426758,-8.736859321594238
0,1619498,9.061409950256348,-25.245832443237305,25.154565811157227,-25.369176864624023
0,1619499,-46.67205047607422,-11.471447944641113,9.225089073181152,-1.071099877357483
0,1619502,7.334488868713379,-21.40018653869629,-16.29973793029785,43.170921325683594
0,1619503,28.12289810180664,-52.28972625732422,26.82139778137207,28.27920913696289
0,1619506,-4.652353286743164,56.815574645996094,2.4882893562316895,-12.000297546386719
0,1619507,4.668514251708984,102.80066680908203,-47.15629959106445,-57.73850631713867
0,1619510,-13.076781272888184,-87.02989196777344,6.114894390106201,-34.53446578979492
0,1619511,-1.7660681009292603,-61.08604049682617,45.895694732666016,26.153087615966797
0,1619514,14.13458251953125,78.32460021972656,-23.376916885375977,32.59587097167969
0,1619515,4.4788007736206055,10.45287036895752,-36.775413513183594,-5.3277201652526855
0,1619518,31.944082260131836,-18.77280616760254,16.4423828125,-26.932937622070312
0,1619519,-35.7490119934082,-20.57222557067871,1.552762508392334,1.046910285949707
0,1619522,-17.740089416503906,-6.532777786254883,26.901643753051758,47.35167694091797
0,1619523,51.24568176269531,-4.516082286834717,10.762674331665039,0.5457524061203003
0,1619526,-42.34444808959961,5.320984363555908,-56.00235366821289,-50.286705017089844
0,1619527,-35.858604431152344,64.57050323486328,11.602950096130371,27.208646774291992
0,1619530,33.35420227050781,-45.67525100708008,16.41959571838379,23.98063850402832
0,1619531,-2.3773770332336426,-54.7927360534668,12.87483024597168,-25.82514190673828
0,1619534,-15.39830493927002,29.966609954833984,18.15700340270996,-22.411054611206055
0,1619535,3.266533851623535,-13.292576789855957,-37.01887893676758,-9.078512191772461
0,1619538,17.1509952545166,46.52708053588867,-17.734031677246094,21.066913604736328
0,1619539,20.51436424255371,65.71807098388672,29.962646484375,24.822195053100586
0,1619542,-19.1215763092041,-66.19277954101562,57.157779693603516,-1.4053784608840942
0,1619543,-24.499338150024414,-75.16161346435547,-5.197530746459961,-11.758580207824707
0,1619546,31.721118927001953,40.660240173339844,-105.24050903320312,-32.6241340637207
0,1619547,14.49882698059082,52.74251937866211,-37.14057540893555,5.388050556182861
0,1619550,-7.006335258483887,-44.701717376708984,86.81585693359375,79.68490600585938
0,1619551,8.239469528198242,-18.42507553100586,28.800588607788086,-19.86330795288086
0,1619554,16.009422302246094,55.560733795166016,-48.17970275878906,-83.44001770019531
0,1619555,5.008360862731934,-0.03864980489015579,-21.711257934570312,-5.931159496307373
0,1619558,-47.82071304321289,-3.8375771045684814,30.57436180114746,20.73072052001953
0,1619559,-13.3721923828125,-0.39433401823043823,32.747764587402344,18.299171447753906
0,1619562,15.385579109191895,-49.027442932128906,16.775985717773438,62.958778381347656
0,1619563,-17.380022048950195,-31.597070693969727,9.107275009155273,26.787464141845703
0,1619566,15.461220741271973,45.69862365722656,-54.44854736328125,-78.8569107055664
0,1619567,9.47817325592041,69.14331817626953,-28.947643280029297,-35.8454475402832
0,1619570,-19.276105880737305,-53.5820198059082,50.477970123291016,23.350893020629883
0,1619571,-14.772719383239746,-73.28074645996094,31.083515167236328,41.22137451171875
0,1619574,20.990949630737305,22.44786834716797,-58.4349250793457,-0.6694526076316833
0,1619576,32.846527099609375,43.00364303588867,-16.11073875427246,-25.019014358520508
0,1619578,-29.816875457763672,24.386812210083008,52.92181396484375,39.69382858276367
0,1619580,-18.229433059692383,14.688743591308594,-64.89029693603516,-47.38430404663086
0,1619582,2.1764910221099854,-4.579120635986328,-23.554813385009766,-51.398258209228516
0,1619584,11.69750690460205,-32.97067642211914,100.95284271240234,52.576717376708984
0,1619586,37.05238342285156,17.75680160522461,-10.953810691833496,-1.467195987701416
0,1619588,8.548286437988281,42.75534439086914,-70.59585571289062,-9.98726749420166
0,1619589,-20.0234432220459,-32.74043655395508,38.81432342529297,24.420452117919922
0,1619592,-22.28455924987793,-65.53651428222656,63.1359748840332,5.334652900695801
0,1619593,-4.758156776428223,13.002827644348145,-15.335044860839844,26.654460906982422
0,1619596,0.29266104102134705,34.06269073486328,-43.6502685546875,-19.481552124023438
0,1619597,-6.325049877166748,-27.302175521850586,0.03805982321500778,-40.907474517822266
0,1619600,9.992974281311035,9.258360862731934,11.774076461791992,37.18196105957031
0,1619601,6.186688423156738,31.811920166015625,-20.795278549194336,19.579174041748047
0,1619605,-0.1652800738811493,-14.864673614501953,-7.4733195304870605,-61.69648361206055
0,1619605,-3.1583406925201416,-47.66619873046875,6.608055114746094,-36.434993743896484
0,1619608,-7.364043235778809,25.737844467163086,6.531408786773682,51.000038146972656
0,1619609,39.759315490722656,60.45327377319336,30.828697204589844,59.477169036865234
0,1619612,-3.5140576362609863,-51.8749885559082,-2.662703275680542,1.7205547094345093
0,1619613,-57.392520904541016,-10.977791786193848,-1.6848567724227905,-43.8870964050293
0,1619616,36.645668029785156,61.69329833984375,-17.786579132080078,-38.6522216796875
0,1619617,48.147789001464844,-21.574989318847656,-29.48040199279785,9.572668075561523
0,1619620,-47.97587585449219,-22.174734115600586,22.461685180664062,24.944751739501953
0,1619621,-5.010805130004883,19.61948585510254,-6.956457614898682,6.947623252868652
0,1619624,22.96756935119629,-44.850955963134766,-13.692028045654297,18.796939849853516
0,1619625,-52.56975173950195,-24.29822540283203,-11.594521522521973,-34.48671340942383
0,1619628,11.21861457824707,64.49653625488281,20.751232147216797,-30.34269905090332
0,1619629,30.329208374023438,6.071753978729248,23.75636100769043,31.33509063720703
0,1619632,-20.37380027770996,-49.2270393371582,-33.126461029052734,15.165889739990234
0,1619633,-10.089737892150879,25.08970069885254,16.592201232910156,13.446430206298828
0,1619636,-12.676471710205078,20.40643882751465,33.63507080078125,-15.385133743286133
0,1619637,29.422521591186523,-18.321317672729492,-28.56466293334961,-20.47358512878418
0,1619640,31.115694046020508,21.02515983581543,-23.849252700805664,15.09756088256836
0,1619641,-1.9760444164276123,-2.5675790309906006,48.48139572143555,25.657461166381836
0,1619644,-16.892112731933594,-43.92525863647461,16.07676887512207,0.8022112846374512
0,1619645,-28.092283248901367,34.06959533691406,-37.24972915649414,-58.885353088378906
0,1619648,6.660037040710449,38.7121696472168,0.28139641880989075,8.071147918701172
0,1619649,22.018220901489258,-79.13827514648438,-21.132312774658203,46.12399673461914
0,1619652,7.4820733070373535,-22.127365112304688,-7.335324287414551,-34.018131256103516
0,1619653,-3.826890707015991,69.9747085571289,26.87775993347168,-14.551525115966797
0,1619656,-20.809206008911133,22.40640640258789,-3.1002397537231445,22.457313537597656
0,1619657,5.744815826416016,-20.92434310913086,4.512389183044434,17.677194595336914
0,1619660,16.930641174316406,-6.868141174316406,20.12778663635254,14.252997398376465
0,1619661,-33.424888610839844,5.37075138092041,22.562931060791016,2.385223627090454
0,1619664,-2.5902955532073975,-34.77901840209961,-8.455995559692383,-15.675749778747559
0,1619665,25.849611282348633,19.39729881286621,-27.34934425354004,-8.170013427734375
0,1619668,-13.613236427307129,46.98758316040039,-12.299503326416016,-14.56246280670166
0,1619669,-8.71642780303955,-60.6341667175293,-50.167850494384766,-9.606597900390625
0,1619672,20.7421817779541,-32.960025787353516,2.3923022747039795,16.27070426940918
0,1619673,8.024375915527344,63.5062141418457,78.08003234863281,8.14480972290039
0,1619676,-12.352523803710938,19.357501983642578,-3.5877254009246826,-14.511234283447266
0,1619677,8.387102127075195,-37.35457229614258,-27.564340591430664,-18.891382217407227
0,1619680,3.624866008758545,-13.127178192138672,15.776189804077148,18.35441017150879
0,1619681,-18.35319709777832,-8.515955924987793,1.5771251916885376,11.351282119750977
0,1619684,-4.176753520965576,-17.290307998657227,-11.155157089233398,-2.711357593536377
0,1619685,16.66744041442871,46.12910842895508,-24.515958786010742,-13.31456470489502
0,1619688,8.964216232299805,74.4524917602539,16.96590232849121,8.153348922729492
0,1619689,-13.339296340942383,-48.672325134277344,26.183115005493164,33.742164611816406
0,1619692,-7.776608943939209,-89.6056900024414,-12.271424293518066,-19.97283935546875
0,1619693,5.085284233093262,18.04140281677246,-15.972769737243652,-18.632383346557617
0,1619696,-0.5858516693115234,57.5880241394043,-32.3323974609375,4.301296710968018
0,1619697,4.950152397155762,1.5066815614700317,1.2179956436157227,-26.73233985900879
0,1619700,-1.3652626276016235,-4.636345863342285,28.401832580566406,10.79568862915039
0,1619701,-3.19631290435791,-14.755019187927246,5.959920883178711,27.304656982421875
0,1619704,10.233920097351074,-60.31090545654297,16.36956787109375,3.2788524627685547
0,1619705,-13.454866409301758,57.51163101196289,19.224773406982422,17.84041976928711
0,1619708,-4.863215446472168,88.34647369384766,-3.4632656574249268,-13.125264167785645
0,1619709,20.20468521118164,-75.54232788085938,-9.72841739654541,4.6732354164123535
0,1619712,-4.0541300773620605,-48.18254089355469,-20.48396110534668,6.502836227416992
0,1619713,-10.137055397033691,47.64739227294922,-20.34354591369629,-41.39378356933594
0,1619716,-3.0938384532928467,11.364837646484375,19.603256225585938,-11.01033878326416
0,1619717,7.338510513305664,3.789839029312134,39.68423080444336,37.5390510559082
0,1619720,-11.661014556884766,-4.691711902618408,-30.962705612182617,9.232728958129883
0,1619721,4.687272071838379,-32.78740310668945,-29.12447738647461,-8.710351943969727
0,1619724,49.10778045654297,-6.392653465270996,33.01057815551758,16.292560577392578
0,1619725,-21.04827308654785,38.52560806274414,0.31289222836494446,-41.727783203125
0,1619728,-45.73121643066406,20.34430503845215,-0.6770540475845337,-25.32635498046875
0,1619729,7.24292516708374,-43.281982421875,6.633355140686035,30.634366989135742
0,1619732,7.292555332183838,-45.65510940551758,-7.586669445037842,-6.1936869621276855
0,1619733,2.4641497135162354,15.40037727355957,9.800748825073242,14.634483337402344
0,1619736,10.366645812988281,57.744232177734375,-4.54180908203125,8.928261756896973
0,1619737,-4.097844123840332,10.795402526855469,-21.04961585998535,-10.863649368286133
0,1619740,-8.725798606872559,-0.3813958764076233,3.136777877807617,15.767738342285156
0,1619741,6.431371688842773,-31.890159606933594,-2.9568042755126953,8.072077751159668
0,1619744,11.241023063659668,-62.33325958251953,8.646629333496094,-0.012607989832758904
0,1619745,-5.238567352294922,72.8390884399414,15.399478912353516,-24.906190872192383
0,1619748,-5.109457015991211,42.5468635559082,-19.614627838134766,-16.743860244750977
0,1619749,32.11376953125,-62.766082763671875,9.642010688781738,30.341873168945312
0,1619752,-7.438092231750488,-30.75688934326172,-0.7435241341590881,-19.547157287597656
0,1619753,-33.301170349121094,23.55596351623535,-34.06993103027344,-26.952503204345703
0,1619756,1.5509932041168213,32.653106689453125,28.09881591796875,72.11359405517578
0,1619758,4.482656002044678,-8.349006652832031,48.64155578613281,-8.107134819030762
0,1619760,-0.7277811169624329,8.460843086242676,-42.81918716430664,-79.89497375488281
0,1619762,0.7121774554252625,-21.010377883911133,-63.70091247558594,66.36792755126953
0,1619764,-1.299372673034668,-51.345550537109375,48.818077087402344,21.217117309570312
0,1619766,-20.957115173339844,60.59647750854492,56.58489227294922,-92.82794189453125
0,1619768,22.609127044677734,66.74170684814453,-40.006954193115234,62.227020263671875
0,1619770,20.254911422729492,-61.66267776489258,-19.425928115844727,59.011898040771484
0,1619771,-27.556310653686523,-23.97084617614746,12.748798370361328,-75.19406127929688
0,1619774,2.9492032527923584,27.28449249267578,-11.500672340393066,4.123472213745117
0,1619775,10.36149787902832,16.38150978088379,-15.200955390930176,29.23741340637207
0,1619778,8.714972496032715,2.790419816970825,5.977306842803955,-34.06694793701172
0,1619779,10.459808349609375,-50.209877014160156,22.867244720458984,-31.815282821655273
0,1619782,-6.378683090209961,-28.062692642211914,7.702167510986328,22.391321182250977
0,1619783,-5.380059719085693,0.9466087818145752,19.304662704467773,46.983070373535156
0,1619786,-9.273569107055664,60.45723342895508,-12.659302711486816,-19.332735061645508
0,1619787,-2.4372012615203857,51.81602478027344,-59.99070358276367,-50.54016876220703
0,1619792,17.79022979736328,-122.53507995605469,18.359174728393555,25.683134078979492
0,1619792,-3.002734661102295,-45.074920654296875,56.58995056152344,56.09258270263672
0,1619793,-29.510072708129883,122.38612365722656,-31.780460357666016,-20.696537017822266
0,1619796,3.893411874771118,12.284953117370605,-17.710559844970703,-16.728878021240234
0,1619797,12.951068878173828,-24.660541534423828,32.557437896728516,21.065723419189453
0,1619800,-10.629341125488281,28.375669479370117,-9.826067924499512,-22.629995346069336
0,1619801,18.708730697631836,-47.55147171020508,0.34899401664733887,7.096045017242432
0,1619804,3.7065048217773438,-29.418315887451172,12.311994552612305,21.19013786315918
0,1619805,-29.261486053466797,63.2225456237793,-44.29785919189453,-57.58049774169922
0,1619808,8.376893997192383,16.896224975585938,-13.374321937561035,8.676168441772461
0,1619809,14.091790199279785,-46.49848556518555,51.87165451049805,61.93724060058594
0,1619812,-9.857267379760742,-24.40066909790039,22.879350662231445,-26.437788009643555
0,1619813,0.20289696753025055,45.33589172363281,-4.437859058380127,-32.97960662841797
0,1619816,9.277314186096191,17.25594139099121,-16.118629455566406,11.074278831481934
0,1619817,-1.6063249111175537,-49.14622116088867,-14.327392578125,-2.217344284057617
0,1619820,-4.398402214050293,27.640588760375977,-10.659662246704102,-7.84423828125
0,1619821,19.771869659423828,21.20071029663086,5.62910270690918,35.03010940551758
0,1619824,0.8172174096107483,-88.39311981201172,1.3583048582077026,28.773286819458008
0,1619825,-24.83523941040039,1.7391386032104492,-8.022942543029785,-37.09367370605469
0,1619828,5.377001762390137,83.3377456665039,29.13703727722168,-20.04014778137207
0,1619829,-14.898637771606445,-18.68783950805664,4.977341175079346,28.114194869995117
0,1619832,-13.320963859558105,-39.98442840576172,13.314275741577148,-7.289098739624023
0,1619833,38.2502326965332,38.9322509765625,-15.204520225524902,-23.193017959594727
0,1619836,2.42002272605896,21.722061157226562,-68.89635467529297,12.566054344177246
0,1619837,-7.460712432861328,-45.935184478759766,15.774658203125,14.340056419372559
0,1619840,-13.110660552978516,31.632749557495117,31.517786026000977,-36.666969299316406
0,1619841,-22.30653190612793,12.99170207977295,2.690903902053833,-37.7090950012207
0,1619844,54.04066467285156,-66.88494110107422,24.561626434326172,40.062618255615234
0,1619845,-7.594329833984375,52.70180892944336,-37.956787109375,47.36223602294922
0,1619848,-50.05662155151367,35.642539978027344,-26.16924285888672,6.871081829071045
0,1619849,35.36750030517578,-46.4445686340332,79.44615936279297,2.539806365966797
0,1619852,30.180648803710938,-24.726123809814453,-10.090411186218262,-10.929834365844727
0,1619853,-24.682170867919922,-8.777868270874023,-70.75537109375,-18.286659240722656
0,1619856,-10.69432544708252,41.157100677490234,65.93769836425781,-4.147918701171875
0,1619857,11.498391151428223,12.388505935668945,44.80583190917969,11.2080078125
0,1619860,0.9621708989143372,-18.852783203125,-66.70367431640625,5.749683380126953
0,1619861,4.357906818389893,-17.93026351928711,-40.208892822265625,-41.36867141723633
0,1619864,-7.38947057723999,-20.797821044921875,6.31790828704834,4.234313488006592
0,1619865,2.83687424659729,60.73928451538086,33.23372268676758,53.694915771484375
0,1619868,-2.3948235511779785,28.036962509155273,1.2890911102294922,-46.613197326660156
0,1619869,-0.916636049747467,-65.90573120117188,-12.231463432312012,-28.831071853637695
0,1619872,5.66195011138916,-28.16351890563965,7.8875322341918945,24.496334075927734
0,1619873,-10.682355880737305,23.10927963256836,-7.124392032623291,8.973785400390625
0,1619876,-26.26565933227539,9.111139297485352,13.995649337768555,20.51458168029785
0,1619877,-7.633018493652344,-15.538069725036621,-22.31924057006836,-7.279255390167236
0,1619880,46.40130615234375,36.451202392578125,-15.348215103149414,-21.547040939331055
0,1619881,17.815031051635742,12.852319717407227,41.36641311645508,11.497783660888672
0,1619884,-39.24993133544922,-66.92938995361328,17.636945724487305,37.687339782714844
0,1619885,-23.937524795532227,32.435420989990234,-7.097676753997803,-16.420499801635742
0,1619888,27.461631774902344,50.6844482421875,-28.484420776367188,-26.267135620117188
0,1619889,14.067218780517578,-37.22966003417969,-3.5917818546295166,19.236324310302734
0,1619892,-22.829099655151367,-24.01044273376465,23.706989288330078,-6.120615005493164
0,1619893,16.162439346313477,1.2565807104110718,-4.952823162078857,-14.847387313842773
0,1619896,21.078449249267578,19.596710205078125,-3.4918408393859863,5.658221244812012
0,1619897,-23.52525520324707,3.598081588745117,11.821487426757812,9.747231483459473
0,1619900,-6.625895023345947,-0.6043676137924194,-20.927974700927734,3.6816835403442383
0,1619901,19.015928268432617,-21.63096046447754,-12.712662696838379,-4.754571914672852
0,1619904,-0.26723235845565796,-32.28072738647461,27.61807632446289,-29.4840030670166
0,1619905,-27.679988861083984,76.68441772460938,15.344209671020508,7.94956636428833
0,1619908,-5.141945838928223,39.521697998046875,-23.449792861938477,34.203094482421875
0,1619909,35.933345794677734,-74.3849868774414,-33.0717658996582,-25.400196075439453
0,1619912,1.9490517377853394,-14.655030250549316,21.483745574951172,-1.238105058670044
0,1619913,-11.756024360656738,22.460590362548828,14.601824760437012,24.479446411132812
0,1619916,-6.110517978668213,-16.120433807373047,-13.411169052124023,-7.000810623168945
0,1619917,-11.04214859008789,0.8987868428230286,13.568913459777832,-13.919264793395996
0,1619920,21.6365966796875,64.41659545898438,-0.16161976754665375,8.087637901306152
0,1619921,-1.7512562274932861,-31.691452026367188,-9.57381534576416,14.589838981628418
0,1619924,-24.48704719543457,-82.12454986572266,6.811885356903076,-9.414715766906738
0,1619925,32.69654083251953,86.39592742919922,-10.076167106628418,-37.20438003540039
0,1619928,11.609633445739746,39.178367614746094,-9.227553367614746,9.53878116607666
0,1619929,-36.50363540649414,-92.69535064697266,26.83349609375,57.69736099243164
0,1619932,11.017863273620605,-21.841205596923828,6.774044036865234,-28.151275634765625
0,1619933,-9.856489181518555,42.7052116394043,-18.8178653717041,-31.33388900756836
0,1619936,-38.200618743896484,39.78518295288086,-7.0464911460876465,37.65044021606445
0,1619937,35.02305603027344,-3.686999797821045,7.77444314956665,4.528916835784912
0,1619940,54.11635971069336,-11.957707405090332,12.853020668029785,-29.068382263183594
0,1619941,-12.845624923706055,-18.35161781311035,11.621649742126465,1.9604759216308594
0,1619944,-35.28544235229492,-28.05878257751465,5.605785846710205,17.00289535522461
0,1619945,-6.877607345581055,55.830177307128906,-32.444252014160156,-9.148029327392578
0,1619948,22.013553619384766,25.199974060058594,-14.655790328979492,-19.875934600830078
0,1619949,26.014894485473633,-55.60007858276367,11.927719116210938,10.078448295593262
0,1619952,-30.67131996154785,-18.215946197509766,4.324961185455322,-15.630180358886719
0,1619954,-21.618064880371094,18.313505172729492,18.982707977294922,-11.558283805847168
0,1619956,24.52831268310547,11.13825798034668,-40.1387939453125,90.48347473144531
0,1619958,-6.212772369384766,-4.2646484375,-17.27305793762207,1.891995906829834
0,1619960,-15.970754623413086,6.683008193969727,60.45043182373047,-84.5639877319336
0,1619962,-73.54573822021484,-67.11151123046875,-47.94534683227539,5.91593599319458
0,1619964,14.348108291625977,-23.035308837890625,-2.803365707397461,48.709999084472656
0,1619966,137.58535766601562,132.4615478515625,90.31619262695312,0.0887741670012474
0,1619967,-44.19451904296875,22.50678825378418,-32.75252151489258,-24.786264419555664
0,1619970,-57.807769775390625,-86.64263916015625,-38.862796783447266,28.216524124145508
0,1619971,65.82609558105469,-31.45074462890625,2.103632926940918,12.332375526428223
0,1619974,0.656073808670044,19.88920783996582,15.998826026916504,-38.093109130859375
0,1619975,-44.5313720703125,47.1213264465332,36.941368103027344,-29.96278953552246
0,1619978,21.876588821411133,5.267318248748779,5.638322830200195,10.864930152893066
0,1619979,23.746623992919922,-26.92024040222168,-23.649423599243164,17.530797958374023
0,1619982,-27.58159828186035,-0.5504135489463806,-38.72612762451172,0.05348413065075874
0,1619983,0.9175868630409241,-44.91630935668945,-9.518176078796387,14.38111400604248
0,1619986,10.304887771606445,31.327289581298828,4.101741313934326,-4.318855285644531
0,1619987,-6.227170944213867,102.54325866699219,9.250405311584473,-45.57180404663086
1,1619991,-3.5247020721435547,-105.46864318847656,9.644696235656738,-3.912550449371338
1,1619992,-7.959774017333984,-73.989013671875,-19.49771499633789,40.67802047729492
1,1620247,-8.469128608703613,126.24454498291016,20.709383010864258,-10.123042106628418
1,1620250,16.657752990722656,70.4322738647461,11.539802551269531,-26.000520706176758
1,1620252,-0.8024448752403259,30.226961135864258,-42.87598419189453,19.554302215576172
1,1620254,-17.907079696655273,-20.652969360351562,7.3372650146484375,19.89006805419922
1,1620256,28.506174087524414,-121.978271484375,37.51118850708008,4.481456756591797
1,1620258,6.188797950744629,-127.03632354736328,-10.477222442626953,29.358131408691406
1,1620912,-30.413549423217773,-57.412620544433594,-3.7059059143066406,-9.066332817077637
1,1620913,21.778078079223633,59.700164794921875,-3.1469740867614746,-52.026832580566406
1,1620916,10.861191749572754,72.02595520019531,6.675024032592773,11.9171724319458
1,1620917,-53.778648376464844,58.15731430053711,44.215728759765625,28.723257064819336
1,1620920,3.2905476093292236,65.1220474243164,-46.42466735839844,-30.88400650024414
1,1620921,51.66611862182617,15.804023742675781,-30.98609733581543,10.117942810058594
1,1620924,3.293322801589966,48.73735427856445,38.78731155395508,17.330684661865234
1,1620925,-50.55791473388672,-5.315816879272461,-6.353970527648926,-39.64868927001953
1,1620928,-1.5253463983535767,-119.21040344238281,29.736852645874023,14.4510498046875
1,1620930,39.1627197265625,-67.06234741210938,31.483121871948242,15.610811233520508
1,1620932,-22.047346115112305,-16.36721420288086,-63.073524475097656,10.900203704833984
1,1620934,-4.539341926574707,26.574981689453125,-9.8456449508667,42.685447692871094
1,1620936,11.700849533081055,26.80029296875,37.333892822265625,-40.93112564086914
1,1620938,-10.310002326965332,16.069168090820312,-31.631488800048828,-96.65461730957031
1,1620940,1.828168511390686,36.915985107421875,-14.564343452453613,32.450870513916016
1,1620942,16.105016708374023,-30.812036514282227,5.5780415534973145,79.93426513671875
1,1620943,19.471651077270508,-10.548758506774902,-10.941665649414062,-19.616512298583984
1,1620946,-15.60095500946045,74.96942901611328,-0.05105802044272423,-3.25228214263916
1,1620947,-40.0287971496582,-26.776662826538086,1.3726376295089722,-22.789810180664062
1,1620950,39.27574920654297,-87.97187042236328,20.77685546875,-17.082704544067383
1,1620951,46.68095016479492,24.56951141357422,17.908889770507812,57.76761245727539
1,1620954,-48.55351638793945,25.536170959472656,-10.329499244689941,2.0679051876068115
1,1620955,-35.574825286865234,-28.851619720458984,3.2732315063476562,-13.744926452636719
1,1620958,25.695653915405273,40.529945373535156,3.2226741313934326,-16.817337036132812
1,1620959,14.40225887298584,69.5440444946289,-10.2523193359375,-24.43403434753418
1,1620962,-8.734810829162598,-51.20577621459961,-9.943325996398926,33.27706527709961
1,1620963,-2.396085262298584,-21.775814056396484,8.919106483459473,0.5522015690803528
1,1620966,-15.785780906677246,62.593658447265625,2.702577590942383,-21.740711212158203
1,1620967,0.5385220646858215,-46.894474029541016,-15.744856834411621,-1.7246708869934082
1,1620970,9.663394927978516,-62.155967712402344,42.54916000366211,11.704431533813477
1,1620971,0.3432709872722626,4.683047771453857,4.650055408477783,-6.264858245849609
1,1620974,8.43188190460205,7.767275810241699,-65.0486831665039,-23.426286697387695
1,1620975,6.938553810119629,23.34684944152832,39.34149932861328,41.704071044921875
1,1620978,-7.854386329650879,25.69916534423828,5.528780937194824,4.0647783279418945
1,1620979,-21.840866088867188,-24.748260498046875,-58.15871047973633,-28.41339874267578
1,1620982,11.695595741271973,-22.902481079101562,44.987060546875,25.616775512695312
1,1620983,22.47216796875,56.41200637817383,18.5595760345459,-8.70715045928955
1,1620986,-6.134327411651611,47.176979064941406,-24.189119338989258,-18.898244857788086
1,1620987,-8.7152099609375,-44.06007766723633,4.08608341217041,27.68836784362793
1,1620990,-2.2593863010406494,-84.94731903076172,9.330039978027344,5.663235664367676
1,1620991,2.2669332027435303,-18.51297950744629,-6.0476298332214355,-16.331716537475586
1,1620994,-10.638615608215332,54.45936584472656,-20.013565063476562,4.183992862701416
1,1621063,-31.970876693725586,6.073510646820068,30.54193687438965,-24.719013214111328
1,1621064,8.950481414794922,-111.6570053100586,-54.18217086791992,58.603599548339844
1,1621065,-15.661982536315918,-7.841641426086426,-11.66911792755127,18.702674865722656
1,1621068,-11.732532501220703,-9.388405799865723,-11.319503784179688,-36.935054779052734
1,1621069,20.91112518310547,-37.612064361572266,-16.879201889038086,0.615368127822876
1,1621072,33.0814323425293,-12.752644538879395,41.16718292236328,71.45238494873047
1,1621073,28.40768814086914,28.936059951782227,-25.606401443481445,16.7207088470459
1,1621076,-32.18000411987305,105.60285949707031,-5.759565830230713,-93.63851928710938
1,1621077,-31.361867904663086,72.37821197509766,56.816246032714844,-17.69856834411621
1,1621080,3.2821919918060303,-49.40544891357422,0.9422757625579834,49.64570999145508
1,1621081,7.733715534210205,-56.756988525390625,-8.712048530578613,29.99400520324707
1,1621084,10.85757064819336,-55.00939178466797,-29.030624389648438,25.243410110473633
1,1621085,14.344196319580078,-38.896263122558594,-28.106056213378906,-4.889484882354736
1,1621088,21.091123580932617,59.99798583984375,51.0468864440918,15.566462516784668
1,1621089,11.595149040222168,65.55867767333984,24.739341735839844,-12.284113883972168
1,1621092,-48.23152160644531,-12.800289154052734,-37.45623016357422,-73.41068267822266
1,1621093,-37.18536376953125,-47.24772644042969,-21.60024642944336,-7.713630199432373
1,1621096,40.638729095458984,-34.263668060302734,-2.404550313949585,52.33977508544922
1,1621097,16.21901512145996,-49.55928039550781,-32.876888275146484,-21.415632247924805
1,1621100,-24.127037048339844,17.56986427307129,41.41335678100586,-53.58446502685547
1,1621101,-8.144559860229492,86.39918518066406,70.86292266845703,7.534772872924805
1,1621104,127.14278411865234,88.39479064941406,-27.209550857543945,39.61421585083008
1,1621105,5.68547248840332,54.117210388183594,32.02947235107422,62.91358947753906
1,1621108,-210.10531616210938,-231.06471252441406,-38.15361785888672,-16.179109573364258
1,1621109,12.068293571472168,-204.4152374267578,-135.91445922851562,-33.304325103759766
1,1621112,106.82418060302734,212.7653045654297,63.44657516479492,32.891204833984375
1,1621113,-7.255274772644043,146.50375366210938,84.54252624511719,-15.874167442321777
1,1621116,-12.161489486694336,-36.6039924621582,-38.725006103515625,-25.479021072387695
1,1621117,-13.757072448730469,-43.45258331298828,-19.234716415405273,23.35233497619629
1,1621120,-56.53154754638672,-110.66900634765625,6.968156337738037,-0.31068986654281616
1,1621121,42.77173614501953,17.121662139892578,23.263635635375977,-76.95604705810547
1,1621124,67.9153823852539,122.55237579345703,-27.50331687927246,14.695029258728027
1,1621125,-61.892704010009766,61.372291564941406,-59.71836853027344,87.9649887084961
1,1621128,-9.321125030517578,-9.400546073913574,43.59724044799805,-46.5531120300293
1,1621129,21.787559509277344,-20.364038467407227,26.996959686279297,-83.8108139038086
1,1621132,2.6205945014953613,21.535274505615234,9.697467803955078,3.0997533798217773
1,1621133,-32.910064697265625,-87.4452896118164,43.83061218261719,90.14149475097656
1,1621136,16.249948501586914,-127.98716735839844,-28.84827995300293,89.91950225830078
1,1621137,52.022640228271484,-34.912445068359375,-53.22468566894531,-20.407962799072266
1,1621140,-33.30585861206055,68.44200897216797,-5.00991153717041,-14.467710494995117
1,1621142,25.298961639404297,91.98131561279297,49.56591796875,14.171723365783691
1,1621143,23.568218231201172,7.6651692390441895,-9.829730987548828,-73.74581909179688
1,1621146,-38.60580062866211,75.51697540283203,-46.97260665893555,-32.55354690551758
1,1621147,-45.03687286376953,105.64302062988281,21.762939453125,0.2409728318452835
1,1621150,-24.05245590209961,-127.76516723632812,79.3129653930664,-24.25016212463379
1,1621151,36.93977355957031,-211.02711486816406,27.884693145751953,18.1235408782959
1,1621154,23.333871841430664,-4.1727118492126465,-74.85030364990234,-18.85748863220215
1,1621155,-15.712079048156738,123.17353820800781,-31.035226821899414,-10.609847068786621
1,1621158,3.946749210357666,144.4640350341797,33.49590301513672,106.82555389404297
1,1621159,31.070541381835938,-64.9522705078125,-10.348979949951172,72.57014465332031
1,1621162,25.21194076538086,-233.43209838867188,-21.300180435180664,-24.570653915405273
1,1621163,-11.882001876831055,66.82283020019531,13.034852027893066,-43.94643783569336
1,1621166,-34.08106994628906,224.00296020507812,5.281484127044678,-57.673030853271484
1,1621167,-12.615981101989746,-12.011518478393555,16.349750518798828,7.810172080993652
1,1621170,16.213342666625977,-80.19692993164062,-0.8209559321403503,0.11474208533763885
1,1621171,3.7069430351257324,34.02079772949219,-38.63834762573242,-21.267070770263672
1,1621174,-23.40145492553711,26.24354362487793,30.67350196838379,56.03342056274414
1,1621175,-5.080399513244629,-6.892188549041748,18.67326545715332,-54.73217010498047
1,1621178,-15.202193260192871,121.50991821289062,-56.99921798706055,-137.48651123046875
1,1621179,6.945321559906006,-14.162610054016113,18.47641372680664,78.71629333496094
1,1621182,24.193225860595703,-295.57550048828125,22.136606216430664,145.71060180664062
1,1621183,-20.15130043029785,-106.63919067382812,18.07977294921875,40.8989372253418
1,1621186,11.395272254943848,-6.851424217224121,-4.061254024505615,-2.6493332386016846
1,1621187,63.63113784790039,14.703242301940918,-41.474647521972656,-71.14443969726562
1,1621190,28.896146774291992,197.95362854003906,32.44390869140625,-50.22716522216797
1,1621191,-37.084564208984375,136.6712188720703,-1.5245628356933594,31.526391983032227
1,1621194,-36.77085494995117,-20.267492294311523,-20.39004898071289,22.81157684326172
1,1621195,-27.637676239013672,-76.62265014648438,-26.845611572265625,-32.909671783447266
1,1621198,19.560693740844727,-3.038414478302002,-22.610898971557617,-32.48173141479492
1,1621200,30.326284408569336,20.76548957824707,54.590049743652344,-16.64313316345215
1,1621202,-78.18679809570312,57.12797546386719,27.13225555419922,-54.083683013916016
1,1621204,-37.67717361450195,105.36954498291016,-34.85029220581055,-25.838708877563477
1,1621206,67.83399963378906,-95.65608978271484,16.19660186767578,122.63050842285156
1,1621208,18.9276065826416,-155.1065216064453,56.31319808959961,90.53276062011719
1,1621210,-16.55586814880371,-85.61660766601562,-36.27682876586914,-13.129579544067383
1,1621212,40.195587158203125,-25.981712341308594,-76.51795959472656,37.5623893737793
1,1621214,54.30012512207031,157.69354248046875,15.72118091583252,-20.574756622314453
1,1621216,-35.564361572265625,61.80886459350586,33.06258773803711,-69.42244720458984
1,1621218,-36.045013427734375,-124.36738586425781,22.18807601928711,-4.073508262634277
1,1621220,-1.5595459938049316,-53.61042404174805,48.62667465209961,-9.58350944519043
1,1621221,-52.967533111572266,29.160486221313477,-11.448199272155762,-25.49661636352539
1,1621224,6.279089450836182,197.19618225097656,-60.670684814453125,-55.71620178222656
1,1621225,53.311153411865234,233.97067260742188,-28.523008346557617,18.187589645385742
1,1621228,-11.561946868896484,-169.24513244628906,12.734763145446777,97.66749572753906
1,1621229,14.84619426727295,-292.24798583984375,4.828177452087402,-238.85720825195312
1,1621232,-3.1819515228271484,-33.46211242675781,-35.802886962890625,-28.407123565673828
1,1621233,-71.66232299804688,69.79242706298828,28.42693519592285,419.85113525390625
1,1621236,11.768787384033203,95.9388656616211,85.07601165771484,-46.02314758300781
1,1621237,75.24170684814453,-9.70710563659668,-47.53570556640625,-157.92149353027344
1,1621239,44.117042541503906,-6.3894877433776855,-46.49446487426758,75.30070495605469
1,1621242,-17.604427337646484,28.584806442260742,34.23761749267578,-24.214569091796875
1,1621243,-64.51213073730469,-79.43433380126953,-5.694463729858398,-10.213127136230469
1,1621246,-15.464377403259277,60.81998825073242,-6.693879127502441,60.29588317871094
1,1621247,25.694318771362305,95.36759948730469,0.508576512336731,-12.499049186706543
1,1621250,7.125563621520996,-36.76588439941406,45.46147537231445,-121.97515869140625
1,1621251,-9.902101516723633,-24.013216018676758,6.667920112609863,-47.710811614990234
1,1621254,-33.57949447631836,-91.49629974365234,-90.16899108886719,56.880165100097656
1,1621255,2.9838831424713135,-35.167362213134766,17.53902816772461,57.17702102661133
1,1621258,54.26467514038086,139.01988220214844,61.8590202331543,30.97378921508789
1,1621259,23.12726402282715,36.469940185546875,-31.001710891723633,-28.836267471313477
1,1621262,-34.40251541137695,-106.80308532714844,-13.269523620605469,-65.36275482177734
1,1621263,-8.922780990600586,-43.37605667114258,19.128141403198242,2.995307445526123
1,1621266,7.971829414367676,-14.56112289428711,-5.786709785461426,55.51660919189453
1,1621267,-32.89277267456055,-9.495410919189453,-11.191701889038086,-4.290419578552246
1,1621270,23.966983795166016,126.69438934326172,10.214949607849121,-22.133947372436523
1,1621271,30.16279411315918,93.14907836914062,22.014076232910156,32.6451301574707
1,1621274,-51.27669906616211,-86.78205108642578,5.958079814910889,16.136289596557617
1,1621275,-20.15874671936035,-73.9444351196289,-43.301143646240234,-47.616458892822266
1,1621278,29.78855323791504,33.228755950927734,0.08781963586807251,-29.839900970458984
1,1621279,18.549619674682617,38.875694274902344,24.770998001098633,34.82654571533203
1,1621282,10.482830047607422,-66.39556121826172,-14.113831520080566,32.9116096496582
1,1621283,-6.482252597808838,-84.50312805175781,-16.99401092529297,-41.352325439453125
1,1621286,-17.346120834350586,52.12666320800781,-20.440343856811523,-42.12410354614258
1,1621287,-3.228559732437134,68.35261535644531,59.79023361206055,68.68512725830078
1,1621290,36.3332633972168,-7.376667022705078,35.730716705322266,68.44216918945312
1,1621291,8.471062660217285,1.0001143217086792,-60.51390838623047,-14.9339599609375
1,1621294,-34.680763244628906,24.552845001220703,7.635448932647705,-60.33156204223633
1,1621295,6.603327751159668,8.873909950256348,35.55006408691406,-39.03057861328125
1,1621298,3.3368492126464844,2.5072667598724365,-39.0203742980957,-3.833277702331543
1,1621299,-6.836264610290527,-9.539017677307129,-38.40257263183594,-6.7393479347229
1,1621302,-11.142786979675293,-68.66484069824219,19.78571319580078,70.38826751708984
1,1621303,-23.672435760498047,-23.028911590576172,22.9500789642334,26.897159576416016
1,1621306,29.019596099853516,131.07000732421875,7.04018497467041,-90.45594024658203
1,1621307,29.053041458129883,54.05213165283203,21.48628807067871,-6.351439952850342
1,1621310,-30.02999496459961,-168.3234100341797,3.0209968090057373,49.28288269042969
1,1621311,-45.828643798828125,-78.84506225585938,-27.486000061035156,1.0443745851516724
1,1621314,10.036097526550293,138.74288940429688,3.5283658504486084,11.412215232849121
1,1621315,67.4679183959961,49.604156494140625,6.505600452423096,30.865154266357422
1,1621318,1.2899545431137085,-67.86080169677734,-27.69923973083496,-53.21748733520508
1,1621319,-39.36647033691406,-40.34671401977539,-13.91651439666748,-43.59614944458008
1,1621322,4.433443069458008,-25.506311416625977,-15.937992095947266,31.48135757446289
1,1621323,2.1258955001831055,48.5511360168457,3.542484760284424,-2.4879088401794434
1,1621326,6.274346351623535,62.543121337890625,25.810903549194336,26.95595932006836
1,1621327,23.197023391723633,12.346996307373047,15.221847534179688,39.39822006225586
1,1621330,-11.771811485290527,-40.292320251464844,27.2943058013916,-10.622385025024414
1,1621331,-14.227073669433594,-42.9737434387207,0.8116768598556519,-54.26048278808594
1,1621334,1.7834315299987793,33.47325897216797,-23.325355529785156,-53.872005462646484
1,1621335,-20.047252655029297,-0.7791420221328735,-24.71056365966797,17.513357162475586
1,1621338,23.408098220825195,-25.67910385131836,-10.724699974060059,64.97743225097656
1,1621339,17.644840240478516,14.056257247924805,42.80000305175781,40.134544372558594
1,1621342,-28.202367782592773,-17.32898712158203,29.884157180786133,-10.074010848999023
1,1621343,3.4369001388549805,2.003640651702881,-23.45649528503418,-13.70077896118164
1,1621346,24.667375564575195,63.695133209228516,-30.276813507080078,-26.816896438598633
1,1621347,-1.2235536575317383,-5.518589973449707,4.195061206817627,-13.699917793273926
1,1621350,-34.738502502441406,-97.22175598144531,-12.970802307128906,30.635087966918945
1,1621352,20.206714630126953,-3.589898109436035,-51.15656280517578,-21.7902889251709
1,1621354,18.665231704711914,98.72541809082031,54.911277770996094,-28.696319580078125
1,1621355,-31.756183624267578,20.538557052612305,85.49742889404297,52.05967330932617
1,1621358,-14.318366050720215,-34.62366485595703,-39.76833724975586,19.62387466430664
1,1621359,-10.179841995239258,-22.914342880249023,-71.31170654296875,-31.533905029296875
1,1621362,2.4074528217315674,-25.162254333496094,35.0523681640625,-31.098018646240234
1,1621363,-0.2766346037387848,4.873599052429199,57.28692626953125,-3.605147361755371
1,1621366,25.950027465820312,44.391273498535156,-50.8411750793457,31.09999656677246
1,1621367,28.81673812866211,17.792034149169922,-30.0596866607666,-8.425447463989258
1,1621370,-8.613840103149414,-36.449581146240234,24.18162727355957,-11.109951972961426
1,1621371,5.130350112915039,-11.4412260055542,-10.223751068115234,22.135560989379883
1,1621374,-14.5378999710083,-5.133508205413818,5.1863484382629395,-4.465157508850098
1,1621375,-25.74115753173828,2.8735358715057373,32.27404022216797,14.27541732788086
1,1621378,12.236760139465332,31.85926628112793,-25.758853912353516,-10.455286026000977
1,1621379,36.32380294799805,-27.857254028320312,-35.569583892822266,-46.880393981933594
1,1621382,-10.408591270446777,-55.86027145385742,37.88883972167969,55.31850051879883
1,1621383,-39.279605865478516,3.0188424587249756,18.994461059570312,34.072391510009766
1,1621386,18.594877243041992,92.26378631591797,-32.749820709228516,-61.479339599609375
1,1621387,3.8040218353271484,37.99463653564453,11.500836372375488,-15.296051979064941
1,1621390,-13.527666091918945,-94.53936767578125,36.422122955322266,41.60179138183594
1,1621391,-6.7917633056640625,-2.0879642963409424,-14.748272895812988,1.8075915575027466
1,1621394,-13.392600059509277,57.98588180541992,-46.90618896484375,-48.01427459716797
1,1621395,28.483013153076172,-12.905725479125977,6.6836256980896,6.535107135772705
1,1621398,14.260947227478027,4.492061614990234,42.043617248535156,37.86711883544922
1,1621399,0.1683611422777176,-30.411724090576172,-15.042593002319336,-13.603178977966309
1,1621402,-4.906919002532959,-62.27641677856445,-17.81547737121582,-11.121685981750488
1,1621403,-2.3513853549957275,33.433624267578125,6.168618679046631,15.60213565826416
1,1621406,23.28836441040039,85.97118377685547,-13.128500938415527,19.851097106933594
1,1621407,-21.43695068359375,9.436347961425781,4.618861198425293,11.083827018737793
1,1621410,-31.004398345947266,-86.06255340576172,54.07240295410156,-5.941461086273193
1,1621411,4.374354839324951,-21.310354232788086,7.323217868804932,-45.37017822265625
1,1621414,16.5888671875,54.557029724121094,-53.93611526489258,-28.603961944580078
1,1621415,-7.954751491546631,0.6009804010391235,-7.7085957527160645,60.77400588989258
1,1621418,4.443957328796387,31.081167221069336,17.05483055114746,18.82924461364746
1,1621419,35.71118927001953,12.792244911193848,-17.379228591918945,-26.03656005859375
1,1621422,-18.043081283569336,-88.46864318847656,11.977113723754883,15.223038673400879
1,1621423,-29.482675552368164,-2.476661443710327,27.94580841064453,-17.139734268188477
1,1621426,1.7395614385604858,79.22107696533203,-20.665437698364258,-32.376407623291016
1,1621427,10.122599601745605,-17.545310974121094,-6.857522964477539,14.463921546936035
1,1621430,22.765926361083984,-55.56085968017578,0.7880294322967529,19.490097045898438
1,1621431,-13.126408576965332,14.207430839538574,-6.176578044891357,-5.521364212036133
1,1621434,-11.408797264099121,13.53820514678955,0.35955333709716797,30.24009132385254
1,1621435,36.42424011230469,7.204878330230713,5.766449928283691,26.384239196777344
1,1621438,-29.214458465576172,16.572431564331055,11.060996055603027,-76.33245849609375
1,1621439,-26.63700294494629,-32.95207977294922,2.936459541320801,-37.02485275268555
1,1621442,58.82415008544922,-15.960286140441895,17.377931594848633,64.14630889892578
1,1621443,1.1566659212112427,46.46687698364258,-20.22780990600586,-15.635119438171387
1,1621446,-23.774763107299805,36.023555755615234,-38.47153854370117,-20.905750274658203
1,1621447,-10.610639572143555,-36.7570686340332,32.666168212890625,53.280757904052734
1,1621450,-37.2805290222168,-60.512325286865234,15.611519813537598,-19.464046478271484
1,1621451,15.920465469360352,17.549604415893555,-43.82857131958008,-53.00834655761719
1,1621454,36.72814178466797,26.855510711669922,-29.608449935913086,16.69358253479004
1,1621455,0.816780686378479,-6.66082239151001,43.00181579589844,51.002357482910156
1,1621458,-23.646589279174805,20.14680290222168,44.587379455566406,15.494636535644531
1,1621459,-25.99608039855957,1.7214938402175903,-18.71482276916504,-11.63988208770752
1,1621462,17.464540481567383,-44.89165496826172,-15.328805923461914,-33.231544494628906
1,1621463,21.065364837646484,27.5014705657959,31.459775924682617,-5.660919189453125
1,1621466,1.4487240314483643,63.615116119384766,-17.647966384887695,42.32510757446289
1,1621467,-8.278678894042969,-65.44876098632812,-94.14250946044922,-10.723302841186523
1,1621470,54.48466873168945,-14.685880661010742,75.93470001220703,10.463973045349121
1,1621471,24.737464904785156,72.36941528320312,78.0819091796875,11.2559814453125
1,1621474,-124.85326385498047,-44.31977081298828,-61.20724105834961,-33.49380111694336
1,1621475,16.98487091064453,-18.418834686279297,18.272403717041016,4.4345011711120605
1,1621480,81.70767974853516,58.29048538208008,-20.230924606323242,-34.765140533447266
1,1621480,-59.862709045410156,-28.870677947998047,-30.244197845458984,-12.623220443725586
1,1621481,-2.0079658031463623,-84.9648666381836,28.541433334350586,33.48480987548828
1,1621484,26.59907341003418,33.0175666809082,-47.6030158996582,-15.146584510803223
1,1621485,-25.993820190429688,85.06201934814453,-15.052669525146484,-8.393111228942871
1,1621488,1.702579379081726,-69.67303466796875,87.80297088623047,42.789756774902344
1,1621489,24.94300079345703,-51.359169006347656,35.09441375732422,36.16010665893555
1,1621492,-12.17788028717041,70.26911926269531,-71.80909729003906,-58.857418060302734
1,1621493,-24.70311164855957,16.386348724365234,-43.05963134765625,-45.80371856689453
1,1621496,33.645748138427734,-6.945861339569092,53.08152770996094,54.84889221191406
1,1621497,5.663734436035156,0.5139156579971313,13.777751922607422,17.56378746032715
1,1621500,-41.55879592895508,-29.792593002319336,-37.379337310791016,-11.249102592468262
1,1621501,22.401073455810547,-28.46837615966797,8.445446014404297,-0.5563796162605286
1,1621504,18.090295791625977,46.681087493896484,-14.835831642150879,-36.16542434692383
1,1621505,-15.859739303588867,79.57093811035156,3.1474146842956543,19.343135833740234
1,1621508,-10.73714542388916,-75.92764282226562,55.77821731567383,46.599918365478516
1,1621509,-13.971060752868652,-76.67137145996094,-7.559271812438965,-1.3572134971618652
1,1621512,22.938457489013672,64.61466217041016,-18.389144897460938,-22.31788444519043
1,1621513,-1.0236341953277588,21.83091163635254,-4.2587738037109375,-40.69271469116211
1,1621516,-3.9336013793945312,-6.3692851066589355,-29.867595672607422,-25.833343505859375
1,1621517,13.113913536071777,25.448331832885742,12.197078704833984,38.67087173461914
1,1621520,-27.132299423217773,-23.501317977905273,44.413455963134766,57.349361419677734
1,1621521,18.019872665405273,-49.692909240722656,10.102806091308594,13.789087295532227
1,1621524,19.70052146911621,42.10121154785156,-41.05296325683594,-26.997196197509766
1,1621525,-21.074193954467773,62.1167106628418,-53.453346252441406,-54.33831024169922
1,1621528,-11.604979515075684,-86.81620788574219,10.501055717468262,-4.732879161834717
1,1621529,4.512426376342773,-30.72467803955078,32.90222930908203,33.795021057128906
1,1621532,29.634593963623047,65.72766876220703,10.590530395507812,-3.038054943084717
1,1621533,-4.364195346832275,-1.8260902166366577,27.064531326293945,-13.610033988952637
1,1621536,-15.744760513305664,31.69780731201172,-15.058873176574707,5.605902194976807
1,1621537,30.343652725219727,-17.83664894104004,-49.77521896362305,15.247079849243164
1,1621540,9.032459259033203,-44.35771179199219,41.12910842895508,21.07052993774414
1,1621541,-38.326595306396484,6.478298664093018,40.79168701171875,3.5434701442718506
1,1621544,-38.54961013793945,5.975053787231445,-34.02607727050781,-52.04048538208008
1,1621545,16.80638885498047,47.972145080566406,-24.876800537109375,-22.45420265197754
1,1621548,35.50619888305664,-24.547670364379883,13.862488746643066,60.29209899902344
1,1621549,8.1402006149292,-59.293357849121094,29.305883407592773,30.330101013183594
1,1621552,-9.452407836914062,22.687562942504883,-27.9787540435791,-77.9909896850586
1,1621553,-21.685455322265625,5.117176532745361,-40.8192253112793,-50.59878921508789
1,1621556,-3.4146335124969482,21.47991943359375,10.592302322387695,82.32951354980469
1,1621557,9.878571510314941,55.681114196777344,41.148399353027344,49.449546813964844
1,1621560,-10.643865585327148,-47.97026443481445,24.612634658813477,-49.1564826965332
1,1621561,-4.9097580909729,-67.9638671875,-38.486392974853516,-29.622207641601562
1,1621564,16.765396118164062,53.62320327758789,-6.690849781036377,59.63764190673828
1,1621565,-0.8009287118911743,43.68815231323242,6.800124168395996,-12.289525032043457
1,1621568,5.428250312805176,-49.12004089355469,-1.1111202239990234,-63.14594268798828
1,1621569,15.41995620727539,-24.088096618652344,47.7479362487793,56.53998565673828
1,1621572,-7.860122203826904,8.467769622802734,-34.07936096191406,19.483592987060547
1,1621573,-14.66292667388916,16.10908317565918,-19.689071655273438,-37.8123779296875
1,1621576,19.582897186279297,39.044349670410156,8.098605155944824,-10.442557334899902
1,1621577,12.554584503173828,5.438815593719482,-41.557979583740234,5.776471138000488
1,1621580,-27.981462478637695,-62.4687385559082,35.67030334472656,33.250587463378906
1,1621581,-2.5637073516845703,-45.96152877807617,39.735633850097656,5.615755558013916
1,1621584,7.1042938232421875,83.0569076538086,-13.22655963897705,-41.905277252197266
1,1621585,-16.014617919921875,73.95917510986328,-43.27708435058594,-34.22153091430664
1,1621588,-17.205062866210938,-96.8872299194336,4.696331977844238,35.67306137084961
1,1621589,8.405976295471191,-71.51640319824219,31.9163818359375,50.54288864135742
1,1621592,14.676919937133789,85.09358978271484,-10.702503204345703,-26.056983947753906
1,1621593,2.421898126602173,29.684499740600586,0.3172985017299652,-17.549562454223633
1,1621596,9.771177291870117,-28.767805099487305,-9.343256950378418,-10.588272094726562
1,1621597,-22.709938049316406,16.41963768005371,5.999850273132324,-19.75625228881836
1,1621600,12.497782707214355,-28.828527450561523,-15.480857849121094,35.40425109863281
1,1621601,44.598777770996094,-32.73263168334961,-3.629272937774658,21.339614868164062
1,1621604,-34.93880844116211,49.9981803894043,41.25726318359375,-38.277313232421875
1,1621605,-13.2527494430542,45.42805862426758,-4.015310764312744,-21.366594314575195
1,1621608,15.366765022277832,-71.40374755859375,-3.9621477127075195,55.63505935668945
1,1621610,-13.471611022949219,-59.72108840942383,-20.4960994720459,13.330272674560547
1,1621612,4.2059478759765625,73.64613342285156,-27.24957847595215,-35.97955322265625
1,1621614,-7.033543586730957,31.59340476989746,19.887746810913086,25.02629280090332
1,1621616,-27.42320442199707,-13.542490005493164,19.288484573364258,4.316673755645752
1,1621618,35.05036163330078,18.71783447265625,-4.839329719543457,-38.746978759765625
1,1621619,50.0375862121582,-44.16757583618164,13.036108016967773,-13.136594772338867
1,1621621,-54.855377197265625,-12.209979057312012,32.47208786010742,40.30821990966797
1,1621624,-24.478416442871094,35.915401458740234,-40.06635284423828,11.505276679992676
1,1621625,51.26044845581055,20.948400497436523,-26.467021942138672,-38.87070083618164
1,1621628,11.558942794799805,-17.408918380737305,38.254066467285156,18.306875228881836
1,1621629,-31.836048126220703,-66.4558334350586,-33.749610900878906,-6.14912748336792
1,1621632,-7.441057205200195,27.056116104125977,-24.87546157836914,-9.696590423583984
1,1621633,21.52195167541504,44.31704330444336,49.28508758544922,34.28018569946289
1,1621636,-14.521812438964844,-13.516921997070312,9.514659881591797,-13.072164535522461
1,1621637,-7.078582763671875,-4.70601224899292,-23.153667449951172,-24.833423614501953
1,1621640,9.129236221313477,-19.369991302490234,18.474843978881836,-8.300326347351074
1,1621641,-5.5945234298706055,-28.843721389770508,-1.8833575248718262,28.92424201965332
1,1621644,-4.7299957275390625,40.872398376464844,-25.636659622192383,34.638465881347656
1,1621645,24.88167381286621,94.51325225830078,15.186161041259766,-22.11222267150879
1,1621648,-8.146415710449219,-65.06694030761719,-3.067521095275879,-13.068060874938965
1,1621649,-30.82262420654297,-102.49431610107422,-5.170386791229248,-17.821975708007812
1,1621652,10.888516426086426,69.25735473632812,48.404632568359375,-45.46413040161133
1,1621653,-10.387325286865234,28.285783767700195,-9.404979705810547,47.749061584472656
1,1621656,5.7370734214782715,-24.39727020263672,-53.247642517089844,48.94304656982422
1,1621657,15.934865951538086,32.71426773071289,16.80809211730957,-30.255054473876953
1,1621660,14.512813568115234,-44.07271957397461,-5.748864650726318,-15.202507972717285
1,1621661,-12.436482429504395,-66.4708023071289,-37.972415924072266,-13.190567970275879
1,1621664,-36.756492614746094,78.77067565917969,46.09745788574219,-11.046852111816406
1,1621665,35.86559295654297,83.12337493896484,46.60921859741211,2.1312451362609863
1,1621668,24.049339294433594,-75.7332992553711,-32.938720703125,62.93703079223633
1,1621669,-29.76371192932129,-45.028446197509766,-10.808218955993652,46.49751663208008
1,1621672,-15.49750804901123,51.63038635253906,18.918495178222656,-64.7623291015625
1,1621673,16.244646072387695,-6.509432792663574,-17.39614486694336,-35.431610107421875
1,1621676,21.842700958251953,-14.109480857849121,-39.7733268737793,-8.267966270446777
1,1621677,12.879589080810547,33.482364654541016,17.309755325317383,0.803939938545227
1,1621680,-8.670769691467285,-1.7812798023223877,57.36404800415039,51.1599235534668
1,1621681,-32.38125991821289,-73.90973663330078,-20.03455924987793,-1.0032727718353271
1,1621684,-7.7918853759765625,17.04509162902832,-40.01428985595703,-35.70271682739258
1,1621685,19.22926902770996,105.29218292236328,26.377222061157227,4.523977756500244
1,1621688,11.182991981506348,-51.716064453125,25.932384490966797,6.324873924255371
1,1621689,-18.068580627441406,-59.06938171386719,5.687252521514893,2.7732317447662354
1,1621692,-14.926719665527344,42.792171478271484,-42.493473052978516,2.402381658554077
1,1621693,41.21897888183594,6.302154541015625,-41.024139404296875,3.1712729930877686
1,1621696,5.0034074783325195,31.411745071411133,30.518924713134766,-0.12846317887306213
1,1621697,-51.877742767333984,-4.47326135635376,41.26194763183594,-2.0789806842803955
1,1621700,-2.65205979347229,-72.01380157470703,12.66634750366211,-13.254204750061035
1,1621701,10.14618968963623,-26.33083724975586,-47.925758361816406,26.239267349243164
1,1621704,19.79775619506836,62.93157196044922,-18.188119888305664,21.11741828918457
1,1621705,26.44013786315918,50.4347038269043,14.003584861755371,-66.7490005493164
1,1621708,-27.621349334716797,-66.9970932006836,-7.37373685836792,2.415461301803589
1,1621709,-1.971239447593689,-25.661924362182617,26.163312911987305,6.08538818359375
1,1621712,23.357006072998047,31.721712112426758,12.967107772827148,-35.55316162109375
1,1621713,-22.08027458190918,8.383749961853027,-8.16235637664795,67.82865905761719
1,1621716,-3.286137580871582,31.015823364257812,17.001842498779297,44.81221008300781
1,1621717,14.968387603759766,19.86237335205078,-0.49100619554519653,-49.46967697143555
1,1621720,-31.36298179626465,-46.64109802246094,-35.19889450073242,-10.512341499328613
1,1621721,-7.28632926940918,-74.38251495361328,-19.748878479003906,11.162002563476562
1,1621724,22.066852569580078,58.6049919128418,13.933499336242676,-6.070506572723389
1,1621725,11.369365692138672,110.06476593017578,35.876747131347656,16.300905227661133
1,1621728,13.477726936340332,-92.1658706665039,27.64714241027832,12.188939094543457
1,1621730,-17.396432876586914,-94.10014343261719,-14.517265319824219,-43.70206832885742
1,1621732,-6.03252649307251,89.83585357666016,-54.73390579223633,-17.88556480407715
1,1621734,3.627140760421753,27.572532653808594,-15.34338092803955,71.59789276123047
1,1621736,4.944572448730469,-21.717544555664062,55.594757080078125,-14.139934539794922
1,1621738,-8.795883178710938,12.350494384765625,1.6483871936798096,-57.43320846557617
1,1621740,3.6512885093688965,-32.08821487426758,-30.852386474609375,24.89380645751953
1,1621742,26.991186141967773,-17.59505844116211,50.070064544677734,19.30303382873535
1,1621743,-45.894657135009766,33.42997360229492,3.1611099243164062,-5.498973369598389
1,1621746,-13.931992530822754,52.46127700805664,-87.9849853515625,-6.2110443115234375
1,1621747,34.804813385009766,-48.043853759765625,-0.44160887598991394,-5.306435585021973
1,1621750,-7.114811897277832,-49.198341369628906,73.09645080566406,-10.221124649047852
1,1621751,7.1391167640686035,65.59553527832031,4.722001552581787,13.591601371765137
1,1621754,23.495649337768555,5.4521965980529785,-43.46029281616211,9.024825096130371
1,1621755,-10.39529800415039,-46.16014099121094,-21.291955947875977,-27.7226619720459
1,1621758,-32.2251091003418,23.148366928100586,33.23091125488281,-3.4044907093048096
1,1621759,11.297408103942871,-8.214219093322754,22.80929946899414,14.08644962310791
1,1621762,24.130340576171875,-53.645668029785156,-17.686941146850586,9.56352710723877
1,1621763,-26.529821395874023,35.398773193359375,-19.577011108398438,22.742483139038086
1,1621766,-9.77328109741211,47.923824310302734,12.731449127197266,29.320581436157227
1,1621767,23.127893447875977,-7.735112190246582,33.9205322265625,-34.568660736083984
1,1621770,-4.457280158996582,-12.851750373840332,-24.729297637939453,-75.8555908203125
1,1621771,-22.251846313476562,-22.047637939453125,-15.5798921585083,28.391845703125
1,1621774,13.635855674743652,7.659905433654785,17.346546173095703,42.60328674316406
1,1621775,22.19215965270996,21.767742156982422,0.42452260851860046,3.1828699111938477
1,1621778,1.3013707399368286,4.110726356506348,-6.097714900970459,20.820844650268555
1,1621781,-3.7896721363067627,-7.944116592407227,8.033449172973633,-43.74415588378906
1,1621781,-9.035658836364746,-39.881832122802734,18.99553680419922,-32.56428146362305
1,1621784,16.666000366210938,46.83723831176758,-36.97307205200195,9.313122749328613
1,1621785,-11.484018325805664,53.766822814941406,-13.7593994140625,11.941119194030762
1,1621788,-12.126742362976074,-99.26763916015625,33.80152893066406,32.629398345947266
1,1621789,32.7568359375,-35.54212188720703,-34.38129425048828,-15.120784759521484
1,1621792,-32.927978515625,58.23573684692383,-19.360788345336914,-14.452672958374023
1,1621793,-33.074920654296875,-2.3060009479522705,51.329830169677734,26.972909927368164
1,1621796,24.34271240234375,13.147041320800781,32.018096923828125,10.08344841003418
1,1621797,8.127806663513184,26.037452697753906,-33.410526275634766,-11.369874954223633
1,1621800,2.280590772628784,-35.112754821777344,-29.09632682800293,14.389806747436523
1,1621801,9.617904663085938,-36.27194595336914,26.353139877319336,43.05388259887695
1,1621804,10.290040969848633,56.362030029296875,-2.6934359073638916,-69.31430053710938
1,1621805,-12.02236270904541,44.16627883911133,-42.51225662231445,-69.13671112060547
1,1621808,-26.7000732421875,-87.21417236328125,22.355985641479492,82.63652038574219
1,1621809,14.919364929199219,-13.925362586975098,43.28809356689453,8.767589569091797
1,1621812,11.3403902053833,60.15785217285156,-19.218461990356445,-76.39569091796875
1,1621813,-9.544970512390137,-15.724587440490723,12.326493263244629,24.049802780151367
1,1621816,5.961857318878174,14.976800918579102,-22.392641067504883,49.69367599487305
1,1621817,-7.947947978973389,6.450204849243164,-52.009803771972656,-21.997434616088867
1,1621820,2.639787435531616,-52.304908752441406,59.24212646484375,-24.203231811523438
1,1621821,12.231648445129395,-42.55509567260742,31.729228973388672,-7.04269552230835
1,1621824,9.505645751953125,74.70072937011719,-25.96196174621582,27.96107292175293
1,1621825,-16.384540557861328,86.69800567626953,-15.455894470214844,32.57197570800781
1,1621828,-20.202157974243164,-103.13217163085938,18.728073120117188,8.136650085449219
1,1621829,11.629006385803223,-65.81881713867188,18.683273315429688,24.791231155395508
1,1621832,-17.217470169067383,55.787940979003906,-53.412391662597656,-87.13135528564453
1,1621833,15.78884506225586,44.183006286621094,24.990848541259766,-46.31739807128906
1,1621836,32.095306396484375,26.77180290222168,16.935604095458984,119.84260559082031
1,1621837,-7.78563928604126,-47.23324203491211,-90.13450622558594,-6.913181304931641
1,1621840,11.693346977233887,-31.348295211791992,58.76412582397461,-20.496585845947266
1,1621841,-3.0923428535461426,36.20317840576172,101.47149658203125,42.879940032958984
1,1621844,-26.94730567932129,2.7272017002105713,-79.58621215820312,-80.99544525146484
1,1621845,-17.518482208251953,5.845107555389404,-51.42940139770508,-42.97639846801758
1,1621848,-0.7533813714981079,-29.53822898864746,45.24018478393555,66.37789916992188
1,1621849,21.8233699798584,-28.317472457885742,-5.200425148010254,34.7425651550293
1,1621852,11.840106010437012,53.06007385253906,-17.709802627563477,-35.66310119628906
1,1621853,2.8399791717529297,27.08818817138672,7.5485520362854,-26.14063835144043
1,1621856,-12.454026222229004,8.75381851196289,31.275360107421875,9.224912643432617
1,1621857,-27.05994987487793,-35.618019104003906,0.7107350826263428,0.8907994627952576
1,1621860,1.0655407905578613,-53.28982925415039,-16.215801239013672,-4.942337989807129
1,1621861,8.207462310791016,14.423829078674316,12.753236770629883,-3.3564422130584717
1,1621864,16.21942901611328,44.24159622192383,-34.84682846069336,38.925296783447266
1,1621865,13.840608596801758,37.616939544677734,-4.481668472290039,21.553091049194336
1,1621868,-8.893436431884766,-61.820858001708984,42.3410758972168,-17.610286712646484
1,1621869,2.2713968753814697,-53.85307312011719,0.9204689264297485,2.3791370391845703
1,1621872,9.64280891418457,68.33084106445312,-7.348232746124268,-25.756752014160156
1,1621873,7.876502990722656,14.824992179870605,-19.984580993652344,-19.619897842407227
1,1621876,-8.864628791809082,-34.684757232666016,-2.0301706790924072,20.830408096313477
1,1621877,-40.91469955444336,32.9786376953125,30.777799606323242,23.16068458557129
1,1621880,-11.441336631774902,-32.93526840209961,-2.790759801864624,1.928104281425476
1,1621881,40.729774475097656,-44.16009521484375,-18.81184959411621,-23.21345329284668
1,1621884,11.92672348022461,79.78719329833984,-4.493002891540527,-21.045238494873047
1,1621885,-12.624195098876953,37.0352668762207,-16.92567253112793,-6.998744010925293
1,1621888,-16.78874969482422,-77.84867858886719,6.780416011810303,4.309650897979736
1,1621889,-2.0214900970458984,-25.111080169677734,26.778961181640625,28.149211883544922
1,1621892,23.260404586791992,30.040706634521484,-25.45602798461914,14.327484130859375
1,1621893,-8.768051147460938,6.163479804992676,3.029210329055786,-15.35343074798584
1,1621896,-13.610773086547852,53.56757736206055,28.4483699798584,-1.0711220502853394
1,1621897,15.730539321899414,19.09575653076172,-17.994691848754883,-8.627924919128418
1,1621900,8.532430648803711,-77.95647430419922,12.353137016296387,6.291884899139404
1,1621901,0.7755601406097412,-44.090606689453125,23.31884765625,20.52116584777832
1,1621904,-3.4362313747406006,80.08643341064453,-49.026763916015625,-33.08274841308594
1,1621905,-34.66356658935547,43.556602478027344,-54.04499816894531,-12.431732177734375
1,1621908,0.6110654473304749,-113.37198638916016,40.06589889526367,49.81210708618164
1,1621909,33.821048736572266,-46.0246696472168,51.346168518066406,-0.7578139305114746
1,1621912,15.263936042785645,100.85498046875,-37.967411041259766,-50.31552505493164
1,1621913,-19.43573760986328,31.747901916503906,2.1887803077697754,17.629364013671875
1,1621916,-39.08982467651367,-37.81422424316406,39.29973602294922,47.542823791503906
1,1621917,27.070985794067383,16.941795349121094,-23.042871475219727,-25.754114151000977
1,1621920,31.56943130493164,-38.60922622680664,-23.06171417236328,-30.52301025390625
1,1621921,-9.380448341369629,-33.340850830078125,-1.095740795135498,-7.142016410827637
1,1621924,-16.208450317382812,93.84085845947266,19.52179718017578,1.9732052087783813
1,1621925,-5.392444133758545,23.226703643798828,7.886639595031738,14.078412055969238
1,1621928,20.63481903076172,-92.37242126464844,-3.568265199661255,7.433862686157227
1,1621930,-3.067408323287964,-17.915056228637695,0.22695928812026978,11.013946533203125
1,1621932,-8.345232963562012,64.41392517089844,16.128482818603516,9.52379322052002
1,1621934,1.4691176414489746,-0.19611585140228271,8.338276863098145,2.948263168334961
1,1621936,-20.369308471679688,-20.92500877380371,-35.95589828491211,-46.48872756958008
1,1621938,-5.039163112640381,20.444168090820312,-15.103377342224121,-27.21779441833496
1,1621940,33.09305953979492,-20.899471282958984,14.249907493591309,54.45493698120117
1,1621942,2.277651309967041,-31.250411987304688,17.352577209472656,9.017717361450195
1,1621943,-29.842449188232422,28.795156478881836,-16.16866111755371,-32.086429595947266
1,1621946,18.35548973083496,61.390045166015625,6.14497709274292,19.558002471923828
1,1621947,11.910043716430664,-16.677980422973633,58.789466857910156,26.633399963378906
1,1621950,-13.095211029052734,-60.81418228149414,-55.37632751464844,-5.598714828491211
1,1621951,-1.24705171585083,7.149859428405762,-57.471961975097656,-30.748435974121094
1,1621954,-7.991660118103027,15.129311561584473,57.97224807739258,-3.262230157852173
1,1621955,25.180500030517578,-12.02362060546875,5.672778129577637,27.02750015258789
1,1621958,5.171857833862305,14.22143268585205,-13.104642868041992,0.9856478571891785
1,1621959,-35.495277404785156,-25.364316940307617,12.398469924926758,-8.00475025177002
1,1621962,-4.726201057434082,-52.954444885253906,4.709275722503662,3.2771856784820557
1,1621963,-1.1838916540145874,72.9581527709961,2.890444040298462,9.139948844909668
1,1621966,31.052825927734375,65.09095764160156,-28.9174861907959,-1.9499995708465576
1,1621967,24.7176570892334,-63.00898361206055,-12.799695014953613,-28.777151107788086
1,1621970,-50.074119567871094,-30.856246948242188,30.864206314086914,-37.86617660522461
1,1621971,-16.875757217407227,41.05918884277344,-19.811426162719727,31.952239990234375
1,1621974,28.27063751220703,15.87515926361084,-14.09594440460205,59.584964752197266
1,1621975,21.767051696777344,-7.345639228820801,47.55558395385742,-5.796427249908447
1,1621978,-31.50432777404785,14.79454517364502,1.40390145778656,-47.72481918334961
1,1621979,-37.0024528503418,-41.57489776611328,-27.398744583129883,-34.62234115600586
1,1621982,50.228118896484375,-44.216796875,4.51956033706665,53.548255920410156
1,1621983,15.68510627746582,61.42264175415039,-3.282302141189575,11.276106834411621
1,1621986,-14.067585945129395,50.62108612060547,-17.247135162353516,-117.14247131347656
1,1621987,21.202951431274414,-35.067508697509766,141.8590087890625,115.66188049316406
1,1621990,-11.339310646057129,-59.88200759887695,30.13585662841797,135.42674255371094
1,1621991,-31.75847816467285,-10.4099760055542,-213.33978271484375,-193.9425811767578
1,1621994,5.636902809143066,41.79536819458008,0.6254613399505615,-24.402748107910156
1,1621995,60.99323272705078,58.19670104980469,78.99724578857422,91.76179504394531
1,1621998,4.531352996826172,-10.83597183227539,-28.732364654541016,-52.66053009033203
1,1621999,-66.0815200805664,-79.1990737915039,-9.565537452697754,-7.132529258728027
1,1622002,-10.280108451843262,-14.722919464111328,-6.715859889984131,72.73060607910156
1,1622003,-7.619777679443359,54.27999496459961,-35.324302673339844,29.620723724365234
1,1622006,20.26041603088379,47.950050354003906,32.81726837158203,-49.416465759277344
1,1622007,43.212623596191406,-44.692298889160156,68.70659637451172,-14.321842193603516
1,1622010,-53.67107391357422,-58.31990051269531,-46.628204345703125,-22.769575119018555
1,1622011,-28.172651290893555,32.47150802612305,-30.40794563293457,-24.49319076538086
1,1622014,40.29310607910156,27.465816497802734,37.124263763427734,26.050678253173828
1,1622015,19.378520965576172,11.20030403137207,17.17325782775879,25.96999740600586
1,1622018,7.697343826293945,2.53542423248291,-16.562891006469727,-4.112450122833252
1,1622019,11.679220199584961,-41.93778610229492,2.2163426876068115,-8.135672569274902
1,1622022,-29.804410934448242,-29.999692916870117,56.065372467041016,6.4747724533081055
1,1622023,-24.693159103393555,63.45622634887695,-5.655902862548828,-0.550030529499054
1,1622026,38.291805267333984,24.38799476623535,-56.94102478027344,-9.312801361083984
1,1622027,-16.399106979370117,-43.67807388305664,17.033523559570312,33.94602966308594
1,1622030,-10.7178373336792,3.2866501808166504,2.873718023300171,-16.510719299316406
1,1622031,41.786956787109375,-6.560080528259277,-54.176937103271484,-77.45942687988281
1,1622034,-26.652463912963867,-3.6799511909484863,-10.304701805114746,70.75648498535156
1,1622035,13.433072090148926,27.007402420043945,52.40606689453125,54.146141052246094
1,1622038,-13.901923179626465,7.87008810043335,15.795692443847656,-73.99364471435547
1,1622039,-44.92987060546875,-36.305545806884766,-44.1793327331543,-36.22753143310547
1,1622042,76.24298095703125,-41.72945785522461,8.049001693725586,58.5536003112793
1,1622043,-16.81985092163086,72.40347290039062,43.7376823425293,25.156734466552734
1,1622046,-52.69014358520508,64.82209777832031,-3.5493407249450684,-64.56878662109375
1,1622047,36.52875900268555,-107.65631103515625,-43.797969818115234,-12.540994644165039
1,1622050,18.89291763305664,-44.6470947265625,18.788307189941406,45.11112594604492
1,1622051,-4.403578281402588,70.2878646850586,28.51568031311035,17.04908561706543
1,1622054,0.5670802593231201,38.94670867919922,-12.332277297973633,-37.152587890625
1,1622055,-0.636354923248291,-31.0789852142334,34.388309478759766,13.922313690185547
1,1622058,-38.71613311767578,-3.637608766555786,-10.626002311706543,32.5030403137207
1,1622059,-2.17767071723938,7.171242713928223,-61.19883346557617,-20.938716888427734
1,1622062,28.304597854614258,-95.00225830078125,2.868309736251831,-2.384784698486328
1,1622063,3.8652968406677246,37.91053009033203,33.793663024902344,-14.20373249053955
1,1622066,15.185859680175781,129.42529296875,4.811302661895752,-19.31694793701172
1,1622067,-12.212015151977539,-57.44486618041992,-23.805326461791992,57.32947540283203
1,1622070,-15.426961898803711,-79.64166259765625,-44.386680603027344,44.91419982910156
1,1622071,29.18515396118164,51.76175308227539,9.416187286376953,-37.75483703613281
1,1622074,3.3836302757263184,35.73780059814453,68.20223236083984,-100.65277099609375
1,1622075,-39.05982971191406,1.777970790863037,-5.464515686035156,-40.76765060424805
1,1622078,26.299545288085938,56.801368713378906,8.611132621765137,146.79200744628906
1,1622079,54.73497009277344,-34.04630661010742,31.1717586517334,71.14605712890625
1,1622082,-57.31443786621094,-105.77250671386719,-63.21035385131836,-92.28973388671875
1,1622083,-65.92012023925781,32.32544708251953,-19.02955436706543,-35.229461669921875
1,1622086,28.506847381591797,66.36347961425781,31.00138282775879,12.928869247436523
1,1622087,35.15885543823242,-45.089115142822266,-51.35836410522461,-26.276567459106445
1,1622090,45.34181594848633,-21.832618713378906,13.177530288696289,11.608057022094727
1,1622091,-34.409454345703125,18.758094787597656,79.43102264404297,47.626220703125
1,1622094,-120.12464904785156,-37.55379867553711,-13.218798637390137,-15.421714782714844
1,1622095,52.99458312988281,3.9132041931152344,-34.60255432128906,-21.366357803344727
1,1622098,74.43269348144531,11.199015617370605,-19.542081832885742,10.396770477294922
1,1622099,-37.68174743652344,-18.443374633789062,-6.203271389007568,3.0163865089416504
1,1622102,19.765472412109375,-1.4111921787261963,44.37943649291992,21.027496337890625
1,1622103,18.651391983032227,47.463443756103516,25.320587158203125,-15.889885902404785
1,1622106,-31.40043067932129,34.30438232421875,-59.90401077270508,-57.75709533691406
1,1622107,-12.72785472869873,-29.622074127197266,11.793395042419434,17.113916397094727
1,1622110,25.539936065673828,-13.29017448425293,35.11378479003906,52.35393142700195
1,1622111,17.653139114379883,-2.839946746826172,-37.99082565307617,-2.1021690368652344
1,1622114,-34.6379280090332,7.430353164672852,13.706075668334961,-38.44412612915039
1,1622115,8.570536613464355,-14.274698257446289,-16.926862716674805,-0.5709356665611267
1,1622118,15.446883201599121,-2.662632942199707,-48.04179000854492,22.537784576416016
1,1622119,-3.524091958999634,12.796977043151855,36.93586349487305,-19.737913131713867
2,1622124,10.720279693603516,10.91843032836914,3.83158016204834,-40.323829650878906
2,1622124,-33.261470794677734,34.449188232421875,-11.582620620727539,35.130008697509766
2,1622125,12.95036792755127,-41.13549041748047,38.37552261352539,68.00933074951172
2,1622128,15.145203590393066,-76.34657287597656,6.60897970199585,-11.357422828674316
2,1622129,-24.880970001220703,1.4436028003692627,5.226009845733643,-26.826366424560547
2,1622132,1.8216650485992432,72.1819076538086,-17.16486167907715,10.204511642456055
2,1622133,-15.919354438781738,31.628681182861328,-19.177438735961914,3.623295545578003
2,1622136,4.007834434509277,-27.60658836364746,7.179478645324707,-18.277406692504883
2,1622137,32.207157135009766,8.280923843383789,-5.116825580596924,-22.186235427856445
2,1622140,-19.91988182067871,7.554623603820801,32.83804702758789,24.344980239868164
