Aktueller Finger,timestamp_ms,sensor_0,sensor_1,sensor_2,sensor_3
0,159980,3.9100992679595947,47.38039779663086,-9.69177532196045,-30.454343795776367
0,159980,-6.933079242706299,-77.54145812988281,28.50211524963379,-71.02689361572266
0,159980,8.740036964416504,48.17080307006836,4.120165824890137,41.5957145690918
0,159980,-17.551307678222656,51.97510528564453,-10.589585304260254,15.703245162963867
0,159980,4.161839962005615,-25.002023696899414,2.8228769302368164,-7.330508232116699
0,159980,13.312779426574707,-29.694467544555664,4.586944103240967,-9.642884254455566
0,159980,-4.110657215118408,-38.614776611328125,-17.112361907958984,-22.288536071777344
0,159981,4.069433212280273,-32.3328971862793,-15.923026084899902,7.513472080230713
0,159981,1.783921480178833,-16.33379554748535,15.369811058044434,22.526874542236328
0,159981,-6.015338897705078,2.656243085861206,-1.4996545314788818,17.09557342529297
0,159981,-11.92343521118164,35.88401412963867,-14.290525436401367,0.5783020853996277
0,159981,-4.640338897705078,26.64541244506836,5.804926872253418,-9.217841148376465
0,159982,-16.32202911376953,-8.111865043640137,8.199028968811035,-1.809072732925415
0,159982,-0.5166262984275818,3.5401699542999268,0.8354016542434692,-10.755091667175293
0,159982,28.043132781982422,-12.590848922729492,-5.670534610748291,3.07362961769104
0,159982,1.5071426630020142,-45.10369110107422,-0.7627213597297668,14.973908424377441
0,159982,-1.9156839847564697,-27.319807052612305,6.4145002365112305,-3.664231300354004
0,159982,9.876113891601562,-1.2657063007354736,-3.9794223308563232,2.142122268676758
0,159983,-10.009004592895508,2.246061086654663,2.95759916305542,7.376166343688965
0,159983,-12.283926010131836,8.258514404296875,18.466724395751953,-4.67865514755249
0,159983,15.83231258392334,12.168794631958008,-16.325294494628906,16.667064666748047
0,159983,1.478724718093872,13.444228172302246,-13.148476600646973,27.803251266479492
0,159983,-12.256585121154785,20.742713928222656,22.196420669555664,-34.16345977783203
0,159983,7.816186904907227,-0.8906288146972656,0.278702974319458,-51.40414810180664
0,159984,4.413724422454834,-30.72113037109375,-18.138914108276367,27.980079650878906
0,159984,-8.723747253417969,-22.255481719970703,-0.8521477580070496,22.751174926757812
0,159984,-12.765183448791504,-13.022765159606934,-6.760937690734863,-32.605247497558594
0,159984,4.713527679443359,-15.06773567199707,-11.7940034866333,3.554436206817627
0,159984,3.313023328781128,-12.229057312011719,21.81959342956543,12.807971000671387
0,159985,-0.6826412677764893,15.459492683410645,7.8495192527771,-11.819477081298828
0,159985,11.894707679748535,42.93093490600586,-24.54825210571289,11.142608642578125
0,159985,8.520089149475098,17.138797760009766,4.739201068878174,9.931228637695312
0,159985,2.3500401973724365,4.231112957000732,24.006853103637695,-19.07180404663086
0,159985,-6.101825714111328,17.00360107421875,19.590587615966797,-13.29138469696045
0,159985,17.67351722717285,1.36758553981781,1.640257477760315,2.9736952781677246
0,159986,11.354840278625488,-13.608882904052734,-15.34528923034668,12.985445976257324
0,159986,-20.682327270507812,-1.7559294700622559,-7.435109615325928,10.546385765075684
0,159986,-3.900665760040283,4.77719259262085,4.0219035148620605,4.981994152069092
0,159986,-3.056302070617676,-5.1677680015563965,5.555809497833252,8.51649284362793
0,159986,1.0950524806976318,-11.73215389251709,-10.637145042419434,-7.564120769500732
0,159986,12.303129196166992,-9.122332572937012,-8.39770793914795,4.535022735595703
0,159987,-12.67836856842041,4.0720953941345215,3.2357637882232666,5.860057830810547
0,159987,-10.855648040771484,12.525957107543945,12.018292427062988,-8.209212303161621
0,159987,6.910837173461914,-22.013059616088867,-11.328984260559082,5.718753337860107
0,159987,-16.456321716308594,-6.2691240310668945,-23.003206253051758,0.2979317307472229
0,159987,-7.45269775390625,37.00729751586914,3.2517380714416504,-8.037425994873047
0,159987,6.250635147094727,-33.00048065185547,5.458677768707275,-3.814638376235962
0,159988,-2.7520906925201416,-44.47777557373047,16.89314079284668,-0.44377174973487854
0,159988,11.40466022491455,26.528295516967773,5.22033166885376,-8.108131408691406
0,159988,-7.019171237945557,6.3524909019470215,-28.68733024597168,1.3765497207641602
0,159988,-4.499110221862793,-6.274224758148193,-19.566787719726562,-3.3422439098358154
0,159988,10.826281547546387,29.447498321533203,16.080598831176758,2.7314560413360596
0,159988,-7.227621555328369,11.056870460510254,23.233694076538086,3.5580222606658936
0,159989,7.087179183959961,-19.45138168334961,1.7605770826339722,-16.797136306762695
0,159989,4.528309345245361,13.1121187210083,-0.7193201780319214,0.6112765669822693
0,159989,0.8870735168457031,36.43919372558594,1.4446070194244385,1.1106126308441162
0,159989,9.57187271118164,-9.938862800598145,0.7809120416641235,-2.644627809524536
0,159989,-1.7705830335617065,-5.064386367797852,18.253929138183594,-7.532076358795166
0,159989,5.985207557678223,33.831642150878906,4.129709720611572,-5.3170037269592285
0,159990,0.7174053192138672,3.533362627029419,-29.401302337646484,3.210689067840576
0,159990,-15.130393028259277,-19.943708419799805,4.019044876098633,13.775980949401855
0,159990,-9.628449440002441,35.25285720825195,20.158823013305664,11.241788864135742
0,159990,4.446033000946045,23.406265258789062,-19.242393493652344,-13.212669372558594
0,160245,-36.49937057495117,35.28197479248047,3.394364833831787,2.3953356742858887
0,160248,-65.8951416015625,130.1720428466797,96.99434661865234,-5.118935585021973
0,160249,24.328536987304688,-37.785606384277344,67.9338150024414,-22.70088005065918
0,160252,116.38933563232422,-186.30252075195312,-128.6316680908203,34.69007110595703
0,160253,84.96178436279297,-52.10432434082031,-168.4336395263672,18.036653518676758
0,273768,-40.69823455810547,63.34022521972656,65.70333862304688,-42.57362365722656
0,273769,-44.03242874145508,38.509986877441406,128.18788146972656,22.630176544189453
0,273769,28.12147331237793,-49.790252685546875,-52.521522521972656,12.833810806274414
0,273769,-4.0659871101379395,-47.51923751831055,-52.764305114746094,-33.927947998046875
0,273769,-25.993288040161133,-25.707744598388672,12.130767822265625,31.25509262084961
0,273769,-6.144120693206787,-3.6082563400268555,-9.306798934936523,15.847310066223145
0,273769,7.315292835235596,0.04925164580345154,-17.52213478088379,-29.659414291381836
0,273770,-7.812018394470215,-19.18998146057129,-7.778861045837402,-5.241313457489014
0,273770,-33.172367095947266,27.582429885864258,16.51886749267578,12.965043067932129
0,273770,-15.277015686035156,15.683719635009766,30.097997665405273,12.884793281555176
0,273770,3.179351806640625,11.089003562927246,16.82209014892578,-10.114005088806152
0,273770,-0.05655484274029732,20.560985565185547,8.219377517700195,2.0420138835906982
0,273770,2.6552748680114746,-2.665316104888916,-2.5740768909454346,4.819516181945801
0,273771,21.853668212890625,-2.0160317420959473,-28.044090270996094,-19.957595825195312
0,273771,17.002159118652344,-24.396129608154297,-13.780891418457031,3.880398750305176
0,273771,-14.298378944396973,-17.497507095336914,11.304032325744629,14.44467544555664
0,273771,7.630741119384766,19.634790420532227,16.43501853942871,-5.7245659828186035
0,273771,10.129473686218262,-0.2063060849905014,-3.481278419494629,-12.91279411315918
0,273771,-31.551158905029297,-10.0159912109375,-18.665096282958984,16.566898345947266
0,273772,-14.213879585266113,29.433025360107422,5.332522869110107,17.21847152709961
0,273772,0.6108266115188599,19.423751831054688,18.061752319335938,-20.959381103515625
0,273772,-15.004404067993164,1.5222117900848389,10.827508926391602,-11.38657283782959
0,273772,-3.024442672729492,16.266368865966797,17.927139282226562,19.312789916992188
0,273772,14.485661506652832,0.29913967847824097,5.725553512573242,-5.379417419433594
0,273772,11.970110893249512,-7.303525924682617,-15.922709465026855,-24.020206451416016
0,273773,0.6025835871696472,-11.351430892944336,-6.445924758911133,3.121274471282959
0,273773,18.228042602539062,-28.9813232421875,-4.1018266677856445,15.31612777709961
0,273773,6.601334571838379,2.7780072689056396,4.0474138259887695,-9.961788177490234
0,273773,-27.71711540222168,20.46896743774414,7.575664520263672,-17.95545768737793
0,273773,-13.1220703125,-0.4990934133529663,-10.512642860412598,21.689483642578125
0,273774,4.543407917022705,13.6087064743042,0.6338221430778503,13.88904857635498
0,273774,13.030208587646484,-7.94065523147583,12.129792213439941,-11.995271682739258
0,273774,-7.700177192687988,-28.64718246459961,-11.513310432434082,1.1391242742538452
0,273774,-9.284688949584961,5.860263824462891,-17.025501251220703,0.6088665127754211
0,273774,7.880486965179443,3.464425563812256,11.695981979370117,1.8464244604110718
0,273774,8.806458473205566,12.935803413391113,13.401406288146973,8.155736923217773
0,273775,9.148916244506836,17.318634033203125,-15.718960762023926,-14.718376159667969
0,273775,-8.365811347961426,-8.203840255737305,-17.27056121826172,-2.0339841842651367
0,273775,9.314759254455566,-4.0694193840026855,11.560887336730957,7.426788806915283
0,273775,1.8304067850112915,-13.209024429321289,16.741701126098633,-4.645352840423584
0,273775,-18.32004165649414,4.857865810394287,13.83765697479248,14.786463737487793
0,273775,6.376450061798096,30.515413284301758,14.753739356994629,-16.237030029296875
0,273776,11.871685981750488,-14.508769035339355,-15.99284553527832,1.6717281341552734
0,273776,4.8602986335754395,-17.70892333984375,-15.147493362426758,31.59173583984375
0,273776,-7.995457172393799,20.23025894165039,8.319746017456055,-14.480569839477539
0,273776,-11.618404388427734,6.950460433959961,1.0669655799865723,-11.158608436584473
0,273776,-2.9325990676879883,-11.575031280517578,1.1247358322143555,3.049532175064087
0,273776,8.358964920043945,-5.568727016448975,9.20521354675293,6.952420234680176
0,273777,0.8381844162940979,3.5228893756866455,-2.1683976650238037,3.280487537384033
0,273777,-31.025846481323242,-3.1839592456817627,-11.701754570007324,-6.732559680938721
0,273777,-16.398799896240234,23.019113540649414,16.085529327392578,0.10525435954332352
0,273778,-11.220601081848145,59.17843246459961,79.8646011352539,-5.550601959228516
0,273778,-9.310201644897461,18.220325469970703,46.67079544067383,-13.136977195739746
0,273779,35.33176803588867,-37.065704345703125,-57.44944763183594,0.13888198137283325
0,273779,19.862512588500977,-30.713083267211914,-30.65965461730957,20.39224624633789
0,273779,-4.455900192260742,0.39644575119018555,2.8379476070404053,4.116454601287842
0,273780,10.014768600463867,-18.27151870727539,-20.02034568786621,-15.21259880065918
0,273782,44.97661590576172,-67.14208984375,-62.33218002319336,-13.801613807678223
0,273783,65.93876647949219,-17.1573543548584,-55.90044021606445,-8.041600227355957
0,273786,48.2305793762207,3.596909999847412,-35.7646369934082,29.295955657958984
0,273787,23.148685455322266,-50.71070098876953,-46.114906311035156,12.308752059936523
0,273790,-47.48685836791992,10.756044387817383,43.03095626831055,-40.90974807739258
0,273791,-46.8310661315918,17.632658004760742,20.262935638427734,-3.386665105819702
0,273794,-21.376745223999023,-12.433515548706055,-42.026302337646484,12.614117622375488
0,273795,-63.47494888305664,30.81373405456543,12.859457969665527,-8.440048217773438
0,273798,-88.87816619873047,78.1219253540039,129.8083953857422,24.86869239807129
0,273799,-54.880306243896484,112.80724334716797,164.6473846435547,30.08916664123535
0,273802,90.00294494628906,-36.60867691040039,-35.666019439697266,-5.372406959533691
0,273803,91.88030242919922,-99.28569030761719,-126.27176666259766,-43.31251907348633
0,273806,18.896533966064453,-21.978485107421875,-52.662662506103516,0.46766397356987
0,273807,24.721376419067383,-28.8056640625,12.675291061401367,48.55441665649414
0,273810,-49.29420852661133,60.70237350463867,46.210845947265625,-7.790804862976074
0,273811,-34.57078552246094,3.5598292350769043,-44.70763397216797,-10.101304054260254
0,273814,13.412115097045898,-92.45439910888672,-46.93803405761719,-27.469810485839844
0,273815,-9.75744915008545,17.30034828186035,25.327816009521484,-41.88051223754883
0,273929,67.07637023925781,56.1324348449707,23.988420486450195,29.734264373779297
0,273929,64.79352569580078,24.48542594909668,27.703744888305664,23.776315689086914
0,273929,-76.99478149414062,-15.310990333557129,-8.751144409179688,-11.557767868041992
0,273930,-65.81266784667969,-16.335416793823242,-11.161776542663574,7.6082024574279785
0,273930,-8.742146492004395,46.927085876464844,37.24205017089844,7.9568681716918945
0,273930,-26.62514877319336,34.44635009765625,28.177200317382812,-5.528558254241943
0,273930,7.475297927856445,-39.49979019165039,-19.080101013183594,6.432628154754639
0,273930,38.22954177856445,-18.611539840698242,-22.445802688598633,6.432577133178711
0,273930,22.414884567260742,-13.969358444213867,-21.554424285888672,-2.0272982120513916
0,273931,17.738880157470703,-29.44295883178711,-22.040088653564453,4.14968204498291
0,273931,5.637372016906738,-0.3595947027206421,-10.655458450317383,-2.2143609523773193
0,273931,-25.340044021606445,-25.916828155517578,-15.632367134094238,-13.11230754852295
0,273931,-39.442970275878906,0.5446978211402893,8.357094764709473,-3.999223232269287
0,273931,-22.991464614868164,51.84145736694336,27.47934341430664,4.308932304382324
0,273931,10.726408004760742,20.69896125793457,16.469436645507812,5.5976243019104
0,273932,2.3431074619293213,5.9826340675354,13.714529037475586,8.324162483215332
0,273932,6.27092981338501,16.71347999572754,14.243852615356445,-3.650998115539551
0,273932,38.25567626953125,-15.72110652923584,-6.039296627044678,-15.298666000366211
0,273932,19.23788070678711,-25.511777877807617,-20.421598434448242,-5.633174896240234
0,273932,7.664035320281982,22.71343231201172,-1.7858284711837769,-1.1343371868133545
0,273932,6.764482498168945,25.355125427246094,7.914947986602783,-5.273481369018555
0,273933,-12.230138778686523,-19.440013885498047,-4.585668563842773,8.32673454284668
0,273933,-22.467761993408203,-21.60019874572754,-3.8931186199188232,18.93252182006836
0,273933,-17.208173751831055,13.035961151123047,17.80027961730957,-12.723701477050781
0,273933,-10.472857475280762,35.66837692260742,16.936933517456055,-7.229302883148193
0,273933,-6.298046112060547,-5.079975605010986,-15.816864967346191,16.460933685302734
0,273934,9.113007545471191,-35.29621505737305,-4.642072677612305,-12.430349349975586
0,273934,6.371698379516602,-2.6930036544799805,28.4376277923584,13.572749137878418
0,273934,1.3206517696380615,-3.3883957862854004,-11.102683067321777,29.657115936279297
0,273934,13.341243743896484,-11.407724380493164,-39.630104064941406,-13.682957649230957
0,273934,-8.174220085144043,15.535757064819336,13.291051864624023,-13.604914665222168
0,273934,-11.69719409942627,8.048541069030762,8.641960144042969,13.7059965133667
0,273934,13.762094497680664,-19.9943904876709,-9.140361785888672,-2.9645557403564453
0,273935,-9.209184646606445,-6.4035868644714355,25.056793212890625,-19.7835636138916
0,273935,-25.58614730834961,18.21267318725586,14.53264331817627,12.929338455200195
0,273935,11.039884567260742,24.149105072021484,6.901184558868408,-2.0724282264709473
0,273935,26.7309627532959,15.423046112060547,-4.1639018058776855,-25.627504348754883
0,273935,-6.3222246170043945,-21.153139114379883,-32.90399169921875,1.8155779838562012
0,273936,-11.288171768188477,-24.892154693603516,19.215112686157227,22.908967971801758
0,273936,14.854969024658203,14.636307716369629,23.0567626953125,3.3736443519592285
0,273936,6.742883682250977,-4.761986255645752,-38.05467987060547,-8.451005935668945
0,273936,-9.803009033203125,-7.902177333831787,-11.903026580810547,-9.327536582946777
0,273936,-8.423863410949707,31.842971801757812,-0.5225471258163452,-17.29108238220215
0,273936,-13.232710838317871,-2.5102286338806152,-7.275870323181152,17.93940544128418
0,273937,-7.544954776763916,-30.88157844543457,28.399450302124023,12.550259590148926
0,273937,22.58993148803711,7.841605186462402,4.408567905426025,-23.88935089111328
0,273937,15.751739501953125,27.820384979248047,-10.434835433959961,-6.875680923461914
0,273937,-23.670024871826172,-11.835603713989258,21.868555068969727,18.956924438476562
0,273937,-7.449133396148682,-17.9184627532959,2.2719645500183105,16.33932113647461
0,273937,16.57426643371582,26.211729049682617,3.2627034187316895,2.6989424228668213
0,273938,2.1997251510620117,20.05916976928711,6.6677985191345215,-4.038160800933838
0,273938,0.636746346950531,-27.367183685302734,-6.207510471343994,5.7053070068359375
0,273938,-0.2849862575531006,-21.399694442749023,12.693608283996582,-12.601297378540039
0,273938,-4.132401466369629,19.42367935180664,-11.845641136169434,-21.099031448364258
0,273938,4.479182243347168,-5.006105422973633,-28.806129455566406,22.45688819885254
0,273938,-3.673593044281006,-13.832026481628418,8.976798057556152,17.52398681640625
0,273939,-10.834697723388672,10.145893096923828,11.174051284790039,-8.332926750183105
0,273940,10.197787284851074,24.294677734375,-9.765064239501953,-26.65167808532715
0,273940,31.420618057250977,-2.24295711517334,-13.458909034729004,-24.786409378051758
0,273940,8.619836807250977,-45.431495666503906,-3.7777512073516846,29.5386905670166
0,273940,-0.5895236730575562,-5.467174053192139,-6.311610698699951,27.730125427246094
0,273941,1.6975830793380737,22.397563934326172,-21.4912109375,-8.353236198425293
0,273942,7.422789096832275,-41.18983840942383,-44.59781265258789,-13.851371765136719
0,273943,41.97383117675781,-61.63410949707031,-36.664886474609375,-24.78927993774414
0,273946,48.861820220947266,-18.79738998413086,-38.14503860473633,-8.53072452545166
0,273947,5.085488319396973,23.960758209228516,7.419136047363281,34.834877014160156
0,273950,-47.279571533203125,49.35537338256836,108.8429183959961,21.08022689819336
0,273951,-59.150062561035156,-27.741443634033203,-28.786344528198242,-22.22666358947754
0,273954,-24.86758041381836,0.4330037236213684,-69.6942367553711,-17.94439697265625
0,273955,10.268213272094727,69.66087341308594,80.27127075195312,21.66510581970215
0,273958,-86.81351470947266,57.594337463378906,125.01888275146484,12.063490867614746
0,273959,-84.20500183105469,75.99899291992188,94.612548828125,-27.91622543334961
0,273962,118.60906982421875,-65.01360321044922,-90.89188385009766,8.212541580200195
0,273963,100.96855926513672,-113.19297790527344,-108.30213165283203,43.64863967895508
0,273966,-13.640192985534668,-0.8430850505828857,-0.0025464119389653206,-17.538789749145508
0,273967,8.886857032775879,20.910911560058594,-1.763858437538147,-18.701688766479492
0,273970,-20.287120819091797,31.304370880126953,43.96651840209961,12.418792724609375
0,273971,-35.66899108886719,-18.231977462768555,-46.715824127197266,-62.635860443115234
0,273974,-9.922422409057617,-37.53433609008789,-87.1327896118164,-15.189318656921387
0,273975,-18.924898147583008,4.909419536590576,53.81947326660156,83.93257141113281
0,273978,-38.323585510253906,98.13645935058594,136.78834533691406,4.410759925842285
0,273979,-26.794404983520508,102.00361633300781,85.03797149658203,-53.953269958496094
0,274104,110.29198455810547,-163.77842712402344,-149.96636962890625,25.91413688659668
0,274104,81.85530853271484,-118.39231872558594,-121.37939453125,27.024120330810547
0,274104,-101.49736022949219,124.75833892822266,102.34444427490234,-29.735126495361328
0,274104,-38.64154052734375,35.747711181640625,45.252105712890625,-11.73068618774414
0,274104,37.16301345825195,-24.100601196289062,-25.332679748535156,25.341453552246094
0,274105,23.993072509765625,7.569718837738037,-14.085755348205566,12.427704811096191
0,274105,49.019813537597656,-17.745983123779297,-16.884624481201172,-27.47308921813965
0,274105,32.00558853149414,-28.39640998840332,-13.563444137573242,-9.83456039428711
0,274105,13.650254249572754,-18.361356735229492,-34.057010650634766,14.124031066894531
0,274105,-25.75767707824707,2.4355995655059814,-7.997186660766602,7.174112319946289
0,274105,-58.45672607421875,30.46246910095215,50.56905746459961,-3.924656391143799
0,274106,-23.20283317565918,39.23974609375,57.479530334472656,-9.1879243850708
0,274106,-15.392477989196777,8.40233039855957,30.55130386352539,-3.437598705291748
0,274106,-22.6352596282959,-5.4075727462768555,-1.3282417058944702,19.764711380004883
0,274106,-1.3131896257400513,22.40792465209961,2.386880397796631,21.222877502441406
0,274106,24.267375946044922,-11.451925277709961,1.7501593828201294,-4.733443737030029
0,274106,29.43838882446289,-52.27618408203125,-40.840179443359375,-16.86281967163086
0,274107,12.133962631225586,-16.139896392822266,-42.49490737915039,-19.51512908935547
0,274107,-0.6149857640266418,10.460245132446289,3.7461886405944824,9.132501602172852
0,274107,-22.54924774169922,18.282878875732422,14.500006675720215,22.96055030822754
0,274107,-22.391382217407227,8.014097213745117,-3.4663000106811523,-16.84429359436035
0,274107,-14.275087356567383,13.851213455200195,18.802078247070312,-20.663013458251953
0,274107,-16.620553970336914,17.824840545654297,17.2353572845459,-0.7233795523643494
0,274108,-9.716609954833984,-5.844418048858643,-13.972670555114746,5.249089241027832
0,274108,3.4237427711486816,-15.414398193359375,4.955609321594238,11.489298820495605
0,274108,15.650256156921387,1.7601847648620605,0.22580692172050476,-7.193325042724609
0,274108,23.708423614501953,3.3843166828155518,-18.508230209350586,-7.640166282653809
0,274108,29.043548583984375,-47.1390380859375,-16.289264678955078,7.00545597076416
0,274109,5.911301612854004,-74.40120697021484,-27.970632553100586,8.691410064697266
0,274109,-10.217535972595215,26.943065643310547,-13.675494194030762,1.312860369682312
0,274109,-15.675407409667969,69.72666931152344,2.5305678844451904,-5.160211086273193
0,274109,-9.758033752441406,-25.809377670288086,20.9996337890625,5.730372905731201
0,274109,15.983173370361328,-2.358957290649414,8.656688690185547,-2.408121109008789
0,274109,7.2198638916015625,29.081478118896484,4.670762062072754,4.160645008087158
0,274110,-9.831551551818848,-9.473373413085938,9.749180793762207,21.789705276489258
0,274110,-1.2477809190750122,-4.677121162414551,-20.790220260620117,-0.13038042187690735
0,274110,13.048096656799316,6.522983551025391,4.343479156494141,-20.800243377685547
0,274110,23.66306495666504,-2.601316452026367,-12.66454792022705,-7.304187774658203
0,274110,-7.238614082336426,-19.163196563720703,-11.907744407653809,23.205211639404297
0,274110,-12.2823486328125,14.789456367492676,28.624263763427734,-1.1208266019821167
0,274111,2.932037353515625,24.22492027282715,-5.373060703277588,-22.331707000732422
0,274111,-28.65949821472168,-6.055913925170898,-3.050992488861084,11.401257514953613
0,274111,-7.829475402832031,7.406886100769043,5.291171550750732,2.23783802986145
0,274111,17.720224380493164,9.870293617248535,15.094217300415039,-3.7118403911590576
0,274111,4.3147759437561035,-1.7564735412597656,37.97331237792969,3.738034725189209
0,274111,5.523567199707031,-11.942965507507324,-15.527424812316895,-11.925795555114746
0,274112,-13.296730041503906,-20.619916915893555,-25.60631561279297,6.433868885040283
0,274112,-2.5745973587036133,5.041512966156006,15.032845497131348,18.5255126953125
0,274112,19.017070770263672,19.144041061401367,-7.554052829742432,-16.560598373413086
0,274112,-13.804214477539062,-14.454510688781738,-8.252016067504883,-21.387569427490234
0,274112,-10.365127563476562,-6.199639797210693,11.902751922607422,6.024744987487793
0,274112,10.877405166625977,25.556299209594727,-2.972290277481079,3.987952470779419
0,274113,-13.002551078796387,6.855493068695068,-6.532547950744629,5.049074649810791
0,274113,-19.73542022705078,-18.01039695739746,24.928817749023438,1.3136866092681885
0,274113,8.353900909423828,1.722951054573059,11.991484642028809,-11.137590408325195
0,274113,15.29761028289795,6.792768955230713,-35.32326126098633,4.500214576721191
0,274113,-10.33469295501709,-15.719965934753418,-3.7098636627197266,-2.9562065601348877
0,274113,5.198680877685547,4.1103901863098145,1.5489524602890015,-17.051069259643555
0,274114,16.641765594482422,-16.53864860534668,-8.630314826965332,3.7592265605926514
0,274114,-9.041987419128418,-15.142145156860352,15.380009651184082,7.310666084289551
0,274114,3.2164924144744873,33.70698547363281,-20.19683837890625,3.0525214672088623
0,274114,-17.664995193481445,4.363663673400879,5.399519443511963,15.54928207397461
0,274115,-41.38340759277344,-15.986648559570312,64.25037384033203,0.06058740243315697
0,274116,0.7597691416740417,24.278568267822266,21.9207706451416,-3.845607280731201
0,274116,19.262794494628906,20.401565551757812,-16.41204071044922,14.04794979095459
0,274116,-1.4063796997070312,-11.216911315917969,-14.312396049499512,1.736702799797058
0,274116,14.996149063110352,9.264260292053223,-11.609682083129883,-5.19395112991333
0,274116,25.640073776245117,-7.263347148895264,-8.298677444458008,1.1275076866149902
0,274118,-38.8215446472168,24.349231719970703,58.282352447509766,1.9418772459030151
0,274119,-42.380191802978516,78.09972381591797,67.28014373779297,4.707930088043213
0,274122,96.13240814208984,-35.843570709228516,-65.8763198852539,-6.537784576416016
0,274123,102.72694396972656,-84.85467529296875,-75.9684829711914,-26.730743408203125
0,274126,2.4970366954803467,-78.44631958007812,-74.19903564453125,11.312342643737793
0,274127,14.640668869018555,-41.97492218017578,-31.604915618896484,21.825647354125977
0,274130,-62.977901458740234,53.43290328979492,78.97613525390625,-17.53218650817871
0,274131,-48.85774230957031,3.0635056495666504,-59.01829528808594,-28.10301399230957
0,274134,40.50215148925781,1.0436217784881592,-40.73011016845703,11.064981460571289
0,274135,-63.16037368774414,33.21349334716797,99.27460479736328,33.82674026489258
0,274138,-106.51239013671875,74.70449829101562,78.1097183227539,-16.218158721923828
0,274139,-12.986344337463379,87.14006042480469,80.4874038696289,-1.344893455505371
0,274142,88.22026062011719,-100.9493637084961,-66.45027923583984,3.0886971950531006
0,274143,62.948020935058594,-106.59049987792969,-115.47760772705078,-12.723834991455078
0,274146,31.555822372436523,22.57392120361328,-13.118563652038574,3.225743293762207
0,274147,35.21867752075195,37.95828628540039,40.024906158447266,10.739323616027832
0,274150,-46.14493179321289,40.675048828125,40.121395111083984,-14.746904373168945
0,274151,-24.63961410522461,-42.25587844848633,-51.39710235595703,-37.52513885498047
0,274154,-9.085101127624512,-66.81250762939453,-28.57865333557129,48.767635345458984
0,274155,-55.01905822753906,22.0205078125,8.079808235168457,43.703731536865234
0,274158,-23.49243927001953,106.75425720214844,116.53204345703125,-42.081974029541016
0,274159,-13.569828033447266,69.3607177734375,119.77127838134766,-4.751269340515137
0,274294,85.30648040771484,-168.39048767089844,-210.87185668945312,44.52533721923828
0,274294,72.0860824584961,-109.26363372802734,-164.39859008789062,-0.9053086638450623
0,274294,-116.6967544555664,144.72044372558594,152.15235900878906,-38.653018951416016
0,274294,-64.66304016113281,75.8050308227539,92.45996856689453,1.1231935024261475
0,274294,47.3973388671875,-12.950052261352539,-9.199633598327637,2.362684726715088
0,274295,46.03524398803711,-2.528390645980835,1.522953987121582,-17.802766799926758
0,274295,43.8138313293457,-40.705169677734375,-44.6832160949707,5.146252632141113
0,274295,18.379152297973633,-61.26048278808594,-39.02935028076172,13.385773658752441
0,274295,-2.6988749504089355,-6.793359756469727,-10.950727462768555,-9.909330368041992
0,274295,-15.29283618927002,34.172061920166016,-7.268104553222656,-31.117996215820312
0,274295,-39.322444915771484,3.427910804748535,29.460779190063477,10.005051612854004
0,274296,-45.1368522644043,28.09113311767578,50.577693939208984,18.464963912963867
0,274296,-12.160422325134277,38.65148162841797,26.81789779663086,-11.798495292663574
0,274296,3.807568311691284,11.723517417907715,0.7575302720069885,11.200328826904297
0,274296,-13.9772367477417,9.531352043151855,-6.83027458190918,3.9258480072021484
0,274296,11.977581977844238,-37.24148941040039,-2.0899624824523926,5.796979904174805
0,274296,46.57035446166992,-28.757062911987305,-9.750988960266113,0.7040044665336609
0,274297,38.35667037963867,28.315189361572266,-19.4290714263916,-16.15666961669922
0,274297,6.916339874267578,-8.909088134765625,3.9308433532714844,17.18439483642578
0,274297,-26.363117218017578,-12.099997520446777,11.845255851745605,0.11389125883579254
0,274297,-31.2960262298584,32.604740142822266,1.7719870805740356,-21.21880340576172
0,274297,-15.413152694702148,-2.75519061088562,28.412992477416992,8.45748233795166
0,274297,-9.122758865356445,-12.383095741271973,20.1007080078125,12.06383991241455
0,274298,2.1593124866485596,19.68121910095215,-4.757389068603516,-7.296794891357422
0,274298,20.848575592041016,20.431537628173828,-3.0326955318450928,-2.420042037963867
0,274298,13.33043384552002,-21.75103759765625,-34.55628967285156,3.0885910987854004
0,274298,-6.0082879066467285,-57.960784912109375,-34.710235595703125,-5.840096473693848
0,274298,3.838953733444214,-18.864892959594727,1.7461156845092773,15.170083999633789
0,274299,39.39646530151367,18.655445098876953,-13.3798246383667,7.364598751068115
0,274299,14.408097267150879,0.29275083541870117,-22.797712326049805,-28.429922103881836
0,274299,-34.201988220214844,-7.21693229675293,3.6011452674865723,10.053165435791016
0,274299,-9.975266456604004,17.92984390258789,13.823040962219238,26.027950286865234
0,274299,9.379941940307617,15.591053009033203,11.958279609680176,-18.018266677856445
0,274299,7.677404880523682,-5.879758358001709,8.785435676574707,-12.743595123291016
0,274300,13.737292289733887,-8.713979721069336,4.610895156860352,5.4034552574157715
0,274300,-7.87937593460083,-23.012935638427734,-9.010763168334961,5.603676795959473
0,274300,-6.348128795623779,-7.171061992645264,-15.970232963562012,2.015062093734741
0,274300,10.006390571594238,15.357975959777832,-11.875201225280762,-14.135581016540527
0,274300,5.73176383972168,-17.235233306884766,-9.788714408874512,-2.1217200756073
0,274300,8.321496963500977,-17.561552047729492,-15.924286842346191,17.527751922607422
0,274301,-13.655264854431152,6.172630310058594,-3.011615514755249,-0.7115563750267029
0,274301,-16.841325759887695,5.165054798126221,33.64352798461914,-17.653575897216797
0,274301,15.085155487060547,20.586654663085938,0.6689087748527527,7.181478977203369
0,274301,-6.205095291137695,25.08311653137207,-18.20624542236328,4.591557502746582
0,274301,-10.624246597290039,-15.116493225097656,34.19456100463867,-12.783594131469727
0,274301,23.80173110961914,-27.000085830688477,10.368912696838379,17.40163230895996
0,274302,0.17306694388389587,6.032219409942627,-18.98320770263672,16.658727645874023
0,274302,-5.399928092956543,19.581083297729492,10.074610710144043,-0.7754038572311401
0,274302,16.650896072387695,4.60699462890625,-19.940946578979492,-23.89954948425293
0,274302,-12.565085411071777,-17.079090118408203,-18.866090774536133,-18.601402282714844
0,274302,-17.185312271118164,11.076223373413086,24.045307159423828,9.573254585266113
0,274302,14.5840482711792,27.31943130493164,3.0939791202545166,8.402817726135254
0,274303,-13.324831008911133,-18.322710037231445,14.96845531463623,16.520898818969727
0,274303,-17.512981414794922,-1.4542014598846436,17.47029685974121,-12.621065139770508
0,274303,35.187644958496094,22.473655700683594,-32.21538162231445,-16.55994987487793
0,274303,1.2914023399353027,-12.243668556213379,-27.16392707824707,17.370161056518555
0,274303,-10.7002534866333,-11.318011283874512,4.146047592163086,8.297209739685059
0,274303,22.327247619628906,-20.54230499267578,18.900203704833984,1.9690839052200317
0,274304,-1.4448615312576294,-14.94217586517334,7.809409141540527,-1.7167292833328247
0,274304,-7.078261375427246,29.22245216369629,-15.48768138885498,-1.7974897623062134
0,274304,-10.481344223022461,-12.081331253051758,-0.3593284487724304,14.469653129577637
0,274304,-13.512796401977539,-18.297542572021484,9.435335159301758,-10.227836608886719
0,274304,-12.771258354187012,17.09288215637207,13.872101783752441,-7.016626358032227
0,274304,-12.98310375213623,8.205693244934082,24.16903305053711,11.129194259643555
0,274305,5.358748912811279,3.8778648376464844,-6.466896057128906,-13.05278491973877
0,274305,22.9245662689209,-6.881268501281738,-10.727960586547852,-2.086052894592285
0,274305,12.728693008422852,17.084266662597656,5.782986164093018,2.951014757156372
0,274306,-0.042575716972351074,35.16779708862305,-1.0481219291687012,-15.864728927612305
0,274306,16.88600730895996,23.20111083984375,-24.470556259155273,-4.446324825286865
0,274307,-10.240455627441406,2.014282703399658,-10.440022468566895,17.753719329833984
0,274307,-21.380613327026367,-8.966068267822266,36.922943115234375,-4.64583158493042
0,274307,15.584510803222656,3.7708420753479004,10.071451187133789,-8.754232406616211
0,274307,2.0821785926818848,11.887032508850098,-17.604787826538086,9.25904369354248
0,274308,-22.36109733581543,-7.698691368103027,-15.201035499572754,-12.574851989746094
0,274310,-17.492597579956055,-64.9309310913086,-36.71309280395508,-26.311914443969727
0,274311,-29.689720153808594,-46.93265151977539,-21.577722549438477,2.6254031658172607
0,274314,-51.64686965942383,-12.871527671813965,58.543975830078125,97.6178207397461
0,274315,-26.740541458129883,8.860602378845215,41.51991271972656,21.132314682006836
0,274318,-32.20283508300781,120.79640197753906,86.37581634521484,-89.21472930908203
0,274319,5.403021812438965,89.97929382324219,111.63436889648438,-10.177947044372559
0,274322,118.42582702636719,-103.04115295410156,-143.88279724121094,19.29024314880371
0,274323,70.32889556884766,-133.04861450195312,-139.69143676757812,58.95888900756836
0,274326,12.193073272705078,-49.53287887573242,-20.65481948852539,-34.659523010253906
0,274327,13.643567085266113,59.76555252075195,24.73011016845703,-101.42426300048828
0,274330,-15.110678672790527,96.71336364746094,60.40198516845703,71.72552490234375
0,274331,-0.5532064437866211,-23.43623924255371,-79.73786926269531,45.820457458496094
0,274334,-41.825927734375,-51.365638732910156,-28.496078491210938,-71.48468017578125
0,274335,-48.2888069152832,11.746991157531738,49.441444396972656,-43.81101989746094
0,274338,-12.554633140563965,169.94281005859375,140.69979858398438,36.743133544921875
0,274339,-10.983057022094727,76.72554016113281,103.24588775634766,70.03976440429688
0,274342,64.26412200927734,-263.3140869140625,-206.2962646484375,4.806256294250488
0,274343,84.10966491699219,-83.5240707397461,-87.5631332397461,-34.90961837768555
0,274346,0.8303110599517822,125.26554870605469,81.36917114257812,-8.932150840759277
0,274347,-66.4367904663086,32.24903106689453,12.749588966369629,28.17875862121582
0,274350,-29.446569442749023,-1.3605360984802246,-28.658802032470703,-13.248408317565918
0,274351,64.57087707519531,-29.967546463012695,-32.85960006713867,-17.123159408569336
0,274353,-1.456933856010437,-6.8472490310668945,57.42279052734375,33.05771255493164
0,274499,-99.55992126464844,116.64164733886719,122.85647583007812,-15.87752914428711
0,274499,-25.246768951416016,103.94693756103516,62.06205749511719,-32.2974853515625
0,274499,47.797264099121094,-123.58211517333984,-131.33872985839844,0.5013160109519958
0,274499,-15.404791831970215,-77.00081634521484,-62.316688537597656,30.24153709411621
0,274500,-40.81625747680664,60.64193344116211,72.99717712402344,22.472291946411133
0,274500,6.302402019500732,22.9572811126709,18.812040328979492,-32.68691635131836
0,274500,-10.80019474029541,-10.632206916809082,32.522926330566406,2.303987741470337
0,274500,3.9154491424560547,-41.3319091796875,4.605400562286377,23.368837356567383
0,274500,54.1383171081543,-39.36148452758789,-83.42620086669922,-24.796016693115234
0,274500,49.084373474121094,-49.63902282714844,-60.440162658691406,-12.508546829223633
0,274501,28.39073371887207,-40.08713912963867,-11.070735931396484,-0.39368948340415955
0,274501,6.5252156257629395,-24.9888973236084,-45.18290328979492,-10.774406433105469
0,274501,-13.45408821105957,9.541947364807129,-25.36636734008789,-12.708328247070312
0,274501,-11.320371627807617,33.762306213378906,15.397903442382812,4.840034008026123
0,274501,-23.588014602661133,32.41364669799805,43.65333557128906,11.73941421508789
0,274501,-38.75929260253906,64.6713638305664,55.78632354736328,15.446053504943848
0,274502,-9.968033790588379,11.152434349060059,16.320974349975586,51.96088790893555
0,274502,25.608945846557617,-19.666770935058594,27.22025489807129,54.47475051879883
0,274502,46.970340728759766,26.24473762512207,7.43060827255249,14.428803443908691
0,274502,22.201526641845703,-11.481698989868164,-39.149314880371094,18.758668899536133
0,274502,0.7798038721084595,-60.6689567565918,-27.257164001464844,26.85675048828125
0,274502,28.156553268432617,-38.1583366394043,-32.099117279052734,-23.192533493041992
0,274503,1.2430274486541748,-8.525652885437012,-15.637932777404785,-29.915563583374023
0,274503,-35.95363235473633,18.92021942138672,23.075464248657227,-24.190547943115234
0,274503,-8.224124908447266,34.68501663208008,30.27252960205078,-41.64017868041992
0,274503,-2.1463115215301514,8.36440372467041,11.318056106567383,-34.15456008911133
0,274503,-24.090044021606445,19.85321617126465,-5.919144630432129,-37.40269088745117
0,274504,-12.639625549316406,25.94756317138672,12.778700828552246,-26.886375427246094
0,274504,14.58081340789795,6.039475917816162,3.756547212600708,-21.605091094970703
0,274504,16.813552856445312,6.124639987945557,-25.879487991333008,-33.37480163574219
0,274504,-4.4200005531311035,-32.95781707763672,-15.869393348693848,4.5735344886779785
0,274504,-10.637466430664062,-19.7177677154541,-9.04589557647705,17.352651596069336
0,274504,-7.533679008483887,30.465652465820312,13.026017189025879,-1.3948560953140259
0,274505,-5.291717052459717,7.584626197814941,27.547626495361328,10.958183288574219
0,274505,-3.151854991912842,-1.106064796447754,-9.199135780334473,17.354259490966797
0,274505,-18.66112518310547,7.365657329559326,-11.719728469848633,17.966474533081055
0,274505,-12.901861190795898,2.222243070602417,24.835960388183594,11.73360538482666
0,274505,10.612133026123047,-14.367332458496094,12.105843544006348,8.61591911315918
0,274505,5.837930679321289,-33.891700744628906,-30.831207275390625,9.15617561340332
0,274506,4.122550010681152,-8.301322937011719,-27.00008201599121,7.136896133422852
0,274506,15.035971641540527,-2.5201563835144043,0.9665642380714417,6.439413070678711
0,274506,-1.8958256244659424,-21.851346969604492,0.6297536492347717,-22.5716609954834
0,274506,-13.574090003967285,-6.711098670959473,-15.793688774108887,-5.267621994018555
0,274506,6.1263227462768555,16.4927978515625,11.01193904876709,29.264766693115234
0,274506,13.294622421264648,21.07472801208496,38.48298645019531,-4.791977882385254
0,274507,-10.12685775756836,12.074811935424805,29.824552536010742,-10.143308639526367
0,274507,-28.818105697631836,24.29296112060547,38.214603424072266,-0.06112410128116608
0,274507,-1.9027447700500488,25.94405746459961,6.3544158935546875,-9.690438270568848
0,274507,21.68096351623535,-4.82285213470459,-17.9921817779541,9.602335929870605
0,274507,10.609622955322266,-9.03712272644043,4.002799987792969,15.120552062988281
0,274507,0.8055965900421143,-6.447052955627441,-7.15918493270874,18.13070297241211
0,274508,-6.836592197418213,-4.6866774559021,-11.809995651245117,17.091867446899414
0,274508,-4.220437526702881,-10.273322105407715,-6.530776023864746,26.183931350708008
0,274508,6.410849094390869,-14.901530265808105,-7.847670078277588,21.637569427490234
0,274508,2.7607781887054443,10.010324478149414,-8.211041450500488,-24.70438575744629
0,274508,-26.65341567993164,0.5786253213882446,-1.8442591428756714,-0.09692572057247162
0,274508,-9.923347473144531,-1.0376577377319336,-14.631292343139648,-3.2406013011932373
0,274509,36.91659927368164,-13.929794311523438,-34.79690170288086,-26.58327865600586
0,274509,3.8525238037109375,-11.58730697631836,11.161108016967773,16.672260284423828
0,274509,-8.683622360229492,16.29490089416504,13.866188049316406,-2.530850648880005
0,274509,15.786336898803711,-25.77847671508789,-21.666109085083008,-48.12769317626953
0,274509,1.689388632774353,-7.427270889282227,-10.69363021850586,-14.882408142089844
0,274509,-4.510842323303223,28.891460418701172,4.303593158721924,7.935701370239258
0,274510,5.984518527984619,7.142302989959717,15.471611976623535,-31.673343658447266
0,274510,-5.059298515319824,-13.704854965209961,0.6213997602462769,3.2897732257843018
0,274510,-4.6416192054748535,-1.5808789730072021,-3.9240095615386963,45.79038619995117
0,274510,6.785032749176025,3.460627555847168,9.87143325805664,16.549291610717773
0,274510,-22.318641662597656,-1.5799869298934937,8.50387191772461,33.98054122924805
0,274510,-0.45183977484703064,26.489728927612305,3.906641960144043,19.44524574279785
0,274511,28.296463012695312,-8.052290916442871,19.26597023010254,-0.9049217700958252
0,274511,-17.084217071533203,-17.436023712158203,12.160124778747559,30.168018341064453
0,274511,-13.397300720214844,21.825031280517578,-30.237934112548828,-7.068289756774902
0,274511,18.128917694091797,-4.122554779052734,0.2634478211402893,-26.192779541015625
0,274512,-5.937047004699707,-10.357487678527832,-15.241511344909668,-91.23286437988281
0,274513,-25.92144012451172,19.819726943969727,-73.3037109375,-106.80388641357422
0,274513,-3.7717440128326416,5.094244956970215,2.959383249282837,45.53520965576172
0,274513,7.203373432159424,-8.447461128234863,35.31467056274414,31.662275314331055
0,274513,-11.982035636901855,-7.053944110870361,-19.121578216552734,-36.959381103515625
0,274513,1.9533439874649048,-15.55567455291748,-5.562983512878418,-1.9496320486068726
0,274515,9.143399238586426,19.45743751525879,85.45286560058594,-2.888411521911621
0,274516,-53.080928802490234,59.4261360168457,125.92415618896484,5.2984724044799805
0,274517,-50.809043884277344,71.89908599853516,45.47153091430664,10.598014831542969
0,274520,36.583213806152344,6.468561172485352,0.315664678812027,52.515960693359375
0,274521,88.69410705566406,-93.05622100830078,-6.979992866516113,121.2066879272461
0,274524,74.01095581054688,-100.4895248413086,-159.54978942871094,-14.3926420211792
0,274525,37.415706634521484,-27.407934188842773,-106.54341125488281,-76.03788757324219
0,274528,-0.30680522322654724,118.62906646728516,186.20355224609375,53.7182502746582
0,274529,-31.59858512878418,20.470012664794922,38.52577590942383,1.1875771284103394
0,274532,-32.86180114746094,-180.82530212402344,-213.98861694335938,-80.36895751953125
0,274533,-39.48578643798828,-25.95897674560547,-82.27171325683594,5.894298553466797
0,274536,-42.988426208496094,198.20602416992188,141.52674865722656,50.17124938964844
0,274537,-42.4468994140625,134.79429626464844,156.5884552001953,18.51622200012207
0,274540,22.93585968017578,-79.76087188720703,-38.173282623291016,-43.797813415527344
0,274541,57.12289810180664,-129.22915649414062,-103.41222381591797,-54.75606918334961
0,274544,44.90126037597656,-73.49560546875,-53.8261833190918,14.0449800491333
0,274545,43.381805419921875,9.781320571899414,-8.273340225219727,17.479198455810547
0,274548,-51.84120559692383,107.41474151611328,90.79413604736328,35.21131896972656
0,274549,-41.80634307861328,29.162195205688477,4.803716659545898,-39.578983306884766
0,274552,14.826787948608398,-122.48101043701172,-93.53401947021484,-20.22338104248047
0,274553,-28.836427688598633,-48.4264030456543,-9.678587913513184,86.7964096069336
0,274556,-23.684558868408203,115.53121185302734,49.591575622558594,-50.53179168701172
0,274557,-7.433767795562744,104.24132537841797,146.4912109375,-50.132362365722656
0,274560,16.730634689331055,-3.175807476043701,28.04595184326172,80.14564514160156
0,274715,33.32415008544922,-108.90705871582031,-212.29319763183594,24.520336151123047
0,274716,-32.981658935546875,-59.478580474853516,-39.75615310668945,-40.40059280395508
0,274716,-43.7870979309082,98.95044708251953,166.7737274169922,-3.1372885704040527
0,274716,-3.4556212425231934,59.64115905761719,37.77363204956055,9.913946151733398
0,274716,7.572704315185547,-17.574575424194336,-23.263626098632812,-4.3306708335876465
0,274716,41.66230010986328,5.157936096191406,5.50270938873291,-13.565839767456055
0,274716,46.62109375,-23.83427619934082,-44.182472229003906,-19.509292602539062
0,274717,26.55153465270996,-48.4515266418457,-43.317344665527344,-4.317502021789551
0,274717,3.897648811340332,-30.04790687561035,-28.22442626953125,7.252810955047607
0,274717,-25.249231338500977,1.8143224716186523,-1.5583581924438477,-0.22641213238239288
0,274717,-36.90071105957031,6.213902950286865,19.99291229248047,-3.8142764568328857
0,274717,-44.4034309387207,2.0695953369140625,36.16868209838867,11.953448295593262
0,274718,-14.039799690246582,49.7499885559082,62.43327713012695,-1.706312894821167
0,274718,11.01269817352295,41.90424346923828,11.167099952697754,-2.4716272354125977
0,274718,17.181058883666992,-16.404619216918945,-36.96626281738281,17.115570068359375
0,274718,37.824588775634766,-31.16324234008789,-33.72303771972656,6.020746231079102
0,274718,26.035987854003906,-42.996307373046875,-17.888822555541992,-6.916337966918945
0,274718,16.109315872192383,-27.4379940032959,-17.669891357421875,-25.807445526123047
0,274719,18.220535278320312,5.646279811859131,-37.27054977416992,-6.387718200683594
0,274719,-11.428116798400879,10.467304229736328,-7.254917144775391,31.19274139404297
0,274719,-4.524891376495361,16.15035057067871,40.04581069946289,24.77912139892578
0,274719,9.423272132873535,21.413244247436523,44.85588455200195,4.146814823150635
0,274719,-25.232261657714844,24.14418601989746,-1.756712555885315,-9.124810218811035
0,274719,-24.184425354003906,-12.253100395202637,-9.091463088989258,-7.287283897399902
0,274720,11.524614334106445,-20.416393280029297,17.417766571044922,12.490955352783203
0,274720,32.850250244140625,20.813446044921875,-34.13490676879883,14.025141716003418
0,274720,0.9351018667221069,-24.70284652709961,-50.056636810302734,-33.038597106933594
0,274720,-13.244986534118652,-55.70813751220703,-0.5242108702659607,-42.24560546875
0,274720,30.950551986694336,4.8442301750183105,-1.936264991760254,16.03445816040039
0,274720,-5.518490314483643,18.913862228393555,5.704007148742676,25.841224670410156
0,274721,-38.190223693847656,9.084582328796387,28.772743225097656,-14.631260871887207
0,274721,-11.541902542114258,17.699485778808594,14.760860443115234,-21.201984405517578
0,274721,-3.9978785514831543,12.46418285369873,0.3802375793457031,7.38997220993042
0,274721,13.942614555358887,7.070433616638184,-4.371793270111084,0.41174930334091187
0,274721,3.001020908355713,-2.115506172180176,10.773064613342285,-18.42270278930664
0,274721,3.5726873874664307,-12.102288246154785,1.1298624277114868,16.586654663085938
0,274722,4.68454647064209,-0.1415281742811203,-10.648943901062012,13.212176322937012
0,274722,-12.500345230102539,11.34292984008789,-7.864239692687988,-2.5022222995758057
0,274722,8.535876274108887,-19.1375732421875,-5.329598903656006,11.299050331115723
0,274722,2.6198554039001465,-17.595327377319336,0.3088122308254242,-14.740692138671875
0,274722,-13.355737686157227,12.699054718017578,-19.499937057495117,0.8926448225975037
0,274722,-9.305055618286133,0.8529266119003296,17.545242309570312,25.201189041137695
0,274723,2.2449402809143066,-8.151201248168945,36.91071701049805,-5.789960861206055
0,274723,12.844864845275879,17.440011978149414,-12.176434516906738,2.363537549972534
0,274723,-3.6561119556427,-2.875868320465088,-17.44043731689453,6.818618297576904
0,274723,-4.156585216522217,-27.514612197875977,-4.0370612144470215,-2.6803476810455322
0,274723,8.40005874633789,10.065019607543945,-6.281662940979004,8.020309448242188
0,274723,6.752780914306641,32.115108489990234,5.321782112121582,-3.4733822345733643
0,274724,5.514721870422363,9.587958335876465,5.219719886779785,-18.280597686767578
0,274724,-5.047120571136475,-41.48996353149414,-12.80468463897705,0.5703873634338379
0,274724,-16.300453186035156,-18.42136001586914,-2.4825236797332764,6.26294469833374
0,274724,-8.542157173156738,29.978809356689453,16.92801856994629,-6.8799872398376465
0,274724,9.839405059814453,7.274959087371826,16.92536735534668,3.9437410831451416
0,274725,-5.647217273712158,0.697894811630249,8.471060752868652,11.326189041137695
0,274725,-20.96944808959961,10.374944686889648,7.13245964050293,-5.285336494445801
0,274725,0.8611285090446472,-16.85091781616211,-5.827365398406982,-19.079618453979492
0,274725,3.272317886352539,-16.715944290161133,-28.805221557617188,4.58050537109375
0,274725,12.37032699584961,2.2680437564849854,-7.938863754272461,16.47817611694336
0,274725,29.719385147094727,3.5409364700317383,15.15693187713623,-7.118187427520752
0,274726,-0.9004674553871155,13.08301830291748,-8.216099739074707,-15.484643936157227
0,274726,-24.963903427124023,24.948354721069336,8.60765552520752,6.024261474609375
0,274726,-17.34519386291504,7.150102615356445,22.339914321899414,6.109974384307861
0,274726,-12.018171310424805,-10.393937110900879,-9.836200714111328,1.4050891399383545
0,274726,3.6580452919006348,33.37254333496094,19.426424026489258,-1.7565124034881592
0,274726,16.02448844909668,15.480793952941895,30.213315963745117,-17.805675506591797
0,274727,5.010095596313477,-28.915382385253906,-20.90603256225586,10.464569091796875
0,274727,-10.473050117492676,1.1355715990066528,-13.272082328796387,29.44473648071289
0,274727,9.411404609680176,11.855269432067871,21.042695999145508,-9.459001541137695
0,274727,9.441439628601074,-22.163713455200195,-12.471939086914062,-10.1474027633667
0,274727,-24.276052474975586,-25.66382598876953,-25.759239196777344,6.907278060913086
0,274727,-4.546601295471191,-1.7271817922592163,-9.806106567382812,-11.812379837036133
0,274728,10.94616985321045,2.915301561355591,-4.340300559997559,8.920753479003906
0,274728,10.324572563171387,-1.8856679201126099,14.26107406616211,7.605783462524414
0,274728,14.582791328430176,-21.023910522460938,-10.089700698852539,-12.022237777709961
0,274728,1.0193051099777222,-4.861852645874023,-1.6033562421798706,3.151050329208374
0,274728,2.178501605987549,14.777897834777832,2.7547402381896973,-15.993428230285645
0,274728,-0.9778644442558289,-21.39033317565918,-25.15430450439453,-4.697455883026123
0,274729,-8.431389808654785,1.9384609460830688,10.786285400390625,5.608256816864014
0,274730,-0.2042602151632309,16.320940017700195,-5.208089351654053,-13.120186805725098
0,274730,-0.6810851097106934,-24.00901985168457,-24.488075256347656,8.453461647033691
0,274730,-9.409314155578613,6.412545680999756,19.697599411010742,6.477838039398193
0,274730,-4.759910583496094,15.055856704711914,11.352835655212402,3.3875794410705566
0,274730,-2.3243954181671143,-13.860489845275879,-8.917781829833984,5.311010360717773
0,274731,-9.1492280960083,1.6229729652404785,0.6493030190467834,11.063645362854004
0,274731,8.744970321655273,15.519036293029785,3.1881420612335205,10.81706428527832
0,274732,23.833677291870117,31.57265853881836,10.554612159729004,-31.046560287475586
0,274733,-16.084163665771484,37.42628479003906,17.531131744384766,-21.99660301208496
0,274736,-83.44586181640625,43.17184066772461,53.617645263671875,35.57966613769531
0,274738,-51.50363540649414,79.96685791015625,129.7840118408203,34.71467208862305
0,274739,41.08556365966797,-15.569389343261719,12.170656204223633,-14.61522102355957
0,274742,84.45994567871094,-149.2848358154297,-171.46743774414062,-37.99756622314453
0,274743,61.378089904785156,-93.01074981689453,-113.47671508789062,-56.320838928222656
0,274746,25.346683502197266,23.372400283813477,22.468534469604492,24.846038818359375
0,274747,16.283193588256836,84.9137191772461,93.81853485107422,79.64295196533203
0,274750,-29.15322494506836,2.0706520080566406,-6.493866443634033,-9.514094352722168
0,274751,-24.050228118896484,-116.97657012939453,-128.50570678710938,-44.101505279541016
0,274754,-27.42557716369629,-15.122507095336914,2.8536365032196045,0.2690856456756592
0,274755,-36.49085235595703,89.1279067993164,114.45065307617188,59.15624237060547
0,274758,-48.37224197387695,89.56388854980469,97.62626647949219,-1.6661640405654907
0,274759,-24.40936851501465,54.01471710205078,0.6812870502471924,-60.64686584472656
0,274762,125.86416625976562,-84.30296325683594,-110.32537841796875,24.088085174560547
0,274763,72.66410064697266,-119.12528228759766,-82.67369842529297,7.825205326080322
0,274766,-64.29676818847656,-4.9867472648620605,10.47959041595459,-62.87908935546875
0,274767,-32.76627731323242,96.4867172241211,124.13147735595703,40.33610534667969
0,274770,9.584105491638184,34.70763397216797,2.442178249359131,62.85593032836914
0,274771,13.727806091308594,-97.50721740722656,-148.3358612060547,-52.7518310546875
0,274774,-31.257083892822266,-12.518342018127441,16.70388412475586,-35.247657775878906
0,274775,-19.49058723449707,53.895416259765625,61.86555480957031,22.457782745361328
0,274778,-49.5263557434082,31.006460189819336,39.05307388305664,28.424705505371094
0,274942,54.212158203125,-11.622703552246094,24.415451049804688,10.717617988586426
0,274942,170.88455200195312,-52.66391372680664,-85.4603500366211,-16.663488388061523
0,274943,-100.0339126586914,31.41171646118164,34.76883316040039,1.6235865354537964
0,274943,-117.6801986694336,49.757076263427734,71.40806579589844,14.762605667114258
0,274943,32.49976348876953,33.86539077758789,-17.176790237426758,-12.604742050170898
0,274943,21.774547576904297,-2.5776009559631348,18.710390090942383,-26.305889129638672
0,274943,39.13893127441406,-70.27996826171875,-38.13385772705078,10.793346405029297
0,274944,22.990615844726562,-35.62849807739258,-72.94730377197266,14.0255126953125
0,274944,33.13804244995117,-10.041943550109863,-18.474651336669922,-6.94619607925415
0,274944,7.157305717468262,-12.685498237609863,1.8126615285873413,2.20819354057312
0,274944,-41.31510543823242,2.645163059234619,-5.942467212677002,-13.295462608337402
0,274944,-30.128520965576172,-0.18864989280700684,2.7757318019866943,5.792844772338867
0,274944,-39.69083786010742,33.72042465209961,34.160221099853516,15.930375099182129
0,274944,-45.095420837402344,36.922943115234375,16.42064666748047,-0.6405628323554993
0,274945,8.650660514831543,-14.835403442382812,-23.972509384155273,-8.982430458068848
0,274945,41.080543518066406,-17.318206787109375,2.9847540855407715,-24.47399139404297
0,274945,20.386751174926758,-15.411514282226562,4.168779373168945,-5.709906578063965
0,274945,22.43705177307129,-17.472856521606445,-18.112768173217773,7.637087821960449
0,274945,27.647777557373047,11.495110511779785,11.377212524414062,12.490937232971191
0,274946,-16.92172622680664,27.05034065246582,11.444708824157715,6.51570987701416
0,274946,-25.190717697143555,16.641860961914062,20.960529327392578,-14.144196510314941
0,274946,-2.7420661449432373,8.270819664001465,35.74904251098633,-1.3942521810531616
0,274946,-25.82098960876465,18.067140579223633,16.017288208007812,23.394420623779297
0,274946,-30.296857833862305,21.163888931274414,17.84222984313965,3.711164712905884
0,274946,3.986412286758423,-4.824707508087158,17.98387336730957,-23.5596981048584
0,274947,24.552139282226562,-0.252386212348938,-6.254652976989746,-1.8311123847961426
0,274947,10.342184066772461,-12.671964645385742,-34.90493392944336,9.320106506347656
0,274947,-3.698215961456299,-34.10143280029297,-13.86135482788086,-17.228971481323242
0,274947,9.2517671585083,-2.8387081623077393,-12.810449600219727,-25.062604904174805
0,274947,8.08729362487793,-20.15208625793457,-47.518043518066406,2.164581298828125
0,274947,-4.945870399475098,-7.425146579742432,-10.937087059020996,19.60858917236328
0,274948,-4.39544677734375,29.409709930419922,18.174352645874023,18.026037216186523
0,274948,-0.7331629991531372,-7.611409664154053,-10.26374340057373,10.720198631286621
0,274948,-3.8453781604766846,-4.766274929046631,2.9020745754241943,1.1928950548171997
0,274948,1.3952233791351318,14.144736289978027,37.28293991088867,3.455207347869873
0,274948,16.631057739257812,3.791494131088257,-4.11886739730835,9.399481773376465
0,274949,13.389443397521973,-0.9835854172706604,-30.231006622314453,1.6343656778335571
0,274949,0.4386497735977173,-18.118694305419922,-7.001491546630859,-10.038159370422363
0,274949,-1.8316153287887573,-20.959049224853516,-1.4932985305786133,10.866819381713867
0,274949,-0.24851271510124207,-0.6069742441177368,7.186842918395996,14.581451416015625
0,274949,-12.380514144897461,0.651633620262146,-1.3277240991592407,-19.78425407409668
0,274949,-7.767707347869873,13.528960227966309,-22.28359031677246,-16.854694366455078
0,274950,-9.810056686401367,17.087955474853516,13.441583633422852,12.019536972045898
0,274950,-21.182764053344727,-2.4226746559143066,32.594970703125,-18.766708374023438
0,274950,12.243160247802734,-8.818463325500488,1.720624566078186,-35.48389434814453
0,274950,15.712116241455078,-14.42385196685791,-13.66574478149414,18.120071411132812
0,274950,-1.7501674890518188,6.13765287399292,9.034074783325195,-1.232177495956421
0,274950,7.764172077178955,16.120779037475586,23.727252960205078,-11.993291854858398
0,274951,1.22148597240448,-10.797650337219238,-0.993015468120575,27.13181495666504
0,274951,-10.280403137207031,-0.6689025163650513,0.449792742729187,13.533195495605469
0,274951,8.554258346557617,30.36148452758789,-16.187711715698242,-9.039690971374512
0,274951,2.2282426357269287,2.3752222061157227,-15.770291328430176,-5.836840629577637
0,274951,-17.69908905029297,-1.3479269742965698,11.232976913452148,3.5206458568573
0,274951,-0.3315635025501251,0.3131742775440216,7.33032751083374,-2.1012566089630127
0,274952,8.083921432495117,-10.492051124572754,10.261422157287598,16.047887802124023
0,274952,2.0083301067352295,29.568098068237305,10.391846656799316,10.437906265258789
0,274952,-21.661090850830078,-5.603668689727783,5.645590305328369,-2.793879985809326
0,274952,-7.274109840393066,-33.95730209350586,-18.050649642944336,6.162901401519775
0,274952,25.79111671447754,1.3809949159622192,-21.748830795288086,-4.329897880554199
0,274952,8.230021476745605,6.9880781173706055,29.005128860473633,2.1021664142608643
0,274953,7.273753643035889,0.7150065302848816,20.52174186706543,-4.830302715301514
0,274953,-2.2048914432525635,-2.5746030807495117,-28.912675857543945,-13.626031875610352
0,274953,-27.574474334716797,13.598992347717285,-11.986037254333496,8.809269905090332
0,274953,-8.2454833984375,-9.71406364440918,13.31619644165039,19.222322463989258
0,274953,28.173954010009766,-7.272217750549316,3.49288272857666,7.530323028564453
0,274953,6.308403015136719,18.040170669555664,-3.9091813564300537,-7.82225227355957
0,274954,-16.69811248779297,-4.499143600463867,-8.240026473999023,-14.170564651489258
0,274954,6.458520412445068,-18.993871688842773,-23.54939842224121,-3.2856833934783936
0,274954,-12.10434627532959,-1.2607688903808594,-0.056823957711458206,-7.016003608703613
0,274954,-8.339000701904297,21.101741790771484,29.2215518951416,-13.199906349182129
0,274954,20.721324920654297,-11.10226058959961,-0.49300268292427063,-4.405126094818115
0,274954,-10.064461708068848,-12.190288543701172,-6.084531784057617,-2.185203790664673
0,274955,-12.410003662109375,20.264694213867188,13.711040496826172,2.2650582790374756
0,274955,11.569283485412598,0.3941861093044281,-2.738051414489746,12.490314483642578
0,274955,-12.206327438354492,-10.933614730834961,19.050983428955078,-4.553369522094727
0,274955,-10.766629219055176,16.85383415222168,21.389545440673828,-17.699384689331055
0,274955,22.196760177612305,3.275546073913574,-31.894338607788086,-1.442710041999817
0,274955,6.0592875480651855,-15.755684852600098,-9.71950912475586,2.135042428970337
0,274956,-15.134065628051758,15.648590087890625,22.960891723632812,20.055097579956055
0,274956,-4.998881816864014,6.840235710144043,-5.813902378082275,13.70334529876709
0,274956,4.942874431610107,-8.62391471862793,-2.927267551422119,-16.388898849487305
0,274956,15.980304718017578,22.997432708740234,21.736425399780273,-10.031621932983398
0,274957,-7.545795917510986,39.98429870605469,42.888736724853516,31.7735595703125
0,274958,-11.535147666931152,18.47588539123535,34.346370697021484,23.745840072631836
0,274958,15.236955642700195,-44.9818115234375,-41.08324432373047,-14.539297103881836
0,274958,12.303510665893555,-19.35049057006836,-40.699623107910156,7.176621437072754
0,274958,14.363921165466309,33.77702713012695,24.355422973632812,-3.440295934677124
0,274958,3.3629956245422363,-21.435428619384766,-0.57572340965271,-7.150083541870117
0,274958,-6.197967052459717,-25.316017150878906,-24.184717178344727,19.08607292175293
0,274959,13.75278091430664,1.4843127727508545,-20.515703201293945,-21.95034408569336
0,274960,32.95249938964844,-61.008113861083984,-93.0945053100586,-53.87092971801758
0,274961,37.074771881103516,-63.97901916503906,-34.95915222167969,-4.127265453338623
0,274964,33.1846809387207,-32.84453582763672,-22.04168128967285,49.22653579711914
0,274965,31.254709243774414,-28.042339324951172,-76.9724349975586,22.777099609375
0,274968,-36.66038131713867,75.57596588134766,75.56192016601562,-30.21287727355957
0,274969,-91.4078140258789,25.547761917114258,24.35848045349121,-36.350040435791016
0,274972,-44.966209411621094,-50.814979553222656,-62.010162353515625,-31.417417526245117
0,274973,2.866664409637451,78.42375183105469,120.86524200439453,48.179603576660156
0,274976,-52.417022705078125,114.59857940673828,148.7697296142578,52.218589782714844
0,274977,-85.81525421142578,29.455097198486328,21.445926666259766,-30.854568481445312
0,274980,96.82197570800781,-28.6137752532959,-30.691848754882812,35.95340347290039
0,274981,85.95652770996094,-57.97732925415039,-98.67208862304688,-7.1453680992126465
0,274984,-29.240507125854492,-86.83158111572266,-89.63873291015625,-66.64404296875
0,274986,14.12811279296875,-43.113677978515625,-11.758200645446777,-16.51472282409668
0,274987,-43.720130920410156,106.97313690185547,126.77107238769531,-16.806047439575195
0,274990,55.277915954589844,88.67913818359375,101.35193634033203,48.73050308227539
0,274991,99.5668716430664,-66.9760971069336,-115.19876098632812,52.23374938964844
0,274994,-117.88160705566406,-70.6951675415039,-60.17263412475586,-8.16775894165039
0,274995,-110.52318572998047,-2.023686170578003,8.960779190063477,-5.9839701652526855
0,274998,24.56229591369629,141.6636962890625,126.60452270507812,1.9544050693511963
0,274999,8.343978881835938,65.48882293701172,138.1930389404297,0.9333962798118591
0,275002,50.801937103271484,-158.135986328125,-165.40069580078125,-30.43672752380371
0,275003,89.89200592041016,-61.42979431152344,-146.55686950683594,5.436281681060791
0,275006,-23.648056030273438,45.67228698730469,54.709224700927734,41.16875457763672
0,275007,-72.29617309570312,36.84743118286133,80.62428283691406,-50.91073226928711
0,275182,-49.7702522277832,11.85913372039795,25.783723831176758,-21.5377197265625
0,275182,29.044443130493164,-31.884721755981445,-70.75247955322266,47.931236267089844
0,275182,98.0901107788086,-32.85773468017578,-60.147762298583984,-5.94086217880249
0,275182,39.515159606933594,-31.317455291748047,-6.547120571136475,-16.041940689086914
0,275182,-15.073160171508789,-5.79755163192749,1.0686860084533691,0.7885801792144775
0,275182,-40.34419250488281,29.415119171142578,19.253662109375,14.613813400268555
0,275183,-38.973243713378906,28.107107162475586,22.47176742553711,8.77756118774414
0,275183,-6.678858757019043,8.350102424621582,35.62872314453125,1.0291999578475952
0,275183,-9.453716278076172,22.59882926940918,28.06501579284668,15.491720199584961
0,275183,-7.088871955871582,31.34333038330078,-0.5258708596229553,-8.97276496887207
0,275183,14.552120208740234,-32.04840850830078,-34.62035369873047,-31.53502082824707
0,275184,24.83439064025879,-49.4401969909668,-25.296138763427734,9.861855506896973
0,275184,31.490079879760742,1.9160897731781006,11.874412536621094,6.197079658508301
0,275184,-0.4674164056777954,0.5385481119155884,-27.579116821289062,-26.44545555114746
0,275184,-14.986345291137695,0.06028313934803009,-13.209683418273926,-2.916062593460083
0,275184,-1.5851768255233765,10.309077262878418,30.29623031616211,-1.6300146579742432
0,275184,-32.56752395629883,3.739321708679199,11.303574562072754,6.4383225440979
0,275185,-38.37715148925781,10.536133766174316,8.975727081298828,23.438127517700195
0,275185,-8.812976837158203,1.0950841903686523,4.613292217254639,6.590116024017334
0,275185,21.93203353881836,20.14645767211914,13.566636085510254,-20.780689239501953
0,275185,24.50652313232422,7.381827354431152,7.149624824523926,5.975164413452148
0,275185,0.805188000202179,-23.37105941772461,-19.088993072509766,27.46710777282715
0,275185,12.811296463012695,16.233034133911133,-5.169137954711914,-29.33063316345215
0,275186,22.911527633666992,6.952370643615723,-7.150928497314453,-27.288801193237305
0,275186,-8.698988914489746,-23.163423538208008,6.408471584320068,19.684528350830078
0,275186,-25.144073486328125,2.1811318397521973,36.542137145996094,13.381258964538574
0,275186,-12.281949996948242,37.289974212646484,22.872119903564453,3.7103443145751953
0,275186,-6.507091999053955,25.901662826538086,10.502110481262207,4.53127908706665
0,275186,0.5894548892974854,-18.120580673217773,-10.621429443359375,0.5197888016700745
0,275187,1.214830756187439,-20.262575149536133,-15.61209774017334,1.8844786882400513
0,275187,-4.420975685119629,-15.082756996154785,-6.758469581604004,6.6440863609313965
0,275187,12.25174331665039,-5.734482288360596,-14.885088920593262,-1.5666650533676147
0,275187,22.689075469970703,-12.521913528442383,-10.712202072143555,-5.1846923828125
0,275187,10.896383285522461,-10.549148559570312,-15.55193042755127,-1.3582706451416016
0,275188,-3.9864349365234375,11.765411376953125,-18.72599220275879,-15.384119987487793
0,275188,-0.41657397150993347,-10.235535621643066,4.957216262817383,-5.92893648147583
0,275188,2.3443281650543213,-2.295658588409424,12.031745910644531,5.4954376220703125
0,275188,-21.450515747070312,1.2402801513671875,-6.279455184936523,-3.2865588665008545
0,275188,-8.151961326599121,-10.729523658752441,-11.761285781860352,3.800412893295288
0,275188,1.8708686828613281,6.155570030212402,-7.448782920837402,-8.359983444213867
0,275189,-3.9740371704101562,-0.030861007049679756,-2.4030721187591553,-22.97268295288086
0,275189,6.25523567199707,-13.022897720336914,1.9525452852249146,10.454633712768555
0,275189,-2.620940685272217,0.5533151030540466,-0.1595238745212555,18.869892120361328
0,275189,7.245548248291016,12.773918151855469,-24.239530563354492,-12.014973640441895
0,275189,-7.885599613189697,-30.608430862426758,-9.198831558227539,0.29705220460891724
0,275189,-25.54583168029785,-15.93701171875,6.519086837768555,3.767577648162842
0,275190,8.121410369873047,44.05878448486328,-22.177265167236328,6.694028377532959
0,275190,7.428909778594971,13.962225914001465,11.237747192382812,8.858949661254883
0,275190,-2.4122705459594727,-12.914566040039062,34.39541244506836,-11.804401397705078
0,275190,-0.05563359335064888,6.482596397399902,1.8485965728759766,19.666833877563477
0,275190,-11.352592468261719,19.80865478515625,11.516610145568848,13.847163200378418
0,275190,20.94818115234375,1.8211393356323242,16.724353790283203,-22.712629318237305
0,275191,20.9014835357666,-8.488503456115723,-13.027800559997559,-2.780428647994995
0,275191,-18.21973419189453,8.918571472167969,-10.102972984313965,6.246351718902588
0,275191,-0.32242533564567566,1.280151128768921,14.528860092163086,-2.422976016998291
0,275191,8.619368553161621,2.558034658432007,32.01139450073242,-7.497302055358887
0,275191,1.1562259197235107,12.761303901672363,18.60992431640625,-3.4762449264526367
0,275191,8.75302791595459,5.660846710205078,18.783491134643555,4.148443698883057
0,275192,-10.257925033569336,7.199869155883789,-7.5070600509643555,1.2475594282150269
0,275192,-17.582679748535156,-2.9976537227630615,-41.12487030029297,17.895620346069336
0,275192,9.276386260986328,-6.676585674285889,27.017154693603516,14.442523956298828
0,275192,5.162456035614014,-21.8486328125,28.327974319458008,-13.009638786315918
0,275192,6.026625633239746,-17.837146759033203,-19.904998779296875,-0.7810916900634766
0,275192,5.037718772888184,24.700403213500977,1.1083091497421265,16.452878952026367
0,275193,-14.858474731445312,15.282883644104004,-12.66114616394043,-6.271580219268799
0,275193,-7.377668857574463,-9.540226936340332,-26.843582153320312,-7.983038425445557
0,275193,-4.330583572387695,6.4203009605407715,18.676284790039062,5.136490821838379
0,275193,3.8623366355895996,4.737177848815918,11.338711738586426,-12.591911315917969
0,275193,-5.161497116088867,-27.825714111328125,-22.588483810424805,-5.904944896697998
0,275193,-25.463520050048828,-7.291248798370361,5.490901470184326,-6.35048770904541
0,275194,16.67265510559082,18.06416130065918,9.390686988830566,-15.115571975708008
0,275194,27.855712890625,0.8871147632598877,-14.380620002746582,5.156850337982178
0,275194,-17.652814865112305,-6.80643892288208,-17.37481117248535,0.6187459230422974
0,275194,-15.277531623840332,-5.1242241859436035,6.655155658721924,8.155117988586426
0,275194,3.4362881183624268,-15.131301879882812,17.49300765991211,6.353291988372803
0,275194,7.140610218048096,1.8078292608261108,6.981087684631348,-12.918349266052246
0,275195,6.397990703582764,27.972362518310547,11.783720970153809,3.444559335708618
0,275195,-1.0546821355819702,15.577020645141602,-7.162014007568359,1.4581595659255981
0,275195,11.509228706359863,4.89595890045166,-13.2777099609375,-3.380093574523926
0,275195,2.487499713897705,-14.623188018798828,-4.740081787109375,2.1150388717651367
0,275195,-22.196796417236328,-14.518383979797363,10.772140502929688,10.737542152404785
0,275195,1.4162291288375854,16.148578643798828,11.362970352172852,5.900649547576904
0,275196,3.895683765411377,20.342533111572266,-14.418950080871582,-15.107657432556152
0,275196,-12.524415016174316,-4.310257911682129,18.824216842651367,-2.9557840824127197
0,275196,10.314879417419434,0.2868833839893341,24.815656661987305,-3.1694209575653076
0,275196,8.877760887145996,6.7500715255737305,-23.060028076171875,-5.646026134490967
0,275196,2.2868618965148926,-4.479593753814697,-12.07355785369873,17.47964096069336
0,275198,-8.975027084350586,-13.83477783203125,26.246976852416992,16.993148803710938
0,275198,-10.2280855178833,-13.684858322143555,10.4287109375,-10.506162643432617
0,275198,22.37690544128418,2.311366319656372,-26.10266876220703,-15.629853248596191
0,275198,14.449868202209473,-2.1621673107147217,-19.6009578704834,-5.107459545135498
0,275198,-7.703949928283691,-0.859318196773529,-10.567608833312988,6.821657180786133
0,275198,0.20920518040657043,-19.209394454956055,6.37184476852417,6.181400775909424
0,275199,14.151004791259766,-22.803546905517578,-1.5406101942062378,-15.616473197937012
0,275199,4.6661787033081055,1.7268346548080444,-52.78670120239258,13.269393920898438
0,275200,34.287017822265625,-24.51447296142578,-46.5161247253418,26.529165267944336
0,275202,48.63848876953125,-44.35588836669922,-11.565918922424316,-6.6292195320129395
0,275203,5.310747146606445,-22.035289764404297,-5.373041152954102,-6.203222751617432
0,275206,20.6937255859375,33.96238327026367,-7.081814765930176,-14.66691780090332
0,275207,-7.581692218780518,73.07805633544922,35.51384735107422,-24.020017623901367
0,275210,-68.07828521728516,-27.60622215270996,0.561854362487793,16.966163635253906
0,275211,-9.62690258026123,-62.80880355834961,-57.82051086425781,30.09556007385254
0,275214,-28.679439544677734,61.65950012207031,50.583187103271484,2.032585859298706
0,275215,-104.00885772705078,68.10498046875,112.32176208496094,3.986213207244873
0,275218,-40.3255615234375,59.72507858276367,95.87712860107422,-20.93626594543457
0,275219,36.443443298339844,23.32710838317871,4.626392364501953,-40.27309799194336
0,275222,90.79222106933594,-123.88330078125,-135.45091247558594,-0.11560329049825668
0,275223,63.880184173583984,-75.84630584716797,-47.31321334838867,33.996097564697266
0,275226,-20.882596969604492,91.81768798828125,85.09259033203125,32.938819885253906
0,275227,-49.15449142456055,58.50566864013672,41.71828079223633,-2.325678586959839
0,275230,6.242835998535156,-68.92719268798828,-86.18687438964844,-6.146711826324463
0,275231,42.680213928222656,-55.55412673950195,-107.24382019042969,-56.431331634521484
0,275234,-43.850406646728516,24.012237548828125,57.58761215209961,-25.9718017578125
0,275235,-32.97755813598633,75.13919830322266,102.56198120117188,84.94669342041016
0,275238,-11.908302307128906,48.03650665283203,49.37391662597656,14.178178787231445
0,275239,-6.8123040199279785,-16.363466262817383,3.1022677421569824,-42.15797805786133
0,275242,70.89417266845703,-78.04026794433594,-103.66726684570312,1.1189767122268677
0,275243,48.43294906616211,-54.72230911254883,-92.10789489746094,0.26775896549224854
0,275246,-17.71089744567871,79.57019805908203,45.89841842651367,-16.522762298583984
0,275247,-50.205501556396484,33.41159439086914,112.4871826171875,31.272232055664062
0,275250,-26.495935440063477,-81.4475326538086,-33.03849411010742,9.59005069732666
0,275432,20.4436092376709,-37.164268493652344,-104.29612731933594,-35.26359176635742
0,275433,22.777603149414062,20.036880493164062,17.206600189208984,9.997044563293457
0,275433,21.315889358520508,-3.198869466781616,15.11551570892334,3.3514456748962402
0,275433,9.598591804504395,-4.410345554351807,-24.15400505065918,3.2272300720214844
0,275433,-35.42790222167969,36.64799118041992,27.244422912597656,9.5336275100708
0,275433,-39.86237335205078,29.45392417907715,46.486961364746094,-23.484161376953125
0,275433,-26.96212387084961,1.6642097234725952,25.583866119384766,0.3537728190422058
0,275434,-28.79397201538086,-3.9971745014190674,6.396947860717773,15.222752571105957
0,275434,13.284107208251953,10.243657112121582,23.26085662841797,6.7738261222839355
0,275434,46.78486633300781,34.56581497192383,22.470767974853516,2.855957269668579
0,275434,40.50995635986328,7.81039571762085,-31.375137329101562,-24.496593475341797
0,275434,15.390548706054688,-39.69245147705078,-22.083145141601562,7.128383636474609
0,275434,-2.645371198654175,-24.05156135559082,-14.869180679321289,10.0654935836792
0,275435,0.015237456187605858,9.977163314819336,-20.06089973449707,-18.09455108642578
0,275435,-26.704055786132812,4.528875827789307,10.557757377624512,5.190105438232422
0,275435,-40.523048400878906,-12.48126220703125,2.8869271278381348,-0.1535307914018631
0,275435,-16.614063262939453,10.92484188079834,14.171319007873535,4.52586555480957
0,275435,1.5089037418365479,30.522048950195312,33.39496994018555,5.248023986816406
0,275435,16.900209426879883,22.101547241210938,4.606207370758057,-19.16440200805664
0,275436,6.0398406982421875,5.966530799865723,9.552026748657227,11.132174491882324
0,275436,3.392564058303833,-17.83186912536621,8.366227149963379,20.22369956970215
0,275436,12.473310470581055,-37.69502258300781,-32.53782272338867,-19.944744110107422
0,275436,3.084136724472046,-4.108927249908447,-19.94182586669922,2.658154249191284
0,275436,18.210073471069336,40.23612976074219,15.05724048614502,17.360109329223633
0,275436,17.82661247253418,-7.624283313751221,-6.571018218994141,-20.280466079711914
0,275437,-20.683406829833984,-40.54532241821289,-17.433937072753906,-6.025870323181152
0,275437,-10.221939086914062,19.312026977539062,8.03832721710205,12.093042373657227
0,275437,14.3787202835083,14.130515098571777,-8.20604133605957,-0.9492774605751038
0,275437,-15.061732292175293,-28.68623924255371,7.704085826873779,-1.480639100074768
0,275437,6.623391151428223,7.936431407928467,4.110492706298828,-4.639806747436523
0,275438,29.68995475769043,-10.553343772888184,-40.2488899230957,6.836779594421387
0,275438,-1.6428747177124023,-23.06922721862793,-1.0604826211929321,-9.396965980529785
0,275438,8.636244773864746,16.226970672607422,10.939979553222656,-7.075531005859375
0,275438,-2.6275033950805664,-0.09134728461503983,-6.37975549697876,16.825368881225586
0,275438,-27.98472023010254,-19.864614486694336,2.7390570640563965,3.3454701900482178
0,275438,0.5041529536247253,-6.635009765625,-0.4660840928554535,7.6585693359375
0,275439,8.443922996520996,22.16327476501465,-8.501184463500977,-4.503513813018799
0,275439,-17.59450340270996,12.378351211547852,-6.9006853103637695,-20.782670974731445
0,275439,-4.29073429107666,-13.423026084899902,13.101017951965332,4.171817302703857
0,275439,20.30121421813965,-7.548398017883301,8.62260913848877,32.40404510498047
0,275439,16.739084243774414,-10.130300521850586,3.929553508758545,-0.336813360452652
0,275439,20.6315860748291,-8.859745025634766,-13.068451881408691,-31.32688331604004
0,275440,9.54683780670166,9.7013521194458,-31.116321563720703,7.643279075622559
0,275440,-18.831140518188477,-5.964886665344238,5.374011993408203,14.370755195617676
0,275440,-19.914535522460938,0.8096938729286194,25.000696182250977,-13.318055152893066
0,275440,-0.7407037019729614,17.839366912841797,-9.20276165008545,-1.750473976135254
0,275440,-0.32054001092910767,-7.913745880126953,-5.156032085418701,-10.722147941589355
0,275440,-7.0042948722839355,-4.987276077270508,20.573244094848633,-9.755729675292969
0,275441,-10.214715957641602,13.426076889038086,11.091983795166016,23.42513656616211
0,275441,-3.349231719970703,17.4737548828125,-14.896639823913574,1.3269139528274536
0,275441,-0.9343353509902954,-7.460764408111572,-12.849512100219727,-15.076057434082031
0,275441,-2.511234760284424,-5.647680759429932,16.549692153930664,-4.101476192474365
0,275441,29.095808029174805,-0.40427693724632263,-7.490106105804443,-4.5583391189575195
0,275441,12.22280216217041,-17.774145126342773,-13.390008926391602,19.242055892944336
0,275442,-15.740962028503418,18.194202423095703,12.178181648254395,3.8552727699279785
0,275442,3.668792247772217,0.5368714928627014,-14.114503860473633,-16.527118682861328
0,275442,-4.405204772949219,-28.90526580810547,-12.282074928283691,16.467214584350586
0,275442,-15.143357276916504,11.807548522949219,31.85761070251465,9.033334732055664
0,275442,5.364455223083496,10.617544174194336,9.763480186462402,-11.684194564819336
0,275442,16.23234748840332,-10.731863975524902,-24.058555603027344,5.146244049072266
0,275443,-11.194632530212402,10.060282707214355,-4.227773666381836,15.329383850097656
0,275443,-12.78441047668457,8.279587745666504,21.51803207397461,-0.3336245119571686
0,275443,24.939863204956055,-2.236410140991211,13.702978134155273,-15.414149284362793
0,275443,4.5047197341918945,5.6828293800354,-6.532988548278809,2.236246347427368
0,275443,-24.374677658081055,-2.5118072032928467,-22.319276809692383,6.405664920806885
0,275443,-6.720460414886475,-3.0784621238708496,9.699020385742188,-23.67348289489746
0,275444,5.792339324951172,9.113136291503906,32.494171142578125,4.831040859222412
0,275444,11.54182243347168,4.956117153167725,-26.679244995117188,8.33890438079834
0,275444,-15.672863960266113,-2.924022674560547,-21.31452178955078,-26.101219177246094
0,275444,-12.58577823638916,11.483298301696777,20.156063079833984,6.853598117828369
0,275444,28.55318260192871,-11.027127265930176,-6.489278316497803,13.303760528564453
0,275445,1.1893786191940308,-13.714038848876953,-23.33038330078125,-1.573960304260254
0,275445,-27.9105281829834,21.524066925048828,24.35677146911621,1.5678162574768066
0,275445,8.255988121032715,3.4093101024627686,20.256977081298828,-1.0289371013641357
0,275445,23.859901428222656,1.6388312578201294,-19.76414680480957,3.8300914764404297
0,275445,-8.317719459533691,1.7269864082336426,15.353571891784668,5.866943359375
0,275445,-17.24995231628418,-4.6133294105529785,27.87796401977539,1.512829303741455
0,275445,-14.85747241973877,33.80073928833008,28.493579864501953,-7.2523884773254395
0,275446,0.0988285169005394,13.23509693145752,10.99683952331543,7.221953392028809
0,275446,7.145663738250732,-27.763872146606445,-16.657167434692383,5.836186408996582
0,275446,3.2679762840270996,1.628280520439148,-10.73727798461914,-25.811355590820312
0,275446,-0.8584861159324646,-20.886531829833984,-4.973394870758057,-5.446147441864014
0,275446,-10.01841926574707,-18.282983779907227,-3.948094367980957,1.5836766958236694
0,275446,10.403882026672363,13.396533012390137,-19.560407638549805,3.7161149978637695
0,275447,5.61932373046875,-20.55989646911621,-11.7324800491333,15.690801620483398
0,275447,-8.562759399414062,9.107945442199707,-9.095268249511719,-0.9071480631828308
0,275447,3.7083446979522705,31.37617301940918,-5.6601033210754395,10.707106590270996
0,275447,5.560871601104736,-18.894989013671875,2.1524293422698975,-10.461041450500488
0,275447,4.513250350952148,-19.621782302856445,-9.657186508178711,-19.327104568481445
0,275448,12.631441116333008,-3.0224366188049316,-15.033126831054688,16.317214965820312
0,275448,6.509853363037109,-20.876585006713867,0.1050938293337822,3.2176692485809326
0,275449,-8.713424682617188,-13.052083015441895,-7.190701961517334,-5.714539527893066
0,275449,-16.64472007751465,6.433391571044922,-15.96600341796875,30.791717529296875
0,275449,-3.093250036239624,11.432265281677246,29.62184715270996,-7.270707607269287
0,275449,13.189316749572754,-5.125660419464111,10.102703094482422,-40.02840042114258
0,275450,-6.700564861297607,-7.629347801208496,-22.17882537841797,23.832887649536133
0,275450,-13.834968566894531,2.667983055114746,3.7395682334899902,9.386942863464355
0,275450,-1.8120204210281372,8.137070655822754,-0.6762163639068604,-18.266054153442383
0,275450,1.5752655267715454,13.84540843963623,19.973167419433594,5.6290507316589355
0,275450,17.466604232788086,18.92323112487793,25.59086799621582,-3.523695945739746
0,275452,3.4565045833587646,31.636465072631836,-8.65386962890625,-6.528876304626465
0,275453,-26.818592071533203,23.312639236450195,40.83942413330078,17.025768280029297
0,275456,-79.40316772460938,51.9990348815918,91.552734375,10.67245101928711
0,275457,-60.874202728271484,38.306480407714844,36.36745071411133,-26.37313461303711
0,275460,104.39561462402344,-61.5452995300293,-77.64562225341797,-24.97127914428711
0,275461,118.57901763916016,-62.14086151123047,-71.93612670898438,17.348194122314453
0,275464,21.45384407043457,-43.3398323059082,-19.024751663208008,35.6890983581543
0,275465,6.756938934326172,-45.55991744995117,-37.83159255981445,-3.6380317211151123
0,275468,-52.47819519042969,14.70355224609375,22.361732482910156,-21.265830993652344
0,275469,-55.696109771728516,6.403975009918213,-11.704855918884277,1.1385034322738647
0,275472,30.89019775390625,-0.34308508038520813,-66.34562683105469,-0.7563030123710632
0,275473,-4.748711585998535,22.411516189575195,33.56086349487305,-4.980291366577148
0,275476,-83.62135314941406,58.778533935546875,123.4593505859375,14.055334091186523
0,275477,-8.10910415649414,92.52898406982422,85.88563537597656,25.32555389404297
0,275480,63.009944915771484,-80.95687103271484,-98.7943344116211,-47.46842575073242
0,275481,10.383842468261719,-135.67674255371094,-116.66141510009766,-19.52458953857422
0,275484,84.65422058105469,52.0233268737793,23.84028434753418,69.08521270751953
0,275485,42.4840202331543,64.02893829345703,46.44480514526367,-23.47519874572754
0,275488,-118.64836120605469,-14.130427360534668,14.284201622009277,-34.662086486816406
0,275489,-2.551002264022827,-41.857444763183594,-33.81698989868164,23.12938117980957
0,275492,32.54145050048828,-30.902570724487305,-53.763092041015625,8.628156661987305
0,275493,-42.70928955078125,24.563854217529297,14.244437217712402,8.067431449890137
0,275496,-31.182411193847656,80.1646957397461,111.63439178466797,-12.745646476745605
0,275497,-17.14507484436035,78.64057922363281,72.78832244873047,-19.6920223236084
0,275500,51.28368377685547,-81.69108581542969,-94.25448608398438,13.978728294372559
0,275501,44.13692092895508,-106.28751373291016,-103.20886993408203,25.898595809936523
0,275693,-50.002227783203125,29.851852416992188,-6.824181079864502,-2.6624205112457275
0,275693,-47.875064849853516,53.6012077331543,52.36074447631836,-19.813278198242188
0,275694,8.366299629211426,36.39571762084961,84.08283233642578,3.7707910537719727
0,275694,34.54621124267578,0.028616243973374367,-7.388508319854736,4.093502521514893
0,275694,40.047454833984375,-36.68998718261719,-55.25168228149414,-12.076420783996582
0,275694,19.81808090209961,-43.557029724121094,-8.35269832611084,-6.085994720458984
0,275694,3.4007487297058105,-24.49343490600586,-24.05535316467285,1.001619577407837
0,275694,-1.9834012985229492,11.44857406616211,-7.120789051055908,16.717777252197266
0,275695,-29.784215927124023,33.982872009277344,21.698205947875977,-6.821489334106445
0,275695,-49.4901123046875,21.471710205078125,15.02878189086914,-15.184453010559082
0,275695,-24.440872192382812,7.010137557983398,53.68192672729492,18.062349319458008
0,275695,0.48805806040763855,38.64146423339844,45.09312057495117,4.838158130645752
0,275695,4.880093097686768,36.280120849609375,6.417255878448486,-2.400949239730835
0,275696,19.09723663330078,-27.391048431396484,-4.837284564971924,-7.1184539794921875
0,275696,15.537354469299316,-52.5327262878418,-32.57808303833008,0.751223087310791
0,275696,12.376550674438477,-24.218366622924805,-40.52001190185547,13.008139610290527
0,275696,23.212583541870117,-5.15012264251709,-34.85185623168945,-21.8848876953125
0,275696,3.8547980785369873,0.6434826254844666,-7.072077751159668,-2.898254156112671
0,275696,-18.656679153442383,9.861701011657715,22.140392303466797,32.031734466552734
0,275696,-11.121513366699219,5.0530595779418945,12.316970825195312,-13.582411766052246
0,275697,-4.164920806884766,4.195073127746582,6.000243663787842,-42.4038200378418
0,275697,-7.678783416748047,0.8175309300422668,1.277021050453186,12.95323657989502
0,275697,5.360064506530762,-6.173590660095215,-12.774178504943848,23.329771041870117
0,275697,23.61371421813965,-7.941278457641602,-10.366674423217773,-12.949272155761719
0,275697,18.478717803955078,-8.890846252441406,-10.79284954071045,13.015822410583496
0,275698,9.511333465576172,3.565281867980957,-22.586471557617188,0.06343477964401245
0,275698,14.471338272094727,-17.993009567260742,-13.229769706726074,-29.677715301513672
0,275698,-1.3474693298339844,-24.078521728515625,1.0739662647247314,12.9300537109375
0,275698,-18.65129280090332,27.34894371032715,12.083962440490723,37.65704345703125
0,275698,-16.81192970275879,38.01851272583008,33.940589904785156,1.1402974128723145
0,275698,-11.922211647033691,6.871400833129883,5.213243007659912,-29.859994888305664
0,275699,11.74195671081543,-25.798460006713867,-15.32492446899414,-3.336930990219116
0,275699,8.501408576965332,-12.010778427124023,14.351935386657715,13.46860122680664
0,275699,-9.39789867401123,12.038127899169922,-0.49475476145744324,7.798506259918213
0,275699,7.223962783813477,-20.02134132385254,-3.4643664360046387,15.927297592163086
0,275699,25.41893196105957,-11.279217720031738,2.1936757564544678,-9.826946258544922
0,275699,11.992271423339844,1.1868125200271606,-46.444637298583984,-14.329998970031738
0,275700,-19.004907608032227,-2.7492787837982178,-6.821448802947998,7.217945098876953
0,275700,-9.530155181884766,20.926279067993164,36.36912155151367,-8.661223411560059
0,275700,-1.074678659439087,-1.4687756299972534,-18.72327995300293,9.106671333312988
0,275700,-23.22865104675293,-3.067326068878174,2.4303202629089355,18.431293487548828
0,275700,-5.446049690246582,28.543365478515625,36.36995315551758,-22.62481689453125
0,275700,12.241790771484375,-1.4505329132080078,5.072965145111084,-11.435558319091797
0,275701,-8.800762176513672,-8.057670593261719,-11.916975021362305,21.04610252380371
0,275701,5.1992363929748535,19.685306549072266,7.622422695159912,-2.496838331222534
0,275701,17.755661010742188,-12.665889739990234,6.397910118103027,-17.80608558654785
0,275701,5.238642692565918,-27.690032958984375,-29.795074462890625,9.598861694335938
0,275701,14.225506782531738,2.8128440380096436,-16.525188446044922,-1.888489842414856
0,275701,16.21543312072754,-8.616462707519531,11.68256950378418,-4.500617980957031
0,275702,-17.206697463989258,-1.7397907972335815,15.442106246948242,7.254892349243164
0,275702,-26.038127899169922,8.774405479431152,8.859683990478516,-26.094160079956055
0,275702,11.010050773620605,-19.2071533203125,-24.086036682128906,0.5568843483924866
0,275702,1.7268720865249634,6.023329257965088,-17.272489547729492,27.628759384155273
0,275702,-9.196869850158691,14.065205574035645,12.740943908691406,-12.71336555480957
0,275702,13.80919075012207,-3.5427093505859375,-2.6218414306640625,-19.976247787475586
0,275703,-3.884493350982666,6.88144588470459,-0.7119670510292053,19.17354965209961
0,275703,-19.639413833618164,11.673476219177246,9.408278465270996,19.439189910888672
0,275703,-1.3288061618804932,-1.6550315618515015,6.228608131408691,-15.669015884399414
0,275703,-19.739221572875977,2.7268950939178467,14.504196166992188,-8.813121795654297
0,275703,-12.912455558776855,28.763673782348633,-15.007298469543457,13.939712524414062
0,275703,23.46058464050293,-18.187570571899414,-4.982169151306152,4.350151062011719
0,275704,-8.524770736694336,-26.624425888061523,36.48014831542969,-13.100672721862793
0,275704,-0.16952846944332123,35.17021942138672,-14.343947410583496,-3.7399275302886963
0,275704,26.05083465576172,17.54805564880371,-25.477039337158203,11.499526023864746
0,275704,-10.01602554321289,-35.69007110595703,26.23369789123535,14.642402648925781
0,275704,5.1736602783203125,-22.503509521484375,16.46488380432129,2.794542074203491
0,275705,17.538005828857422,19.96405792236328,-2.0359833240509033,-10.51216983795166
0,275705,-11.724596977233887,15.385732650756836,1.2473599910736084,-0.4059109687805176
0,275705,-13.909910202026367,26.397598266601562,7.862523555755615,-1.2099123001098633
0,275705,-7.996128082275391,18.175825119018555,1.6012978553771973,-12.146763801574707
0,275705,9.010335922241211,-33.844451904296875,-11.09541130065918,15.553033828735352
0,275705,-0.20667438209056854,5.786423683166504,4.877842903137207,10.263115882873535
0,275706,-19.42888069152832,29.787336349487305,5.400782585144043,-17.62169647216797
0,275706,7.84228515625,-27.777484893798828,-2.554657459259033,3.8098514080047607
0,275706,17.163724899291992,-16.940170288085938,-0.2984572649002075,0.786941409111023
0,275706,-13.366262435913086,3.326709270477295,-20.886762619018555,-15.079011917114258
0,275706,-4.380866527557373,-32.014347076416016,-25.65138053894043,-6.130229473114014
0,275706,9.733839988708496,-19.22875213623047,17.935657501220703,6.54676628112793
0,275707,-0.39154791831970215,20.950740814208984,16.465702056884766,2.546600818634033
0,275707,2.5546953678131104,3.2899911403656006,-28.2025203704834,-0.14269162714481354
0,275707,3.801748514175415,-5.566330909729004,-13.6776704788208,-3.237839698791504
0,275707,0.33584994077682495,18.214088439941406,11.167380332946777,-3.1223721504211426
0,275707,-2.789860963821411,-2.834707021713257,10.147823333740234,13.80860710144043
0,275707,2.726235866546631,-22.92928123474121,2.942511796951294,-6.38920783996582
0,275708,-9.962925910949707,1.1203173398971558,7.890444755554199,-4.06997537612915
0,275708,-0.054697390645742416,5.022177696228027,-4.184513092041016,13.510379791259766
0,275708,10.853787422180176,-7.823497772216797,-15.888679504394531,3.8035426139831543
0,275708,-5.57472562789917,10.545831680297852,-8.5734281539917,5.406034469604492
0,275708,-3.480445623397827,2.7711052894592285,-11.024657249450684,6.185309886932373
0,275708,6.267132759094238,0.08552669733762741,11.52639102935791,-7.733091354370117
0,275709,15.874382019042969,7.359546661376953,19.223796844482422,-20.690885543823242
0,275709,-1.4379284381866455,-20.118785858154297,6.066817283630371,2.5854110717773438
0,275709,-6.339611053466797,6.362950325012207,-27.044843673706055,10.02413272857666
0,275709,-1.6362730264663696,21.38260269165039,-16.49818229675293,-12.951454162597656
0,275709,-8.042844772338867,-14.762773513793945,32.05455017089844,1.958073377609253
0,275709,-9.195387840270996,6.077747821807861,22.1215877532959,2.305905818939209
0,275711,-20.370773315429688,29.374000549316406,1.563983678817749,-25.654020309448242
0,275711,-12.349417686462402,-7.542271614074707,-8.908073425292969,-5.400449275970459
0,275711,19.7855167388916,-17.063648223876953,-6.04089879989624,32.87668228149414
0,275711,14.606904029846191,11.224327087402344,6.197486877441406,18.202600479125977
0,275711,-21.009700775146484,-4.59309720993042,14.861489295959473,-10.843734741210938
0,275712,-4.3447585105896,-24.285444259643555,-7.9109787940979,-11.525121688842773
0,275712,8.895895004272461,23.653099060058594,-18.887897491455078,6.093166351318359
0,275712,-20.632028579711914,18.501108169555664,20.477354049682617,15.240485191345215
0,275713,-20.713348388671875,-9.303862571716309,23.28186798095703,-4.224592208862305
0,275713,7.276882648468018,15.94466495513916,-6.073428630828857,-5.213052749633789
0,275716,-1.9287868738174438,81.40770721435547,84.02011108398438,2.6282763481140137
0,275717,-10.525214195251465,69.95423889160156,98.41949462890625,-1.6886212825775146
0,275720,69.85242462158203,-115.33373260498047,-134.8362579345703,-4.2054443359375
0,275721,88.78800964355469,-120.8591537475586,-137.4155731201172,-9.542200088500977
0,275724,4.3430891036987305,-8.40676212310791,8.481700897216797,10.549713134765625
0,275725,-31.5068416595459,30.907426834106445,28.557689666748047,18.53179359436035
0,275728,-25.611154556274414,8.065166473388672,-31.90058708190918,-22.38591766357422
0,275729,-2.5304172039031982,-54.57402801513672,-71.5441665649414,-21.639509201049805
0,275732,-13.516581535339355,28.841976165771484,56.41937255859375,9.614566802978516
0,275733,-29.493785858154297,52.904048919677734,68.17864990234375,10.266385078430176
0,275736,-46.82299041748047,55.81711959838867,68.28783416748047,0.37227609753608704
0,275738,-32.14607620239258,71.08432006835938,67.79542541503906,1.3085405826568604
0,275739,63.32047653198242,-57.705074310302734,-75.15011596679688,25.365623474121094
0,275742,58.95194625854492,-146.40797424316406,-112.00739288330078,-18.710731506347656
0,275743,10.05893325805664,-37.936424255371094,-22.205108642578125,-42.30023193359375
0,275746,3.4206042289733887,132.82754516601562,97.613525390625,23.965045928955078
0,275747,-5.757260799407959,58.58212661743164,62.839237213134766,34.65245056152344
0,275750,-14.900688171386719,-91.1183090209961,-96.72156524658203,-5.266016006469727
0,275751,-0.7002274990081787,-61.081642150878906,-80.58018493652344,-15.370351791381836
0,275754,-22.88728904724121,26.641408920288086,25.571779251098633,5.141757011413574
0,275755,-55.96031951904297,45.33296203613281,61.294105529785156,-6.408626556396484
0,275758,-15.30511474609375,55.486061096191406,89.43472290039062,-10.432451248168945
0,275759,16.729963302612305,1.4518945217132568,-5.025326251983643,6.017489433288574
0,275762,79.42923736572266,-84.39556884765625,-118.36402893066406,9.771072387695312
0,275763,30.536806106567383,-33.16858673095703,-28.818449020385742,4.9609150886535645
0,275766,-70.67497253417969,71.96007537841797,116.61526489257812,-17.022233963012695
0,275959,-64.57438659667969,87.62213897705078,68.78502655029297,5.236339569091797
0,275960,-13.977350234985352,-17.3065185546875,-66.73271179199219,21.566267013549805
0,275960,95.13428497314453,-70.05929565429688,-47.34019470214844,-19.814292907714844
0,275960,60.70598602294922,-39.95128631591797,-38.19309997558594,-7.459953308105469
0,275960,-9.027474403381348,-0.11535423249006271,-32.57672882080078,13.429903030395508
0,275960,9.265477180480957,-8.130382537841797,20.966411590576172,-5.894473552703857
0,275960,-32.9240837097168,-19.696359634399414,-2.906071424484253,-18.251195907592773
0,275961,-59.60141372680664,34.52549362182617,16.008657455444336,4.364260196685791
0,275961,-15.393037796020508,33.75672912597656,59.10790252685547,14.832161903381348
0,275961,17.179153442382812,4.9309515953063965,10.672082901000977,-25.094038009643555
0,275961,8.113228797912598,5.4625020027160645,-9.09330940246582,-6.024786949157715
0,275961,21.763765335083008,-21.292816162109375,4.755071640014648,22.27627944946289
0,275961,31.23092269897461,-43.66317367553711,-31.78414535522461,-6.775611400604248
0,275962,20.540145874023438,-14.217525482177734,-49.57198715209961,-11.33924388885498
0,275962,10.199535369873047,13.426862716674805,-30.185300827026367,10.765203475952148
0,275962,-20.075510025024414,-0.04526215046644211,2.9342148303985596,14.852486610412598
0,275962,-22.741830825805664,5.512132167816162,18.30169677734375,9.020599365234375
0,275962,-13.66239070892334,44.0146598815918,23.396902084350586,1.9371827840805054
0,275962,-16.113502502441406,25.048696517944336,27.911209106445312,-12.993659973144531
0,275963,1.0734566450119019,-13.442975997924805,21.175321578979492,1.697655439376831
0,275963,2.710693359375,-1.08574378490448,16.17765998840332,8.29371452331543
0,275963,7.1554975509643555,-5.741769790649414,-20.53640365600586,2.933384656906128
0,275963,20.11005401611328,-17.02944564819336,-17.47096824645996,17.572290420532227
0,275963,10.07142162322998,7.852550029754639,13.671822547912598,-16.28732681274414
0,275963,0.9904654026031494,-2.009530544281006,-5.333497524261475,-12.666177749633789
0,275964,0.4273168742656708,-14.559228897094727,-1.111450433731079,18.46240997314453
0,275964,-12.242860794067383,-1.3012070655822754,2.8046977519989014,-7.432624340057373
0,275964,-22.114242553710938,5.872776985168457,4.254580020904541,-20.0689640045166
0,275964,-8.5543851852417,28.695388793945312,9.357711791992188,-2.0419743061065674
0,275964,-17.5865478515625,23.37177276611328,13.836105346679688,23.710790634155273
0,275965,-1.9002082347869873,5.06548547744751,18.504230499267578,6.39512300491333
0,275965,15.301395416259766,-3.702498197555542,-9.755300521850586,-17.22042465209961
0,275965,5.316065788269043,9.683198928833008,0.06469308584928513,1.4538685083389282
0,275965,6.650890827178955,0.6525222659111023,-3.2431955337524414,6.708715915679932
0,275965,-9.873172760009766,-27.66023826599121,-18.46111297607422,3.591689348220825
0,275965,-3.5460195541381836,13.2316312789917,10.881735801696777,-8.792837142944336
0,275966,11.330296516418457,1.7129337787628174,-10.553960800170898,-23.324453353881836
0,275966,-4.4128594398498535,-41.41318893432617,-15.726496696472168,7.859899044036865
0,275966,-22.03862762451172,-9.109528541564941,5.649014949798584,11.068371772766113
0,275966,-9.885588645935059,4.74820613861084,-20.645681381225586,-2.6921815872192383
0,275966,14.72231674194336,-0.022096291184425354,4.196534633636475,15.818258285522461
0,275966,27.454036712646484,-6.069181442260742,14.392463684082031,-26.147445678710938
0,275967,18.213266372680664,-20.134729385375977,-38.668766021728516,-15.581033706665039
0,275967,-13.811359405517578,-12.641617774963379,-27.405790328979492,30.87049102783203
0,275967,-7.710251331329346,-10.113426208496094,18.295326232910156,-10.705292701721191
0,275967,13.953387260437012,33.47298812866211,24.400136947631836,-8.521071434020996
0,275967,-2.153019666671753,12.584726333618164,3.37519907951355,10.011296272277832
0,275967,-8.460967063903809,-51.55084228515625,-4.983956336975098,21.333452224731445
0,275968,-8.112586975097656,31.706022262573242,16.908401489257812,11.476043701171875
0,275968,-7.873726844787598,62.468910217285156,-0.8631084561347961,-42.41151428222656
0,275968,-7.859689235687256,-29.721853256225586,-10.129988670349121,-5.021684646606445
0,275968,5.70111608505249,-43.44123458862305,3.586392402648926,29.480695724487305
0,275968,16.063796997070312,13.594510078430176,-6.0665435791015625,-6.7515974044799805
0,275968,0.6150494813919067,9.428622245788574,7.113718509674072,-13.35058879852295
0,275969,-11.423685073852539,-18.695755004882812,-6.381758213043213,8.417013168334961
0,275969,-16.071306228637695,17.653472900390625,-13.577972412109375,8.08840560913086
0,275969,6.969903469085693,36.65037536621094,8.827140808105469,-11.90170669555664
0,275969,4.397454738616943,4.8071513175964355,4.314060211181641,12.980354309082031
0,275969,-7.226639270782471,-5.044469833374023,2.606490135192871,9.255638122558594
0,275969,2.9722752571105957,-2.457766056060791,15.461788177490234,-12.04689884185791
0,275970,15.789230346679688,4.461740493774414,2.3664140701293945,-1.5206794738769531
0,275970,13.772879600524902,-1.6034213304519653,10.104936599731445,12.944499015808105
0,275970,-8.804102897644043,-18.30570411682129,13.423114776611328,-9.617513656616211
0,275970,-4.976497173309326,-6.6476521492004395,-21.849960327148438,-23.808122634887695
0,275970,-13.131867408752441,0.16438131034374237,-3.013641595840454,28.92576026916504
0,275970,6.2164106369018555,6.372313499450684,2.629467725753784,3.340599298477173
0,275971,20.92373275756836,3.734496593475342,-5.42245626449585,-16.04360008239746
0,275971,-17.412588119506836,-10.665144920349121,9.879246711730957,9.219066619873047
0,275971,-14.942025184631348,-9.456966400146484,-2.922879695892334,-13.635222434997559
0,275971,-2.0144970417022705,4.171026229858398,-11.815481185913086,-2.685004949569702
0,275971,9.619560241699219,21.83527183532715,1.8625887632369995,2.488694429397583
0,275972,17.131105422973633,-7.561438083648682,8.9523344039917,-18.240802764892578
0,275972,-7.94704008102417,-19.329753875732422,-15.909175872802734,20.505573272705078
0,275972,-15.209493637084961,16.07822036743164,7.699120998382568,30.27811050415039
0,275972,3.2709362506866455,18.308916091918945,17.53417205810547,-28.101877212524414
0,275972,7.897769451141357,2.371429681777954,-22.263776779174805,-22.042070388793945
0,275972,-11.178290367126465,-15.578532218933105,12.760499954223633,21.930675506591797
0,275972,1.7430974245071411,-7.9139556884765625,19.417997360229492,23.957557678222656
0,275973,13.88762378692627,3.6128454208374023,-15.905664443969727,-6.542202949523926
0,275973,-23.974163055419922,-5.197529315948486,2.4127390384674072,-3.739335060119629
0,275973,-7.2580037117004395,-14.43758773803711,-6.030203342437744,5.409907817840576
0,275973,15.943707466125488,8.474944114685059,-18.548065185546875,-9.199536323547363
0,275973,5.161423206329346,31.257274627685547,12.235390663146973,4.38903284072876
0,275973,9.499218940734863,-10.583527565002441,0.21533212065696716,-10.21923542022705
0,275974,-15.621371269226074,-29.432090759277344,0.5328838229179382,-0.8516952991485596
0,275974,-12.400223731994629,10.7728271484375,36.76546859741211,19.631322860717773
0,275974,12.338520050048828,25.702106475830078,-2.7716825008392334,-29.064462661743164
0,275974,10.844711303710938,-3.42052960395813,-34.44889831542969,-19.902870178222656
0,275974,-9.360669136047363,5.688398361206055,6.123292446136475,18.639493942260742
0,275975,-12.847488403320312,23.51715660095215,26.59760093688965,4.359556674957275
0,275975,11.849644660949707,10.287555694580078,30.941749572753906,-10.61792278289795
0,275975,19.109411239624023,26.234275817871094,16.231258392333984,-16.036399841308594
0,275975,0.35234588384628296,-7.572322368621826,-6.757480144500732,14.287059783935547
0,275975,-13.248419761657715,-21.827409744262695,-0.8286210894584656,28.417755126953125
0,275975,14.725645065307617,40.21906661987305,-6.559240341186523,-9.25542163848877
0,275976,4.399046421051025,-8.517377853393555,-10.58167552947998,4.727097988128662
0,275976,-22.050092697143555,-44.14329147338867,15.83756160736084,6.846522808074951
0,275977,18.899473190307617,8.768830299377441,9.627479553222656,-3.0887889862060547
0,275977,30.276676177978516,5.521903038024902,-23.38844871520996,17.165071487426758
0,275977,-6.861827850341797,-26.998199462890625,-14.846245765686035,-15.689040184020996
0,275977,-6.028653144836426,-35.60655212402344,-5.508406639099121,-11.862730026245117
0,275978,-11.110302925109863,5.145907878875732,-13.923897743225098,11.537031173706055
0,275978,-10.813645362854004,23.06353187561035,-38.231361389160156,-0.5692226886749268
0,275978,11.180253028869629,-23.592985153198242,-39.17000198364258,-15.651069641113281
0,275978,10.205085754394531,-55.10598373413086,-7.512606620788574,-11.91402816772461
0,275978,0.2816934287548065,-5.474302291870117,-10.675019264221191,16.883445739746094
0,275980,13.748616218566895,4.867129325866699,-18.08835792541504,5.541214466094971
0,275981,33.5171012878418,-53.498985290527344,-13.575931549072266,-2.516225814819336
0,275984,33.057090759277344,-20.40338706970215,-46.175174713134766,-12.882391929626465
0,275985,-4.6428937911987305,45.273616790771484,1.3643701076507568,-0.6220265626907349
0,275988,-47.67329788208008,34.304481506347656,76.66407775878906,22.729297637939453
0,275989,-18.119611740112305,-47.67624282836914,-28.406221389770508,-20.003555297851562
0,275992,-14.096516609191895,23.058778762817383,5.454224109649658,-10.796083450317383
0,275993,-37.019866943359375,110.74515533447266,119.28987884521484,22.062755584716797
0,275996,-82.09176635742188,46.318851470947266,82.95866394042969,16.8331356048584
0,275997,-32.50846481323242,52.42230987548828,45.49543762207031,-2.5112359523773193
0,276000,107.64571380615234,-50.95784378051758,-88.4698257446289,-27.431886672973633
0,276001,66.99524688720703,-120.22235870361328,-96.3714828491211,0.008072142489254475
0,276004,-14.796341896057129,-23.220212936401367,-8.411625862121582,23.142791748046875
0,276005,8.399079322814941,70.62820434570312,29.334636688232422,-8.366497993469238
0,276008,5.909272193908691,41.927513122558594,38.52922058105469,4.57551908493042
0,276009,-35.183692932128906,-80.23236846923828,-55.95247268676758,2.240467071533203
0,276012,-20.16982650756836,-17.730417251586914,-31.985885620117188,-24.72894859313965
0,276013,1.9926880598068237,38.547428131103516,19.46395492553711,16.778518676757812
0,276016,-39.667972564697266,71.10554504394531,109.68523406982422,22.962635040283203
0,276017,-24.617843627929688,55.3151741027832,99.74848937988281,-10.603759765625
0,276020,59.56205368041992,-103.50287628173828,-130.15206909179688,-33.90048599243164
0,276021,67.18961334228516,-69.60812377929688,-98.0036849975586,-18.165010452270508
0,276024,14.001853942871094,36.90068054199219,19.453907012939453,20.930131912231445
0,276025,-50.262969970703125,42.049583435058594,34.70358657836914,5.82309103012085
0,276028,-28.189233779907227,26.672664642333984,45.507598876953125,5.902679443359375
0,276029,40.07011413574219,-70.88822937011719,-67.67627716064453,13.783856391906738
0,276224,55.21645736694336,-38.04798889160156,-7.612253189086914,2.5495052337646484
0,276224,35.263160705566406,53.75358200073242,56.2642707824707,4.741111755371094
0,276225,-30.268999099731445,-13.026179313659668,-54.457096099853516,-7.716778755187988
0,276225,-44.74355697631836,-26.013904571533203,-15.48892593383789,-12.003595352172852
0,276225,-24.11993408203125,36.93148422241211,32.24770736694336,-8.382267951965332
0,276225,-33.783260345458984,41.37947082519531,26.332292556762695,10.005523681640625
0,276225,-38.44915771484375,4.099458694458008,37.784149169921875,4.955048084259033
0,276225,-16.235172271728516,-9.25115966796875,15.347983360290527,-6.858997821807861
0,276226,12.918109893798828,12.272165298461914,-14.25817584991455,5.048306941986084
0,276226,25.63017463684082,-2.4406087398529053,-18.496767044067383,-16.69374656677246
0,276226,32.088191986083984,-43.68814468383789,-19.513383865356445,3.2877628803253174
0,276226,30.16023063659668,-8.891777992248535,-33.699005126953125,23.45815658569336
0,276226,12.547553062438965,1.8174034357070923,-38.69363021850586,-18.03650665283203
0,276227,-10.536993026733398,-27.7923641204834,1.4407169818878174,-20.837400436401367
0,276227,-17.135555267333984,11.778271675109863,28.52106475830078,23.834264755249023
0,276227,-14.414018630981445,26.469812393188477,9.389311790466309,18.16753387451172
0,276227,-7.266984462738037,-1.3987329006195068,21.79898452758789,-18.527198791503906
0,276227,2.628183364868164,7.551236152648926,15.029060363769531,-1.3382664918899536
0,276227,-4.195221900939941,2.5992696285247803,-6.995798110961914,2.362191915512085
0,276228,-9.150193214416504,-5.5507893562316895,8.392669677734375,-1.408377766609192
0,276228,19.888002395629883,-10.507807731628418,-15.623063087463379,2.2988054752349854
0,276228,20.473562240600586,-27.222026824951172,-36.72212600708008,-14.0646390914917
0,276228,9.279638290405273,-0.16498145461082458,-8.630743026733398,3.928128957748413
0,276228,4.440530300140381,23.49958610534668,6.586255073547363,21.245952606201172
0,276228,-28.181856155395508,5.653024673461914,9.435149192810059,1.1743875741958618
0,276229,-16.26896095275879,-2.2795004844665527,18.360557556152344,-1.195940375328064
0,276229,-7.33980655670166,25.997356414794922,24.995901107788086,0.818571150302887
0,276229,-15.394174575805664,14.860014915466309,1.1402928829193115,-10.03851318359375
0,276229,2.240596055984497,-10.682291984558105,-3.7582764625549316,-3.5667169094085693
0,276229,3.369246482849121,-9.141101837158203,-6.644549369812012,1.0937988758087158
0,276229,9.167322158813477,-13.422691345214844,-37.950889587402344,-9.455906867980957
0,276230,2.1027889251708984,-0.9227921962738037,4.211729526519775,4.552042484283447
0,276230,0.5619276165962219,-1.586612343788147,45.85039138793945,12.044784545898438
0,276230,9.010503768920898,-12.827960968017578,-9.701630592346191,0.03050485998392105
0,276230,-12.379859924316406,-2.2950072288513184,-22.418432235717773,-0.9964752197265625
0,276230,-10.530462265014648,12.017008781433105,17.18212127685547,-17.70332908630371
0,276230,16.337448120117188,13.460001945495605,6.625967502593994,5.4710798263549805
0,276231,9.626564979553223,17.38141632080078,25.0766544342041,25.356351852416992
0,276231,-9.517637252807617,3.789696455001831,28.146345138549805,-7.420767307281494
0,276231,20.53805160522461,0.25489020347595215,-24.301660537719727,-5.315727233886719
0,276231,14.423314094543457,4.3893513679504395,-24.401662826538086,-10.84482479095459
0,276231,-18.99565887451172,-29.954669952392578,-0.3741975426673889,0.6526166796684265
0,276231,-8.142213821411133,-13.856222152709961,-19.90591049194336,29.48520851135254
0,276232,1.7995802164077759,30.22433090209961,-5.339373588562012,-15.140361785888672
0,276232,2.239734411239624,-4.9040846824646,29.19683074951172,-9.681435585021973
0,276232,-15.01384162902832,-24.961410522460938,-1.666475534439087,5.778536319732666
0,276232,-17.74724769592285,6.341549396514893,-10.235152244567871,-6.697796821594238
0,276232,2.275848150253296,29.854480743408203,10.730501174926758,22.161439895629883
0,276232,3.1902732849121094,29.549949645996094,6.525910377502441,-4.779321193695068
0,276233,-0.09404513239860535,-31.608497619628906,-5.598164081573486,-16.636152267456055
0,276233,21.78003692626953,-43.26691818237305,-13.295741081237793,-0.7086565494537354
0,276233,14.254443168640137,25.308435440063477,-11.804157257080078,-10.348370552062988
0,276233,-17.12398910522461,34.70280075073242,7.364421844482422,1.0336285829544067
0,276233,-1.497036099433899,-27.710803985595703,17.88190269470215,0.6200355887413025
0,276234,3.9006834030151367,-5.207971572875977,2.9614901542663574,10.877274513244629
0,276234,-9.62500286102295,50.74751281738281,3.615687131881714,6.984631538391113
0,276234,7.249351978302002,-14.61386489868164,7.838220119476318,-20.75604248046875
0,276234,0.6238501071929932,-16.490680694580078,-8.442511558532715,10.954475402832031
0,276234,-36.388954162597656,17.153852462768555,-0.04555647075176239,16.79213523864746
0,276234,-3.8846237659454346,-31.99177360534668,18.33033561706543,-14.41694450378418
0,276235,27.925691604614258,19.2293643951416,0.41044852137565613,0.547679603099823
0,276235,-0.46604329347610474,40.49392318725586,7.4216718673706055,6.266116142272949
0,276235,5.981258869171143,-43.681983947753906,29.34912872314453,-9.909300804138184
0,276235,9.987988471984863,-15.027219772338867,-25.990142822265625,-1.2767376899719238
0,276235,-15.945652961730957,37.5838508605957,-40.67261505126953,16.8524169921875
0,276235,-6.958858966827393,-6.022887706756592,21.531871795654297,-7.437909126281738
0,276236,9.337042808532715,-27.9222354888916,3.2624905109405518,-16.417051315307617
0,276236,2.4090850353240967,-12.859723091125488,-7.451016426086426,9.378284454345703
0,276236,20.021514892578125,13.89406967163086,5.400775909423828,-6.536809921264648
0,276236,21.398527145385742,12.18051815032959,-20.980016708374023,2.758263111114502
0,276236,-11.172453880310059,-25.071231842041016,-6.696702003479004,20.020828247070312
0,276236,-1.9240078926086426,-12.183991432189941,-9.063287734985352,-15.279559135437012
0,276237,13.363845825195312,-8.23652172088623,-12.717494010925293,-3.794382095336914
0,276237,-4.905620574951172,13.502668380737305,2.2055182456970215,5.823216915130615
0,276237,2.0924041271209717,24.128650665283203,-1.356432557106018,-23.834396362304688
0,276237,18.935546875,-12.658374786376953,10.249093055725098,10.444025039672852
0,276237,-6.038559436798096,-11.719127655029297,15.973187446594238,29.007944107055664
0,276237,-26.21033477783203,-5.707416534423828,-17.93107795715332,-11.013304710388184
0,276238,-11.657327651977539,3.5513947010040283,-22.495563507080078,-7.752659797668457
0,276238,9.39362907409668,-10.03332233428955,21.675350189208984,14.547780990600586
0,276238,23.87911033630371,-26.191383361816406,2.402432918548584,7.170431613922119
0,276238,9.626423835754395,10.74134635925293,-18.022136688232422,-5.996107578277588
0,276238,-15.29534912109375,18.51377296447754,-4.930690765380859,-0.9212365746498108
0,276238,-14.174615859985352,-2.7712326049804688,-0.8848574757575989,-3.7411813735961914
0,276239,0.010591847822070122,-4.127037048339844,13.672157287597656,-15.062504768371582
0,276239,-1.4697059392929077,1.8997405767440796,0.5479421615600586,6.568740367889404
0,276239,-5.953048229217529,-5.300027847290039,-20.64008140563965,9.231816291809082
0,276239,10.243193626403809,-8.714367866516113,-8.810824394226074,-20.467315673828125
0,276239,0.26583898067474365,18.490375518798828,23.579856872558594,-2.1229584217071533
0,276239,-16.29270362854004,13.212902069091797,5.464261054992676,8.75804615020752
0,276240,1.5317816734313965,-5.564509391784668,-13.335439682006836,3.3599629402160645
0,276240,-2.4401848316192627,5.656692981719971,26.028776168823242,2.7262253761291504
0,276240,3.219575881958008,0.35695505142211914,9.724584579467773,-25.591772079467773
0,276240,7.178414821624756,-18.39533042907715,-24.980716705322266,8.3096923828125
0,276240,-4.219839096069336,-5.357077598571777,7.347324848175049,26.694307327270508
0,276240,24.88231086730957,14.531207084655762,15.7112398147583,-16.34185791015625
0,276241,7.66810417175293,-8.157638549804688,-28.773460388183594,-2.1244430541992188
0,276242,12.044536590576172,-29.117822647094727,-40.01380157470703,6.521067142486572
0,276242,24.935457229614258,6.182029724121094,-7.324853897094727,-5.6808695793151855
0,276242,-38.70503616333008,33.887184143066406,31.07759666442871,6.860732555389404
0,276242,-21.161876678466797,-14.50741958618164,2.2717933654785156,-5.9090375900268555
0,276243,15.094979286193848,-21.796550750732422,-5.450812816619873,-8.956207275390625
0,276243,-4.214578628540039,4.949005603790283,27.08191680908203,15.139633178710938
0,276243,-25.770179748535156,0.3530203700065613,0.55122309923172,3.452007532119751
0,276243,-6.295592784881592,16.00670623779297,10.918588638305664,1.2234572172164917
0,276243,14.21260929107666,9.77773666381836,12.526229858398438,10.663924217224121
0,276245,-16.71132469177246,40.28618621826172,47.19749069213867,3.4336276054382324
0,276246,14.91616439819336,63.02909469604492,26.809064865112305,-12.825018882751465
0,276247,35.48717498779297,-45.03269958496094,-97.03723907470703,-29.859230041503906
0,276250,-50.32603073120117,-77.58868408203125,-15.463915824890137,15.870948791503906
0,276251,-72.88092803955078,25.642797470092773,41.615962982177734,13.352188110351562
0,276254,-32.33869934082031,75.2462158203125,32.998008728027344,-42.903587341308594
0,276255,-11.674384117126465,72.54365539550781,109.21900177001953,-7.507808685302734
0,276258,47.6679801940918,0.21747848391532898,-5.733295440673828,67.97437286376953
0,276259,78.50192260742188,-111.90269470214844,-124.51478576660156,35.99357986450195
0,276262,54.589908599853516,-100.15222930908203,-86.36421966552734,-46.427772521972656
0,276263,13.061562538146973,-14.787918090820312,-36.08171844482422,-24.541980743408203
0,276266,-26.7266788482666,58.429969787597656,61.979156494140625,5.860157012939453
0,276267,-5.266693592071533,28.273405075073242,35.076087951660156,-1.9247944355010986
0,276270,2.1423654556274414,-47.6994743347168,-37.80900192260742,27.638076782226562
0,276271,-38.424747467041016,-4.572938919067383,3.799351453781128,12.55035400390625
0,276274,-46.636348724365234,56.595340728759766,42.06700897216797,-28.218666076660156
0,276275,-31.052921295166016,73.34870147705078,87.2288818359375,5.3923540115356445
0,276278,35.03257369995117,-18.39128875732422,-18.437049865722656,-1.6411759853363037
0,276279,52.20213317871094,-91.69720458984375,-103.70153045654297,-37.09201431274414
0,276282,31.694042205810547,3.163346767425537,-38.39776611328125,-18.68061065673828
0,276283,60.84955596923828,47.226226806640625,52.46704864501953,28.67749786376953
0,276286,-29.63323974609375,9.605938911437988,74.1478500366211,26.58192253112793
0,276287,-66.28168487548828,-47.281959533691406,-58.634159088134766,-22.64714241027832
0,276290,-1.9223531484603882,-39.530738830566406,-73.05062103271484,-1.9756766557693481
0,276291,-27.906023025512695,22.140079498291016,9.619017601013184,17.78057289123535
0,276294,-21.699127197265625,60.36465835571289,69.29523468017578,17.55820083618164
0,276295,-14.10168743133545,68.35279083251953,86.91316986083984,13.411768913269043
0,276297,-1.1809892654418945,-24.349668502807617,0.3264797627925873,-27.20627212524414
0,276490,102.45441436767578,-155.69195556640625,-173.56411743164062,-18.447067260742188
0,276491,40.58548355102539,-67.2883071899414,-99.79830932617188,20.060646057128906
0,276491,-114.24089050292969,127.17847442626953,145.4207305908203,22.261720657348633
0,276491,-37.437705993652344,75.82443237304688,69.08785247802734,2.259277582168579
0,276491,53.34671401977539,-24.6138858795166,-32.493186950683594,-28.2873592376709
0,276491,27.02094268798828,-55.89783477783203,-9.114426612854004,-26.385028839111328
0,276491,23.95165252685547,-23.58450698852539,-5.53177547454834,7.703498840332031
0,276492,30.154499053955078,28.230417251586914,-16.00446128845215,18.558551788330078
0,276492,3.8370273113250732,5.835575103759766,-22.288175582885742,0.42043545842170715
0,276492,-35.87194061279297,-6.68302583694458,4.9371490478515625,-9.911351203918457
0,276492,-51.97900390625,12.44672966003418,33.43425750732422,-1.5027999877929688
0,276492,-47.2917594909668,38.403053283691406,49.28007888793945,1.3803601264953613
0,276492,-14.860374450683594,25.180217742919922,39.71221923828125,11.104083061218262
0,276493,10.49265193939209,12.551276206970215,10.63953971862793,13.93200397491455
0,276493,18.07747459411621,2.7436745166778564,-18.899465560913086,3.1744678020477295
