Aktueller Finger,timestamp_ms,sensor_0,sensor_1,sensor_2,sensor_3
0,147447,-6.2865118980407715,12.04210090637207,24.58717155456543,-13.738154411315918
0,147448,3.2062137126922607,-4.73380708694458,1.0128471851348877,-118.1728286743164
0,147448,-5.795993328094482,-7.273233413696289,-28.29492950439453,39.123783111572266
0,147448,9.110424995422363,-8.796689987182617,-3.458191156387329,8.770465850830078
0,147448,7.238802433013916,-10.981781959533691,0.5319721698760986,-15.215751647949219
0,147448,-24.4608154296875,5.024339199066162,11.639206886291504,1.584700107574463
0,147448,-5.404566764831543,3.425222158432007,3.1280503273010254,22.66350555419922
0,147449,20.22064781188965,1.270421028137207,17.97443199157715,5.093327045440674
0,147449,14.987712860107422,17.806488037109375,28.866121292114258,-27.37701988220215
0,147449,-5.084909915924072,9.920536994934082,20.067352294921875,-0.13827481865882874
0,147449,-6.903743743896484,-17.520540237426758,9.073908805847168,9.423539161682129
0,147449,6.705707550048828,1.8735461235046387,-0.8385320901870728,-20.05988883972168
0,147449,-2.2404892444610596,8.107583045959473,-14.51907730102539,-3.9376254081726074
0,147450,-5.3458099365234375,-15.686080932617188,-25.0230712890625,4.835400104522705
0,147450,1.2391374111175537,20.219982147216797,-6.885704517364502,-0.8818166851997375
0,147450,10.147026062011719,-12.790080070495605,0.15906748175621033,10.95036792755127
0,147450,-10.969139099121094,-28.765310287475586,-3.8704562187194824,0.6701596975326538
0,147450,-13.809670448303223,30.244552612304688,8.509247779846191,4.058012962341309
0,147450,21.010068893432617,1.345514178276062,-1.0700496435165405,3.5725512504577637
0,147451,3.097736120223999,-5.058380126953125,14.260675430297852,-10.925930976867676
0,147451,-15.49464225769043,6.237790584564209,14.045551300048828,6.7311224937438965
0,147451,-1.9842265844345093,-1.4883160591125488,-31.92150115966797,-0.696653425693512
0,147451,17.221595764160156,14.711271286010742,-4.799976348876953,1.8913402557373047
0,147451,10.908551216125488,-12.218399047851562,-0.4441779851913452,4.35606050491333
0,147451,-22.817733764648438,-13.121101379394531,-11.625452995300293,-22.783206939697266
0,147452,-4.800442695617676,4.5716094970703125,14.111504554748535,6.613701820373535
0,147452,13.665596008300781,4.406772136688232,14.51456356048584,24.218936920166016
0,147452,-2.467120885848999,9.205704689025879,-1.3344905376434326,-2.2302422523498535
0,147452,3.9344658851623535,-26.50141143798828,-15.57967472076416,-9.453771591186523
0,147452,-5.5956292152404785,-3.4278440475463867,-0.3185079097747803,0.7120494842529297
0,147453,-8.837356567382812,30.995227813720703,21.603168487548828,-6.351545333862305
0,147453,16.688203811645508,-9.049277305603027,15.4488525390625,-18.29086685180664
0,147453,-4.2224931716918945,-9.268272399902344,-2.4741580486297607,4.7843337059021
0,147453,-6.551269054412842,12.282559394836426,-4.6050124168396,18.705265045166016
0,147453,12.560413360595703,4.185073375701904,-4.797635078430176,-8.752857208251953
0,147453,-5.378873825073242,-7.950239658355713,-16.645429611206055,-12.608769416809082
0,147454,0.3522784411907196,-8.257474899291992,0.3494279384613037,32.99883270263672
0,147454,16.381484985351562,13.609475135803223,12.497393608093262,3.1694655418395996
0,147454,-6.912596702575684,2.780578374862671,21.657987594604492,-18.82720184326172
0,147454,-14.889162063598633,-14.64186954498291,23.242799758911133,11.070247650146484
0,147454,12.205533027648926,3.8847203254699707,-35.71345901489258,-22.80487060546875
0,147456,10.123029708862305,1.3602372407913208,5.871372699737549,5.000820636749268
0,147456,-7.120383262634277,3.910851240158081,31.281658172607422,23.441665649414062
0,147456,-14.643936157226562,-7.772156715393066,-48.528072357177734,-19.585573196411133
0,147456,-17.845043182373047,-15.594959259033203,-24.991981506347656,7.419397354125977
0,147457,0.7256770730018616,23.168848037719727,17.11121940612793,8.600367546081543
0,147460,35.208927154541016,13.157894134521484,4.938045024871826,-21.933019638061523
0,147461,18.342411041259766,-13.252388000488281,9.027558326721191,-97.07910919189453
0,147464,-34.738895416259766,3.2267823219299316,-41.67728805541992,21.492332458496094
0,147465,-20.69388771057129,-13.549970626831055,-60.75640869140625,166.19381713867188
0,147468,15.597134590148926,-31.75360679626465,32.220741271972656,-39.305389404296875
0,147723,-14.254125595092773,5.641613006591797,-26.151853561401367,-79.32535552978516
0,147724,-10.194064140319824,32.52660369873047,-2.654376983642578,26.897390365600586
0,147725,38.56421661376953,-2.1852564811706543,178.40182495117188,33.48078155517578
0,147728,21.256763458251953,12.667860984802246,82.75257110595703,4.928823471069336
0,147729,-9.98264217376709,31.467689514160156,-88.52803802490234,2.1458215713500977
0,147732,-2.533141613006592,-3.8011324405670166,-21.637317657470703,11.162639617919922
0,147733,-6.3896379470825195,-13.207328796386719,-17.187273025512695,-44.25834274291992
0,147736,-20.050670623779297,-24.375905990600586,-167.00648498535156,-0.49875566363334656
0,181764,-14.96393871307373,-7.541738033294678,19.3497257232666,16.88261604309082
0,181764,5.1539835929870605,-4.456090450286865,175.36898803710938,-38.80582809448242
0,181764,28.58835792541504,4.31095552444458,-27.80414581298828,-6.490591049194336
0,181764,3.8240668773651123,-0.3242148160934448,-63.78617477416992,25.654884338378906
0,181765,-24.063709259033203,-23.4847469329834,-6.207298755645752,10.459273338317871
0,181765,-12.609416007995605,11.306387901306152,-4.038177490234375,-0.22753438353538513
0,181765,3.706804037094116,4.073880672454834,17.605274200439453,2.122765064239502
0,181765,9.586397171020508,-15.296548843383789,2.6426491737365723,-6.414214134216309
0,181765,3.4873785972595215,23.53641128540039,31.14447784423828,-12.910091400146484
0,181765,16.301603317260742,19.321857452392578,39.28806686401367,5.981975078582764
0,181766,9.466796875,-30.92333984375,-7.389004230499268,13.552734375
0,181766,-16.76748275756836,11.71413803100586,1.7667816877365112,11.11197280883789
0,181766,0.6905645132064819,48.86839294433594,-2.4554190635681152,0.5825960636138916
0,181766,9.032137870788574,-19.030275344848633,-41.42310333251953,-14.88232421875
0,181766,-5.209613800048828,-23.468978881835938,-41.30289077758789,-25.82837677001953
0,181766,-5.144132137298584,7.443047046661377,-16.06147575378418,-6.319772720336914
0,181767,-20.560436248779297,-17.164915084838867,20.29452896118164,23.557281494140625
0,181767,3.325460433959961,-3.021122694015503,30.355915069580078,10.94347095489502
0,181767,37.82032775878906,17.38885498046875,5.259582996368408,7.283619403839111
0,181767,3.2300515174865723,2.822345733642578,18.312358856201172,9.02079963684082
0,181767,-18.89171028137207,4.346612930297852,11.45958423614502,-11.785120964050293
0,181768,-6.138759136199951,-1.8092893362045288,-17.38095474243164,-23.81512451171875
0,181768,16.903202056884766,-17.491535186767578,-19.677270889282227,5.1447834968566895
0,181768,-4.0365729331970215,9.437055587768555,-0.42844197154045105,26.361434936523438
0,181768,-15.906150817871094,22.396318435668945,-23.844013214111328,-15.765654563903809
0,181768,0.04236266389489174,-29.143129348754883,-36.6705436706543,-27.88189697265625
0,181768,-7.642721176147461,-19.301530838012695,26.292098999023438,20.926496505737305
0,181769,8.204279899597168,30.80232048034668,29.387413024902344,19.88724136352539
0,181769,9.007765769958496,14.174795150756836,-0.3732639253139496,-7.972105979919434
0,181769,-7.494937896728516,-20.324871063232422,0.6851241588592529,-3.1503632068634033
0,181769,-8.668057441711426,4.780420780181885,7.888138294219971,-8.329850196838379
0,181769,6.310146331787109,20.59878158569336,5.109845161437988,19.05800437927246
0,181769,8.344555854797363,-22.095041275024414,16.151697158813477,23.41583251953125
0,181770,14.270469665527344,-4.760463714599609,16.955625534057617,-37.922183990478516
0,181770,-7.981894493103027,-0.9688307046890259,-5.548969268798828,-14.460526466369629
0,181770,-17.65231704711914,-20.358285903930664,-38.26244354248047,11.331279754638672
0,181770,-4.962348461151123,12.96729850769043,-9.277429580688477,-9.254021644592285
0,181770,-14.62508773803711,14.494735717773438,38.05558395385742,15.979215621948242
0,181770,15.044329643249512,-9.790566444396973,-17.934097290039062,-0.2562924325466156
0,181771,10.475399017333984,-17.404205322265625,-6.250599384307861,-25.992523193359375
0,181771,6.958533763885498,11.297637939453125,19.03285026550293,7.180551528930664
0,181771,8.924177169799805,26.36957550048828,-16.502696990966797,6.981269836425781
0,181771,-19.299745559692383,5.420894622802734,-22.925106048583984,-7.422867774963379
0,181771,2.72741436958313,-7.567498683929443,-27.892169952392578,4.616328716278076
0,181773,9.952066421508789,-9.644944190979004,-41.09651565551758,4.78583288192749
0,181773,-14.26284122467041,-7.701098442077637,-27.059036254882812,1.5901820659637451
0,181773,-9.554718971252441,-3.954462766647339,33.66786193847656,7.115904808044434
0,181773,5.630555629730225,8.445021629333496,6.0097975730896,11.41910457611084
0,181774,-7.151808738708496,-8.39773178100586,-61.114139556884766,-4.648534774780273
0,181776,-15.51366901397705,-14.040212631225586,-48.70600128173828,-30.144309997558594
0,181778,1.973629355430603,1.2844051122665405,26.732463836669922,-13.208881378173828
0,181780,-6.205243110656738,-12.167532920837402,15.549402236938477,19.28326416015625
0,181782,-0.0852041244506836,6.934481143951416,37.64140319824219,9.678999900817871
0,181784,27.185945510864258,16.583959579467773,154.24050903320312,1.6681504249572754
0,181786,25.0102481842041,5.453281402587891,108.12456512451172,2.923320770263672
0,181788,-3.339031934738159,2.1911683082580566,-7.498219966888428,14.222264289855957
0,181790,21.114973068237305,21.47426414489746,-19.226778030395508,2.3002841472625732
0,181792,19.3059024810791,26.119924545288086,30.049482345581055,-7.443637847900391
0,181794,-37.11357879638672,-32.1164665222168,-130.69764709472656,-1.4514853954315186
0,181796,-27.53782081604004,-15.473929405212402,-171.01235961914062,-13.628918647766113
0,181798,-18.99121856689453,-14.544428825378418,37.41292953491211,-5.457278728485107
0,181800,-0.04428861662745476,-25.383121490478516,17.937349319458008,-2.870750904083252
0,181802,11.222618103027344,27.743179321289062,12.23573112487793,26.091581344604492
0,181804,13.874409675598145,13.476943969726562,112.72581481933594,23.44657325744629
0,181806,-0.3925505578517914,3.476165533065796,63.635196685791016,-39.48552322387695
0,181808,-3.6667494773864746,-10.837827682495117,-39.667606353759766,-5.0251922607421875
0,181906,30.983545303344727,-8.796010971069336,-62.15006637573242,22.77355194091797
0,181906,-7.104350566864014,34.16823196411133,6.630368709564209,-12.007308959960938
0,181907,-26.210391998291016,7.491817474365234,72.45812225341797,11.232568740844727
0,181907,18.535057067871094,5.805741786956787,60.695411682128906,-0.4154280126094818
0,181907,34.6802978515625,-7.860621929168701,-11.539281845092773,-19.944229125976562
0,181907,-14.023356437683105,-25.970422744750977,-52.75934600830078,18.36979866027832
0,181907,-15.592615127563477,22.16533088684082,-35.43238830566406,12.07274055480957
0,181907,1.2481601238250732,25.539690017700195,-41.301673889160156,-21.900314331054688
0,181908,-16.264928817749023,-15.649460792541504,-71.82991790771484,1.6651376485824585
0,181908,5.859264373779297,-44.656307220458984,-42.19342803955078,8.813822746276855
0,181908,-17.703506469726562,-16.809253692626953,47.45918273925781,-9.043862342834473
0,181908,-9.022473335266113,6.617622375488281,44.06140899658203,13.449773788452148
0,181908,34.96235656738281,13.79714584350586,2.124237298965454,-8.706525802612305
0,181908,-1.9596318006515503,15.07773208618164,44.06533432006836,-16.27580451965332
0,181909,1.4978539943695068,-2.854170799255371,25.73748016357422,9.908188819885254
0,181909,10.2686185836792,10.534859657287598,-30.60531997680664,-11.997193336486816
0,181909,-22.879667282104492,-5.356691837310791,-18.533329010009766,6.264054775238037
0,181909,-10.381332397460938,-23.1635684967041,-16.530221939086914,9.846613883972168
0,181909,-1.7903257608413696,22.72697639465332,6.843082904815674,-17.33758544921875
0,181909,12.090712547302246,11.206321716308594,6.1455769538879395,6.964711666107178
0,181910,9.03627872467041,-12.129389762878418,-21.88558006286621,8.216151237487793
0,181910,-19.09624481201172,15.498414993286133,21.480693817138672,-3.7927637100219727
0,181910,9.698762893676758,-14.396950721740723,19.65033531188965,-10.434496879577637
0,181910,8.534780502319336,-25.45011329650879,4.936470985412598,-5.954162120819092
0,181910,-20.235139846801758,11.418594360351562,28.623180389404297,22.53534698486328
0,181911,4.277799129486084,14.287693977355957,-26.732358932495117,-1.9705497026443481
0,181911,20.43030548095703,-5.791008949279785,-48.29880142211914,-20.37718963623047
0,181911,0.23291407525539398,-7.349365711212158,-3.586137056350708,10.642663955688477
0,181911,-10.832195281982422,3.4654672145843506,-28.73746681213379,4.873209476470947
0,181911,-2.5751373767852783,1.7083351612091064,-23.948896408081055,-11.28930377960205
0,181911,-9.400196075439453,18.375486373901367,26.770410537719727,14.313740730285645
0,181912,7.309535026550293,-1.9496800899505615,17.45859718322754,4.392323970794678
0,181912,13.266836166381836,-28.09206199645996,8.638155937194824,-2.226591110229492
0,181912,-20.297504425048828,11.542266845703125,11.922948837280273,23.576250076293945
0,181912,13.65161418914795,26.821184158325195,7.099465847015381,-19.28606414794922
0,181912,15.704379081726074,-6.40476655960083,1.6176997423171997,-26.011558532714844
0,181912,-30.8414306640625,-27.076919555664062,-12.557397842407227,28.218456268310547
0,181913,4.145161151885986,7.330343246459961,-6.604300498962402,9.691917419433594
0,181913,26.490203857421875,13.615277290344238,-16.020544052124023,-34.13231658935547
0,181913,-6.468051910400391,-27.025300979614258,-28.018930435180664,-9.516158103942871
0,181913,-10.99803352355957,-7.9550371170043945,-15.126532554626465,13.142837524414062
0,181913,-15.198569297790527,10.18193531036377,12.288373947143555,5.571812629699707
0,181913,-17.284046173095703,0.2782266438007355,35.6622200012207,5.8898115158081055
0,181914,29.332746505737305,-4.18595027923584,17.134477615356445,2.3004021644592285
0,181914,18.535985946655273,7.298555850982666,-2.050194501876831,4.7195587158203125
0,181914,-22.433483123779297,34.29970932006836,14.589614868164062,-7.149624347686768
0,181914,-1.4725488424301147,-15.26395034790039,-17.302444458007812,-16.716506958007812
0,181914,-14.875101089477539,-30.69085121154785,-37.94038772583008,7.3348002433776855
0,181914,-13.371528625488281,15.855398178100586,28.984905242919922,13.544425964355469
0,181916,8.198892593383789,0.7002353072166443,7.871138572692871,-18.60359764099121
0,181916,-1.0903363227844238,-23.53348731994629,-37.68693161010742,-1.167589783668518
0,181916,16.83895492553711,-8.734598159790039,-14.052374839782715,19.441679000854492
0,181916,2.3762876987457275,24.21898078918457,24.631502151489258,-12.188385009765625
0,181916,-6.022012233734131,12.429967880249023,47.010597229003906,3.75777530670166
0,181918,23.288612365722656,-1.5124387741088867,7.121597766876221,16.331846237182617
0,181920,-8.1628999710083,-5.879387378692627,-39.45008850097656,-22.53130340576172
0,181922,-10.959497451782227,3.650346040725708,-12.792963027954102,-5.690777778625488
0,181924,22.080045700073242,21.35642433166504,145.22454833984375,42.92626190185547
0,181926,11.447053909301758,-17.75522232055664,136.91592407226562,-8.864496231079102
0,181928,7.930661678314209,7.816958904266357,-54.741512298583984,-17.2098445892334
0,181930,13.476183891296387,40.252445220947266,-48.505062103271484,25.00108528137207
0,181932,4.202244281768799,-3.487666606903076,-30.78122901916504,-15.945533752441406
0,181934,-42.107749938964844,-34.679298400878906,-123.34793853759766,-30.95757293701172
0,181937,-40.75186538696289,-25.072011947631836,-111.66221618652344,2.881784200668335
0,181938,20.03107452392578,19.04768180847168,7.620639801025391,32.58539962768555
0,181941,10.33636474609375,-9.259242057800293,44.03205871582031,-10.842744827270508
0,181942,-13.587884902954102,-15.12254524230957,4.099979400634766,-18.12754249572754
0,181945,18.36542320251465,14.829426765441895,100.38311004638672,3.5114943981170654
0,181946,24.00530242919922,-8.976755142211914,89.1999740600586,-7.9243855476379395
0,181947,-2.8657779693603516,17.29795265197754,-67.14786529541016,21.47239875793457
0,181950,-0.7074695229530334,14.439657211303711,13.977601051330566,20.707199096679688
0,181951,14.077098846435547,-2.8834469318389893,65.3966064453125,10.050798416137695
0,181954,-36.51587677001953,0.017763754352927208,-135.84825134277344,-13.420167922973633
0,181955,-43.849876403808594,-10.714119911193848,-115.83724212646484,-10.96132755279541
0,182066,50.04064178466797,-9.806925773620605,223.5364227294922,11.827231407165527
0,182066,37.54861831665039,0.6832440495491028,160.75537109375,-10.57711410522461
0,182067,-26.299135208129883,5.352269649505615,-192.9324493408203,-9.638389587402344
0,182067,-27.590246200561523,-14.525918960571289,-131.2377471923828,13.934029579162598
0,182067,-20.155948638916016,14.49399471282959,20.93500328063965,6.854160308837891
0,182067,15.739639282226562,19.935361862182617,-10.712130546569824,-33.47439193725586
0,182067,29.677173614501953,-14.139264106750488,-0.8485729694366455,-8.293780326843262
0,182067,-2.3802404403686523,-19.20638656616211,45.80644607543945,16.660009384155273
0,182068,-22.139404296875,-13.425507545471191,32.56977081298828,-3.59737491607666
0,182068,5.492887020111084,25.96214485168457,31.90800666809082,18.4747371673584
0,182068,27.920085906982422,15.539548873901367,30.279991149902344,-3.795865058898926
0,182068,-4.01814603805542,-11.376579284667969,-30.1815185546875,-12.413536071777344
0,182068,-19.630395889282227,1.8455712795257568,-64.50287628173828,11.343608856201172
0,182068,-8.771647453308105,-6.8132195472717285,-27.737091064453125,-3.8906750679016113
0,182069,-3.000746250152588,2.2519490718841553,2.87451171875,-6.811736583709717
0,182069,2.3691835403442383,2.0970089435577393,-8.92614459991455,-7.012699604034424
0,182069,4.721858501434326,-2.8349103927612305,7.698877811431885,8.383429527282715
0,182069,-2.7668676376342773,-11.474679946899414,56.02558135986328,24.967863082885742
0,182069,9.820006370544434,-11.636971473693848,65.62893676757812,5.417140483856201
0,182069,15.75314998626709,33.25197219848633,1.0375975370407104,-23.22064208984375
0,182070,-1.1012340784072876,17.088064193725586,-37.970035552978516,-7.18385124206543
0,182070,3.868020534515381,-2.943147897720337,0.8914042711257935,9.671446800231934
0,182070,4.902462482452393,9.849762916564941,9.284282684326172,-2.4274847507476807
0,182070,-7.567347526550293,-6.686814785003662,-43.346343994140625,-6.515641212463379
0,182070,-6.019174575805664,-26.531932830810547,-38.34260559082031,6.757484436035156
0,182070,1.6261217594146729,-6.9156036376953125,-17.62864875793457,8.774057388305664
0,182071,-9.293112754821777,13.566198348999023,1.0317411422729492,-21.193965911865234
0,182071,-7.4669189453125,1.963987946510315,37.412437438964844,-9.337873458862305
0,182071,17.41999053955078,9.843881607055664,8.720772743225098,16.686664581298828
0,182071,3.3510923385620117,-13.959120750427246,-23.31688690185547,2.759000539779663
0,182071,-18.598417282104492,-32.42778778076172,9.59646224975586,-4.684262752532959
0,182071,3.186056137084961,10.569050788879395,4.4231038093566895,2.2733683586120605
0,182072,-1.6165907382965088,31.252172470092773,-39.27153778076172,7.08115291595459
0,182072,-5.118122577667236,-2.08713698387146,-26.092618942260742,-2.137316942214966
0,182072,11.742202758789062,-31.154794692993164,-6.433033466339111,-9.36627197265625
0,182072,-26.056413650512695,-28.107173919677734,7.346919059753418,13.529735565185547
0,182072,-6.156209945678711,17.47880744934082,22.883230209350586,-7.070535659790039
0,182072,18.371692657470703,37.12141799926758,19.701446533203125,-27.107345581054688
0,182073,-21.764503479003906,-28.14218521118164,-5.049095153808594,9.772894859313965
0,182073,11.591949462890625,-19.583484649658203,-26.38271713256836,-0.263791024684906
0,182073,10.567910194396973,21.742469787597656,7.855494499206543,-7.931657314300537
0,182073,-10.972176551818848,2.7916600704193115,28.65140724182129,37.807464599609375
0,182073,21.863401412963867,20.796112060546875,-39.604915618896484,2.0852560997009277
0,182073,-4.159645080566406,11.67233657836914,-15.391189575195312,-37.246971130371094
0,182074,-17.689632415771484,-11.70129108428955,51.57416534423828,13.985007286071777
0,182074,8.170185089111328,10.393783569335938,-28.680309295654297,10.220099449157715
0,182074,1.5060590505599976,-5.823726177215576,-18.870044708251953,-12.298314094543457
0,182074,7.837346076965332,-15.212401390075684,71.12088012695312,14.516014099121094
0,182074,8.287214279174805,22.80647850036621,10.74855899810791,6.004142761230469
0,182075,2.379274368286133,7.024814128875732,-24.913455963134766,-18.660377502441406
0,182075,1.822087287902832,-14.792417526245117,26.067930221557617,7.730414390563965
0,182075,-13.981072425842285,7.224372863769531,-0.5003014206886292,6.352159023284912
0,182075,-10.672528266906738,-12.1273193359375,-28.473711013793945,-16.145313262939453
0,182075,-3.3478050231933594,-15.902555465698242,27.728179931640625,3.2697198390960693
0,182075,19.047216415405273,-4.52679443359375,13.11817741394043,-2.8439788818359375
0,182077,-19.745689392089844,-27.764577865600586,-79.39376831054688,-4.103634357452393
0,182077,-30.86761474609375,15.613985061645508,-28.619815826416016,-6.883924961090088
0,182077,52.558319091796875,39.551700592041016,50.204429626464844,-8.439865112304688
0,182077,19.25502586364746,-18.728736877441406,25.703256607055664,31.7777156829834
0,182077,-37.42311477661133,-9.651351928710938,10.204346656799316,14.312756538391113
0,182079,-28.58834457397461,8.595992088317871,12.205193519592285,-10.811485290527344
0,182080,14.609593391418457,-7.608460426330566,-51.115081787109375,-21.239351272583008
0,182081,50.95720291137695,11.226253509521484,-24.625404357910156,-20.001697540283203
0,182084,4.951435089111328,9.21618938446045,193.20846557617188,68.65548706054688
0,182085,-16.25718116760254,-5.83190393447876,139.2490692138672,31.06656837463379
0,182088,30.515134811401367,9.78858470916748,-89.56963348388672,-40.146236419677734
0,182089,2.9008119106292725,10.650251388549805,-44.5588264465332,14.270468711853027
0,182092,-38.760623931884766,9.09812068939209,10.621356964111328,-18.925952911376953
0,182093,2.0675508975982666,-0.09961225837469101,-112.29138946533203,-31.958904266357422
0,182096,0.7066518664360046,-27.142147064208984,-170.73318481445312,6.751895904541016
0,182097,-16.205820083618164,-19.271560668945312,-21.12232208251953,-2.0289528369903564
0,182100,-26.339405059814453,0.3994223475456238,47.539127349853516,-18.94676399230957
0,182101,-10.418322563171387,6.907517910003662,-5.040653705596924,-6.952837944030762
0,182104,31.99881935119629,-0.1747138798236847,128.47756958007812,28.574132919311523
0,182105,39.62916564941406,22.260297775268555,138.1300048828125,21.41614532470703
0,182108,5.234213829040527,30.930368423461914,-90.8653564453125,-2.5258893966674805
0,182109,-32.23747253417969,-8.804767608642578,-41.728309631347656,0.8012650012969971
0,182112,9.12509822845459,-20.03858184814453,44.18345642089844,-11.325034141540527
0,182113,6.412911415100098,-9.71110725402832,-74.95551300048828,-25.99967384338379
0,182116,-19.854902267456055,-3.3553082942962646,-69.1030502319336,24.01802635192871
0,182117,4.928269386291504,-11.133052825927734,0.17433205246925354,27.335861206054688
0,182239,-12.737772941589355,-1.1622220277786255,35.838348388671875,-62.20375061035156
0,182239,-14.050761222839355,14.958544731140137,-25.537723541259766,-50.99327087402344
0,182239,-2.2674272060394287,-3.279592990875244,-83.6939468383789,33.104434967041016
0,182239,0.817908525466919,-27.20416259765625,-18.438575744628906,16.805347442626953
0,182240,-6.034867763519287,-23.893817901611328,3.12101411819458,-10.985755920410156
0,182240,-14.361678123474121,0.45053526759147644,25.531370162963867,22.427799224853516
0,182240,14.378750801086426,37.67321014404297,88.32408905029297,37.14736557006836
0,182240,33.725772857666016,36.11405563354492,77.88743591308594,4.682178020477295
0,182240,22.049596786499023,-28.19045639038086,37.98816680908203,-3.79183030128479
0,182240,-8.839743614196777,-16.862577438354492,34.56760787963867,11.404290199279785
0,182241,3.1064536571502686,36.10733413696289,7.9738898277282715,14.587393760681152
0,182241,8.06527328491211,-0.7741793394088745,-39.40765380859375,15.262537002563477
0,182241,-17.76662254333496,-24.305234909057617,-22.886146545410156,1.0472420454025269
0,182241,-11.253643989562988,-6.997003555297852,-22.561504364013672,-16.1983642578125
0,182241,8.210307121276855,15.713905334472656,-43.135921478271484,-26.053869247436523
0,182241,6.083408355712891,23.37428855895996,-4.132522106170654,-6.9163665771484375
0,182242,-3.4424314498901367,-15.88843822479248,29.33106803894043,-4.7778000831604
0,182242,-2.8919169902801514,-11.032645225524902,49.92106246948242,-2.489234209060669
0,182242,-1.7846304178237915,17.183460235595703,38.767539978027344,14.749810218811035
0,182242,16.786357879638672,15.251616477966309,20.923583984375,-10.221915245056152
0,182242,10.007830619812012,-0.2108142226934433,-9.02637767791748,-1.5483537912368774
0,182242,-17.33091163635254,-23.18502426147461,-29.31189727783203,18.45255470275879
0,182243,-11.07873249053955,1.9646577835083008,-15.139023780822754,-3.487126111984253
0,182243,-1.6672455072402954,16.59676742553711,-48.43318557739258,-27.25086784362793
0,182243,-9.578076362609863,-18.671951293945312,-15.161531448364258,-16.71766471862793
0,182243,-8.9541015625,-19.159610748291016,34.677494049072266,26.000511169433594
0,182243,-3.388695240020752,7.245927810668945,-6.785284519195557,-3.086385726928711
0,182244,8.802425384521484,-7.188487529754639,-9.063882827758789,-27.023603439331055
0,182244,10.94818115234375,7.738478183746338,29.360370635986328,16.710161209106445
0,182244,6.364658355712891,41.92573928833008,9.358893394470215,7.799676418304443
0,182244,12.856264114379883,-18.76786994934082,-14.125886917114258,-1.5216463804244995
0,182244,-9.535931587219238,-26.761919021606445,3.095005989074707,17.07670783996582
0,182244,-12.084805488586426,10.885494232177734,-36.63780975341797,0.7909036874771118
0,182245,8.601394653320312,-11.715279579162598,-35.45648956298828,-15.741814613342285
0,182245,11.080052375793457,20.232444763183594,37.126686096191406,-6.037442684173584
0,182245,13.475987434387207,18.304697036743164,5.2296600341796875,-9.713011741638184
0,182245,-19.895124435424805,-41.64333724975586,-10.383941650390625,19.181886672973633
0,182245,-18.9281063079834,13.260687828063965,34.5822868347168,23.861663818359375
0,182245,26.53385353088379,26.877883911132812,12.756327629089355,-14.275106430053711
0,182246,3.4119391441345215,-20.34531593322754,7.3429646492004395,11.518218040466309
0,182246,-18.910249710083008,1.478531837463379,-0.43407315015792847,-1.5637511014938354
0,182246,5.411488056182861,-9.992294311523438,-35.738956451416016,-25.02587890625
0,182246,6.842458248138428,4.9512481689453125,-18.3327579498291,9.262900352478027
0,182246,-16.123125076293945,10.654680252075195,9.276871681213379,11.500079154968262
0,182246,-4.3769402503967285,-13.3152494430542,11.2164306640625,-13.296608924865723
0,182247,4.792294502258301,9.125879287719727,-25.117387771606445,-8.596590995788574
0,182247,-7.789783954620361,-10.003972053527832,-9.225947380065918,10.858024597167969
0,182247,18.029085159301758,-16.371570587158203,33.21912384033203,-1.5393882989883423
0,182247,17.41396713256836,11.278646469116211,-12.221413612365723,-10.783149719238281
0,182247,-0.3000464141368866,15.768279075622559,-20.10639762878418,-4.605151653289795
0,182247,-13.465983390808105,-3.2183520793914795,-5.2976975440979,20.000694274902344
0,182248,-4.413062572479248,4.705158710479736,18.35199546813965,6.698099136352539
0,182248,7.0839762687683105,16.111421585083008,30.560678482055664,-23.525915145874023
0,182248,-4.071501731872559,-19.74353790283203,-31.119752883911133,12.292709350585938
0,182248,1.4630935192108154,-7.984818935394287,-21.76034164428711,17.47762107849121
0,182248,-5.643199920654297,20.443037033081055,16.692750930786133,-11.150347709655762
0,182248,-0.4195145070552826,2.578944206237793,-7.422628879547119,-15.860991477966309
0,182249,3.0230672359466553,-28.138471603393555,-6.591490745544434,8.681547164916992
0,182249,-9.623322486877441,6.091586589813232,36.962093353271484,2.503115177154541
0,182249,-3.5236945152282715,29.9505672454834,17.04117774963379,-11.209198951721191
0,182250,3.541738271713257,-28.629676818847656,-32.880584716796875,-10.780714988708496
0,182250,-14.285968780517578,-17.624147415161133,-15.344661712646484,-29.31903839111328
0,182251,-2.8689074516296387,2.9760313034057617,7.608234405517578,6.442078590393066
0,182251,5.9010138511657715,-5.078943252563477,4.027545928955078,46.80708694458008
0,182251,6.0702924728393555,22.209875106811523,-8.552772521972656,12.138551712036133
0,182251,24.301597595214844,6.071054458618164,-3.6963655948638916,-21.94422721862793
0,182252,-9.049491882324219,-10.911349296569824,-30.2840633392334,-7.895755290985107
0,182254,-40.28343200683594,-14.585021018981934,-71.41949462890625,25.739498138427734
0,182256,-9.471833229064941,-15.463550567626953,-48.241172790527344,42.418296813964844
0,182258,21.109830856323242,30.031417846679688,12.928098678588867,-6.128418445587158
0,182260,5.800878524780273,9.002537727355957,9.778722763061523,-101.14038848876953
0,182262,-9.626312255859375,-36.686126708984375,33.24593734741211,-46.296485900878906
0,182264,3.02484130859375,1.8003134727478027,185.59909057617188,110.53628540039062
0,182266,32.01368713378906,28.170835494995117,109.46072387695312,46.322994232177734
0,182268,19.21210289001465,30.120746612548828,-75.89119720458984,-49.49825668334961
0,182270,-13.103155136108398,5.38720178604126,-20.348247528076172,-14.144460678100586
0,182272,-9.444607734680176,-24.985063552856445,-30.590970993041992,7.259859561920166
0,182274,-8.625624656677246,-3.790285348892212,-98.79505920410156,-6.613361835479736
0,182276,-8.768911361694336,7.235266208648682,-27.219181060791016,-0.7742530703544617
0,182278,-12.416023254394531,-24.586639404296875,2.4930312633514404,-10.71541690826416
0,182280,-8.741109848022461,-23.503921508789062,-34.13095474243164,-45.77711868286133
0,182282,28.186355590820312,23.66705894470215,33.50772476196289,55.50746536254883
0,182284,39.31129455566406,24.135597229003906,154.11129760742188,83.2549819946289
0,182286,-10.081794738769531,-8.677386283874512,54.48704528808594,-28.31366729736328
0,182288,-15.520828247070312,-1.489683747291565,-100.94588470458984,-66.897216796875
0,182290,14.4202241897583,25.65506935119629,26.836883544921875,8.06548023223877
0,182292,7.699467182159424,1.2927964925765991,5.96765661239624,35.67244338989258
0,182423,-66.29674530029297,-57.99277114868164,-121.05003356933594,-108.91382598876953
0,182424,-43.74985885620117,-18.460351943969727,80.91825866699219,-43.63127136230469
0,182424,87.04346466064453,52.01554870605469,105.83305358886719,97.06595611572266
0,182424,38.08831787109375,17.142431259155273,-61.971553802490234,22.76784324645996
0,182424,-41.3908576965332,-1.807016372680664,-61.044586181640625,19.769418716430664
0,182424,-14.083584785461426,10.935748100280762,-27.28483772277832,11.40792179107666
0,182424,7.976231098175049,-6.923859119415283,-37.84926223754883,-8.369036674499512
0,182425,7.483084201812744,-2.342169761657715,-21.16782569885254,21.719114303588867
0,182425,2.9195377826690674,0.8485034704208374,15.242868423461914,-4.111608505249023
0,182425,-7.853016376495361,-25.64177131652832,58.993194580078125,20.45810890197754
0,182425,5.541200637817383,-2.4817450046539307,84.874755859375,29.35548973083496
0,182425,32.55583190917969,15.102618217468262,25.562108993530273,-13.996734619140625
0,182425,14.901705741882324,12.678744316101074,-17.551584243774414,-14.175555229187012
0,182426,-8.854963302612305,16.20840835571289,-30.84128189086914,-7.339419841766357
0,182426,-28.551916122436523,-24.9674129486084,-39.90821075439453,-21.6165771484375
0,182426,-12.73826789855957,-28.52180290222168,-45.472503662109375,-33.46211242675781
0,182426,0.8292222619056702,-14.434465408325195,-62.96247482299805,-24.03840446472168
0,182426,-23.344696044921875,-7.506718158721924,-6.721039772033691,10.053235054016113
0,182426,3.74519681930542,14.499470710754395,51.62427520751953,6.151261329650879
0,182427,12.260308265686035,12.241084098815918,27.125694274902344,-4.844661235809326
0,182427,-5.228565692901611,-10.88288688659668,3.2135581970214844,29.939023971557617
0,182427,8.036614418029785,-9.80496597290039,16.285118103027344,11.271350860595703
0,182427,-7.769923686981201,-0.1396200805902481,25.36395835876465,0.8108010292053223
0,182427,-8.4594144821167,14.697427749633789,-20.087783813476562,4.600483417510986
0,182427,3.8662571907043457,9.023592948913574,-37.741485595703125,-20.763599395751953
0,182428,-1.4827022552490234,-16.213502883911133,-5.061605453491211,-5.316806316375732
0,182428,7.876159191131592,8.88248062133789,-12.683890342712402,-8.552666664123535
0,182428,-10.201671600341797,14.394279479980469,-14.912300109863281,-22.266414642333984
0,182428,-14.19443416595459,6.017337799072266,21.575471878051758,7.096558570861816
0,182428,23.423465728759766,4.295175552368164,39.5594482421875,14.826923370361328
0,182429,3.232534170150757,-9.940604209899902,31.104352951049805,-4.267083644866943
0,182429,0.5794476866722107,15.521979331970215,19.828712463378906,2.993192672729492
0,182429,28.052711486816406,23.203996658325195,7.288881778717041,-7.883759021759033
0,182429,-7.944736003875732,-25.256704330444336,-2.2514238357543945,-18.45641326904297
0,182429,-10.556354522705078,-4.121461391448975,-20.163570404052734,7.165729999542236
0,182429,-0.08931132405996323,3.4979560375213623,-34.483646392822266,12.027883529663086
0,182430,-10.503929138183594,-26.033660888671875,-9.162374496459961,11.007698059082031
0,182430,-0.9974092245101929,22.78119659423828,12.435519218444824,-1.503472924232483
0,182430,0.45484060049057007,0.759834885597229,-27.06268310546875,-23.595840454101562
0,182430,-8.69343376159668,-25.395837783813477,-21.665590286254883,10.026354789733887
0,182430,1.7508255243301392,14.705818176269531,50.1235466003418,21.347854614257812
0,182430,26.518917083740234,-1.3256797790527344,10.973219871520996,0.008386621251702309
0,182431,-9.094125747680664,1.6051554679870605,-6.136637210845947,19.968074798583984
0,182431,-10.403602600097656,15.253823280334473,20.70195198059082,-3.4983389377593994
0,182431,18.372297286987305,-13.875765800476074,-53.800567626953125,-20.968673706054688
0,182431,-4.603216648101807,-11.970736503601074,-45.83999252319336,16.67754554748535
0,182431,-13.298969268798828,8.754667282104492,-1.4100964069366455,8.228572845458984
0,182431,-2.1337692737579346,13.539002418518066,4.028034687042236,-24.0897159576416
0,182432,17.392314910888672,-12.85976505279541,11.573409080505371,-11.56485366821289
0,182432,2.747007369995117,-15.448094367980957,-3.330551862716675,7.915871620178223
0,182432,-17.587139129638672,17.308868408203125,-2.7037739753723145,6.8777360916137695
0,182432,-26.49372673034668,1.3905216455459595,11.26412296295166,3.990593194961548
0,182432,10.054876327514648,-3.8561878204345703,13.65034294128418,4.069918155670166
0,182432,24.131717681884766,6.1530303955078125,-24.779634475708008,4.9570441246032715
0,182433,-30.660917282104492,-14.132442474365234,-25.466888427734375,-14.415376663208008
0,182433,-10.320075035095215,-18.04485321044922,17.986129760742188,-9.656789779663086
0,182433,6.520160675048828,12.205053329467773,28.83625602722168,11.38293170928955
0,182433,6.845527648925781,11.332748413085938,-3.347285270690918,-2.1725831031799316
0,182433,20.816438674926758,-13.268326759338379,-9.861534118652344,-16.806299209594727
0,182433,9.337348937988281,-2.2786972522735596,16.314380645751953,-3.477978467941284
0,182434,-9.269274711608887,20.57017707824707,-5.558653354644775,26.163198471069336
0,182434,-8.348706245422363,17.721786499023438,-6.596902370452881,6.204063415527344
0,182434,12.90335464477539,-25.91180992126465,4.897438049316406,-25.36686134338379
0,182434,0.45524343848228455,-27.681486129760742,13.007420539855957,4.552499771118164
0,182434,-18.261152267456055,31.08833122253418,22.943458557128906,13.822376251220703
0,182434,0.3050936758518219,3.31057071685791,-14.67380142211914,-1.4117015600204468
0,182436,8.70387077331543,-29.687816619873047,-21.90642738342285,9.84932804107666
0,182436,-31.752267837524414,29.077556610107422,-6.835470199584961,-0.21160921454429626
0,182436,-4.40687894821167,22.425975799560547,6.347835063934326,-13.591373443603516
0,182436,35.32312774658203,-26.33614158630371,36.39311218261719,-1.1747561693191528
0,182436,9.096613883972168,-13.69868278503418,12.695940017700195,-16.38458824157715
0,182437,-8.025001525878906,8.54016399383545,-26.41756820678711,-9.669395446777344
0,182438,12.158950805664062,25.605064392089844,17.801589965820312,53.24238967895508
0,182441,12.821762084960938,10.791078567504883,-2.7848262786865234,20.547807693481445
0,182442,-31.77745819091797,-30.148252487182617,-3.4814200401306152,-52.27326965332031
0,182445,15.276872634887695,9.339879035949707,174.94776916503906,13.02054214477539
0,182446,50.60063552856445,24.221162796020508,105.2670669555664,38.19109344482422
0,182449,18.557424545288086,21.404233932495117,-69.39939880371094,-8.134968757629395
0,182450,0.396186500787735,7.780113697052002,-1.8322914838790894,0.518247127532959
0,182453,-40.84870910644531,-51.1744499206543,-115.28369140625,-37.68873596191406
0,182454,-34.665401458740234,-17.180919647216797,-203.06350708007812,-21.07765007019043
0,182457,-16.92241096496582,-2.596205472946167,-63.665122985839844,21.388553619384766
0,182458,-27.395963668823242,-4.417905330657959,20.50619125366211,-27.820838928222656
0,182461,-0.39326635003089905,-8.642563819885254,40.255767822265625,-13.449968338012695
0,182462,29.185365676879883,-4.946996212005615,52.090763092041016,58.250118255615234
0,182465,30.40821647644043,34.759647369384766,154.85653686523438,24.42806625366211
0,182466,-9.905424118041992,-13.422667503356934,21.368762969970703,-59.6589241027832
0,182469,9.57188892364502,15.718742370605469,-84.65188598632812,14.435264587402344
0,182470,32.701725006103516,36.16254806518555,82.91871643066406,44.308021545410156
0,182473,-55.108116149902344,-50.83414840698242,-77.01416015625,-117.60163116455078
0,182474,-39.76561737060547,-28.8134708404541,-169.40467834472656,-15.124753952026367
0,182477,45.79456329345703,20.23823356628418,26.54802703857422,152.3489532470703
0,182478,12.341334342956543,7.449678421020508,52.93425369262695,-33.443809509277344
0,182481,-29.228927612304688,20.588123321533203,2.3385207653045654,-62.985008239746094
0,182622,7.326808929443359,2.8100554943084717,2.293132781982422,44.367061614990234
0,182622,6.719120025634766,-37.78878402709961,6.927036285400391,-2.4292168617248535
0,182622,-19.622377395629883,2.145686388015747,-52.635780334472656,-13.684250831604004
0,182622,-2.781953811645508,1.3498988151550293,-6.550593852996826,4.324659824371338
0,182622,12.886181831359863,-13.301796913146973,83.33468627929688,17.147289276123047
0,182623,27.96724510192871,23.482105255126953,80.32556915283203,4.044369220733643
0,182623,5.773596286773682,28.85540771484375,66.42725372314453,-1.655901551246643
0,182623,-6.373806953430176,-4.2442402839660645,37.94993209838867,12.461636543273926
0,182623,19.72286033630371,-0.9679544568061829,5.659841537475586,-8.243077278137207
0,182623,-7.561706066131592,7.06576681137085,-38.364280700683594,-6.994770526885986
0,182623,-13.930059432983398,-4.378015518188477,-59.97037887573242,-5.572807788848877
0,182624,7.71540641784668,2.0210297107696533,-69.80250549316406,-0.4369049072265625
0,182624,-9.562976837158203,-32.20964431762695,-33.95999526977539,-0.08636090159416199
0,182624,-5.028822422027588,-13.903724670410156,-1.1083481311798096,-19.90236473083496
0,182624,6.172573566436768,26.004987716674805,1.293268084526062,14.403121948242188
0,182624,-21.677471160888672,11.226790428161621,53.84564971923828,25.702852249145508
0,182624,5.336184501647949,9.007333755493164,42.22137451171875,-10.385268211364746
0,182625,34.504241943359375,-9.436017990112305,5.359714508056641,-3.8761563301086426
0,182625,-2.3969595432281494,-17.234832763671875,19.038284301757812,10.239030838012695
0,182625,-12.63917064666748,-11.62525749206543,-34.49748229980469,-15.412920951843262
0,182625,-5.4152936935424805,-8.870899200439453,-56.79118728637695,-18.31309700012207
0,182625,4.564366817474365,32.8625602722168,-24.576892852783203,-1.9128645658493042
0,182625,-1.8266998529434204,11.43858814239502,-38.63361358642578,-2.748385190963745
0,182626,-17.819311141967773,-38.93500900268555,-6.9851861000061035,17.2111759185791
0,182626,-3.8300797939300537,2.5980148315429688,45.25420379638672,10.883440971374512
0,182626,19.098819732666016,18.15717315673828,37.172760009765625,-17.964048385620117
0,182626,17.226619720458984,6.446119785308838,14.768071174621582,-5.01731014251709
0,182626,-5.646075248718262,16.7122802734375,3.6351256370544434,4.345473766326904
0,182626,-13.026718139648438,8.143999099731445,19.680599212646484,5.629992961883545
0,182627,16.367359161376953,7.387241840362549,-12.270608901977539,-2.458374261856079
0,182627,2.502939462661743,-11.610700607299805,-46.05091857910156,-16.52290153503418
0,182627,-29.503173828125,-19.520875930786133,3.5827744007110596,11.229114532470703
0,182627,-8.040023803710938,1.4454195499420166,-17.736207962036133,13.059099197387695
0,182627,-11.132001876831055,-4.541519641876221,-14.681497573852539,10.755987167358398
0,182628,-0.158113032579422,-9.419907569885254,15.979589462280273,5.73882532119751
0,182628,9.23344898223877,-1.8940881490707397,-9.102478981018066,-8.232410430908203
0,182628,-5.691465854644775,4.148586273193359,31.03577423095703,13.13090705871582
0,182628,11.966012954711914,15.481728553771973,26.365962982177734,19.694133758544922
0,182628,23.45024871826172,10.521361351013184,9.11833667755127,5.411145210266113
0,182628,12.344598770141602,3.0872020721435547,32.155357360839844,-16.39360237121582
0,182629,5.12017822265625,7.106634140014648,5.470525741577148,-11.966021537780762
0,182629,7.746866703033447,-18.237323760986328,-44.50908279418945,-16.307214736938477
0,182629,-16.860736846923828,-16.23859405517578,-15.693100929260254,-12.90540885925293
0,182629,-18.972715377807617,37.330421447753906,25.769271850585938,2.772441864013672
0,182629,18.91169548034668,12.886748313903809,5.751999378204346,-3.0615806579589844
0,182629,17.0567569732666,-25.53234100341797,16.925857543945312,-3.081397533416748
0,182630,-21.867713928222656,-5.291231632232666,-9.33128833770752,-12.917584419250488
0,182630,-12.643180847167969,0.38723692297935486,-36.857017517089844,-12.975183486938477
0,182630,2.4661803245544434,-4.1099534034729,2.4932198524475098,-2.715937852859497
0,182630,-35.095455169677734,-15.674576759338379,-0.23809881508350372,-4.662075042724609
0,182630,-2.765470027923584,-14.152226448059082,-40.4110107421875,-9.880386352539062
0,182630,29.352550506591797,-1.468309760093689,-34.32019805908203,10.210210800170898
0,182631,-21.423555374145508,10.936590194702148,-2.7193429470062256,10.713027000427246
0,182631,-17.92289924621582,-2.802485466003418,9.891944885253906,-7.73286771774292
0,182631,12.778385162353516,-9.045737266540527,9.501726150512695,17.41547393798828
0,182631,9.06454086303711,-10.26904582977295,-23.6779842376709,33.135433197021484
0,182631,23.474756240844727,0.25453364849090576,-2.112316608428955,11.208477020263672
0,182631,-0.35908082127571106,23.640600204467773,51.74750518798828,-10.403559684753418
0,182632,-24.917865753173828,-17.418315887451172,8.268050193786621,14.015280723571777
0,182632,4.453038215637207,-7.667726993560791,-27.13726234436035,23.02986717224121
0,182632,4.325582981109619,16.84758186340332,-9.424330711364746,20.424869537353516
0,182632,16.37505531311035,3.83261775970459,23.48027992248535,4.573700904846191
0,182632,20.634899139404297,-6.588955402374268,7.905129909515381,-34.384647369384766
0,182632,-16.2368221282959,-16.8863468170166,-27.679943084716797,-0.3636225759983063
0,182633,-12.143964767456055,17.216785430908203,-10.282195091247559,-2.9491641521453857
0,182633,4.115576267242432,15.149043083190918,2.6542320251464844,-27.964754104614258
0,182633,1.9496948719024658,-17.376705169677734,-29.296283721923828,-9.80760669708252
0,182633,-3.7460203170776367,5.684752941131592,-14.256684303283691,-4.363717555999756
0,182633,-2.5610623359680176,19.411020278930664,29.39164161682129,-14.88293743133545
0,182633,-1.5908902883529663,-14.75705337524414,-25.76785659790039,-32.23057556152344
0,182634,-18.84367561340332,-5.300344944000244,-11.36396598815918,-20.060733795166016
0,182635,-9.432894706726074,12.948192596435547,21.32158660888672,-5.8150787353515625
0,182635,18.058290481567383,-24.51592254638672,-1.7984038591384888,29.15392303466797
0,182635,13.537623405456543,-1.9198185205459595,55.001426696777344,38.90434265136719
0,182635,10.291559219360352,40.2010612487793,43.41163635253906,4.296988010406494
0,182636,2.464966297149658,-5.496918201446533,-25.41505241394043,23.17179298400879
0,182636,-21.655006408691406,-20.440765380859375,-6.606804847717285,19.908842086791992
0,182637,4.964613914489746,23.99641990661621,20.119619369506836,-25.789093017578125
0,182638,10.473440170288086,-0.011401621624827385,1.186090111732483,-0.2283613383769989
0,182640,-30.147581100463867,-40.025672912597656,-21.746931076049805,14.351067543029785
0,182642,9.800000190734863,28.417205810546875,71.2537612915039,5.452875137329102
0,182644,46.476173400878906,50.66679382324219,138.3709259033203,18.71412467956543
0,182646,10.500311851501465,0.7289854288101196,19.86991310119629,-36.952754974365234
0,182648,-24.519359588623047,-9.005906105041504,-32.61103820800781,-22.374481201171875
0,182650,-10.277276039123535,-31.12293243408203,-8.555821418762207,26.241750717163086
0,182652,18.836240768432617,-38.28618240356445,-88.38026428222656,6.329539775848389
0,182654,-8.475566864013672,35.806358337402344,-171.9971466064453,-15.159769058227539
0,182656,-48.9291877746582,32.751686096191406,-77.52960968017578,-88.10321044921875
0,182658,0.784770131111145,-63.42636489868164,46.66901397705078,13.887060165405273
0,182660,31.478588104248047,-19.492368698120117,23.024126052856445,147.53424072265625
0,182662,-37.782569885253906,25.56166648864746,69.67613220214844,-32.802974700927734
0,182664,19.812265396118164,15.577957153320312,98.87460327148438,-89.46074676513672
0,182666,59.38389205932617,4.691202163696289,-4.479317665100098,52.830543518066406
0,182668,-27.554784774780273,-1.8149104118347168,-22.3676700592041,26.05079460144043
0,182670,-15.86558723449707,21.169166564941406,14.853529930114746,-33.09461212158203
0,182672,27.81875991821289,-6.371364593505859,-0.9056583046913147,2.9230737686157227
0,182675,-22.827898025512695,-19.387928009033203,-157.7969207763672,-11.060234069824219
0,182676,-29.007755279541016,-0.6169154047966003,-51.11951446533203,-16.05450439453125
0,182679,33.62811279296875,-5.209672927856445,139.46322631835938,26.759992599487305
0,182680,-1.4959441423416138,-16.853221893310547,-40.06509017944336,9.240826606750488
0,182683,-11.655710220336914,5.923308849334717,45.47846221923828,-12.901447296142578
0,182834,32.547088623046875,34.14076614379883,35.04988479614258,17.964794158935547
0,182834,-8.049798011779785,17.375595092773438,-199.2758026123047,17.85059356689453
0,182834,-43.51326370239258,-24.224882125854492,-4.253520965576172,-35.640316009521484
0,182834,5.3187456130981445,-28.034931182861328,100.07486724853516,-17.084135055541992
0,182835,22.036001205444336,-0.22644732892513275,18.96221923828125,9.607874870300293
0,182835,10.212724685668945,9.24462604522705,88.94879150390625,17.364093780517578
0,182835,11.109365463256836,7.044103622436523,81.20491790771484,10.92361068725586
0,182835,-7.068000316619873,16.432376861572266,-38.57411575317383,-29.233844757080078
0,182835,0.7066270112991333,4.023900985717773,-71.22164916992188,-15.5654878616333
0,182835,-25.818784713745117,-24.185640335083008,-39.41939926147461,-6.460014820098877
0,182836,-33.24515914916992,-31.127559661865234,-36.490055084228516,-10.369270324707031
0,182836,21.55034065246582,12.054272651672363,-32.910621643066406,-10.368978500366211
0,182836,0.37640851736068726,16.980810165405273,-2.873168706893921,-16.25977325439453
0,182836,-21.314983367919922,-35.705894470214844,52.07136154174805,21.83416175842285
0,182836,15.483423233032227,21.51095962524414,67.03386688232422,27.963626861572266
0,182836,9.847044944763184,45.07756042480469,29.83173370361328,-3.010343551635742
0,182837,5.057506084442139,-8.288829803466797,34.911685943603516,16.872116088867188
0,182837,23.666597366333008,10.390061378479004,23.032756805419922,19.018346786499023
0,182837,17.932388305664062,9.48103141784668,-19.549448013305664,6.160557270050049
0,182837,7.3390092849731445,-4.570207118988037,-27.112333297729492,18.180147171020508
0,182837,-23.704452514648438,-3.2350337505340576,-35.26857376098633,-1.789825439453125
0,182837,-10.641654968261719,4.618473529815674,-35.49751281738281,-10.4976806640625
0,182838,22.50213623046875,3.8457682132720947,-33.940670013427734,3.854905366897583
0,182838,-24.84321403503418,-35.64704132080078,-12.239862442016602,-7.035573959350586
0,182838,-25.432531356811523,-18.832345962524414,26.11224937438965,0.49799972772598267
0,182838,17.374496459960938,4.384938716888428,32.59611511230469,7.42225456237793
0,182838,7.564794063568115,-9.478121757507324,6.770541667938232,-17.90046501159668
0,182839,-16.262117385864258,-10.798831939697266,-20.646333694458008,-19.95169448852539
0,182839,-14.271796226501465,10.933839797973633,-8.839234352111816,1.3616515398025513
0,182839,5.486979007720947,19.24454689025879,-20.478408813476562,-1.4333620071411133
0,182839,0.7782087922096252,-22.817424774169922,-27.624488830566406,-9.350532531738281
0,182839,-0.8007363080978394,-7.418292045593262,27.104877471923828,-7.449631690979004
0,182839,2.622511148452759,20.743244171142578,27.60120391845703,14.833803176879883
0,182840,-3.4189577102661133,8.71368408203125,4.996495246887207,14.569043159484863
0,182840,13.364517211914062,9.925738334655762,21.60614013671875,-24.8420467376709
0,182840,17.803985595703125,7.412840366363525,28.14563751220703,-5.583277225494385
0,182840,16.075876235961914,21.697860717773438,21.027950286865234,-1.6688973903656006
0,182840,11.326794624328613,13.833135604858398,-5.238986968994141,2.0001180171966553
0,182840,-10.5387544631958,-32.095741271972656,-28.989933013916016,17.028295516967773
0,182841,-16.08658218383789,-21.101367950439453,17.562358856201172,-3.7027804851531982
0,182841,-4.741251468658447,28.21603012084961,23.605445861816406,14.970534324645996
0,182841,5.745555877685547,-6.3553056716918945,-49.84928512573242,6.863492965698242
0,182841,-12.941164016723633,-26.16751480102539,-0.052306950092315674,-6.871524810791016
0,182841,3.944995164871216,5.496395587921143,31.51042366027832,2.5893516540527344
0,182841,23.147592544555664,-4.59009313583374,-3.686537265777588,21.420970916748047
0,182842,-10.61432933807373,5.708828926086426,34.37985610961914,19.73817253112793
0,182842,-4.365850448608398,24.906696319580078,-4.048389434814453,-12.117959022521973
0,182842,9.201557159423828,-8.620404243469238,-38.44076156616211,-2.915572166442871
0,182842,0.3983948826789856,-22.928009033203125,-0.016248293220996857,0.38557612895965576
0,182842,-13.511482238769531,18.733898162841797,0.44019782543182373,-15.65210247039795
0,182842,-0.6918734312057495,8.28417682647705,-9.51164722442627,-24.391523361206055
0,182843,14.656116485595703,-1.90204656124115,-3.358830451965332,-1.4647483825683594
0,182843,-21.396146774291992,6.7987751960754395,4.878940582275391,0.14342311024665833
0,182843,-4.727692604064941,-11.704438209533691,9.053401947021484,1.3873926401138306
0,182843,9.855711936950684,0.3725840449333191,8.844527244567871,12.586898803710938
0,182843,-6.869928359985352,-3.8452415466308594,1.6627007722854614,-21.71877098083496
0,182843,13.956583976745605,-2.6569337844848633,-12.88119888305664,7.788028717041016
0,182844,3.9837803840637207,15.332429885864258,-0.42381638288497925,11.669893264770508
0,182844,-8.196741104125977,-11.959858894348145,14.734535217285156,-28.28496742248535
0,182844,4.124375343322754,-14.420300483703613,-10.943994522094727,12.600740432739258
0,182844,11.463935852050781,17.937679290771484,-23.37117576599121,29.86289405822754
0,182844,4.410425662994385,-3.49676775932312,-11.600390434265137,-19.999597549438477
0,182844,-16.304237365722656,-27.555580139160156,2.022737741470337,-18.676965713500977
0,182845,-10.154014587402344,6.396236896514893,-7.885186195373535,19.302392959594727
0,182845,-0.052262309938669205,5.141872406005859,6.475090026855469,6.888930797576904
0,182845,1.2085416316986084,-16.140352249145508,7.21914005279541,-11.674192428588867
0,182845,4.480163097381592,2.041799306869507,-12.35387897491455,8.468454360961914
0,182845,-3.2038822174072266,20.972288131713867,12.964942932128906,8.931756973266602
0,182846,-6.8912153244018555,4.933941841125488,-8.970890998840332,-8.54277229309082
0,182846,-14.675332069396973,-12.527291297912598,2.070053815841675,10.504470825195312
0,182846,11.15455150604248,16.728992462158203,11.786271095275879,6.368873596191406
0,182846,36.71477508544922,18.005395889282227,-22.357837677001953,-21.258056640625
0,182846,-10.202973365783691,-11.017757415771484,2.9669220447540283,-12.830313682556152
0,182846,-17.345989227294922,-17.573171615600586,4.433091640472412,4.801719665527344
0,182847,10.05052375793457,11.786028861999512,-2.066082715988159,17.451189041137695
0,182847,4.822916507720947,15.07559871673584,4.6869354248046875,8.365565299987793
0,182848,2.6299495697021484,1.0287142992019653,1.3220819234848022,-34.050411224365234
0,182848,-1.0157727003097534,12.192889213562012,20.89952278137207,-6.765857696533203
0,182848,-7.441498279571533,-3.6693923473358154,31.308095932006836,45.652732849121094
0,182849,8.298606872558594,-14.865478515625,-8.928887367248535,12.521966934204102
0,182849,14.356293678283691,-7.996041774749756,-20.98041343688965,-23.47794532775879
0,182849,-15.929217338562012,10.309269905090332,11.787565231323242,11.72249698638916
0,182849,7.105391502380371,6.313140392303467,-9.078755378723145,17.29155921936035
0,182850,-5.812544345855713,-37.4051513671875,-57.540157318115234,-56.539302825927734
0,182852,-48.76411056518555,-22.55304718017578,-94.42052459716797,-23.64719581604004
0,182854,-20.68486976623535,18.581920623779297,-108.90959167480469,25.88158416748047
0,182856,-5.7770466804504395,-21.567209243774414,-54.98564529418945,-22.03379249572754
0,182858,2.6887340545654297,-22.056880950927734,46.94334030151367,-29.082088470458984
0,182860,2.914966583251953,17.318315505981445,78.69454956054688,13.120379447937012
0,182863,27.641735076904297,0.6126568913459778,137.5728302001953,69.19342041015625
0,182864,44.07707977294922,32.65419387817383,149.8185272216797,25.310020446777344
0,182867,-14.684649467468262,48.426025390625,4.928718566894531,-44.709007263183594
0,182868,-4.982430934906006,-15.746355056762695,-0.26045534014701843,12.162196159362793
0,182871,43.20285415649414,-28.637516021728516,-7.022356033325195,52.411624908447266
0,182872,12.346184730529785,18.48103141784668,-87.4840087890625,-21.148832321166992
0,182875,-44.53533935546875,8.198746681213379,-84.44667053222656,-64.61134338378906
0,182876,-38.886539459228516,-26.62260627746582,-34.24164581298828,-17.324316024780273
0,182877,22.490888595581055,3.335768222808838,44.24011993408203,39.11726379394531
0,182880,-9.542669296264648,-9.415818214416504,-20.20174217224121,-1.4574453830718994
0,182881,-27.565692901611328,-32.20122528076172,-37.326385498046875,-42.63042068481445
0,182884,44.55957794189453,38.648406982421875,129.8765106201172,28.35651969909668
0,182885,1.970470905303955,32.939247131347656,63.842750549316406,12.40421199798584
0,182888,-4.7887420654296875,7.811544418334961,-53.128273010253906,-8.504671096801758
0,182889,39.15507125854492,19.358753204345703,66.88294219970703,22.385723114013672
0,182892,-18.78529930114746,-49.40019989013672,-21.730487823486328,21.489778518676758
0,182893,-26.97087860107422,-38.86680221557617,-130.22869873046875,23.44876480102539
0,182896,-9.879504203796387,23.224414825439453,2.004566192626953,-19.900693893432617
0,182897,-3.0937447547912598,7.990354537963867,1.1659818887710571,-36.06914520263672
0,183060,12.531989097595215,-25.640018463134766,-45.11753845214844,-39.34214401245117
0,183060,15.128171920776367,-11.484599113464355,-14.939776420593262,-32.13114547729492
0,183061,-7.677762031555176,20.246206283569336,-26.1131591796875,20.020965576171875
0,183061,-32.41953659057617,4.4531660079956055,-13.551692008972168,33.45343780517578
0,183061,20.814708709716797,-9.259350776672363,33.357913970947266,12.387584686279297
0,183061,15.763578414916992,11.518217086791992,50.20994186401367,-5.5095295906066895
0,183061,-25.526254653930664,26.54578971862793,83.17591857910156,-1.1823118925094604
0,183061,25.09516716003418,5.501819610595703,89.82369995117188,25.355928421020508
0,183062,20.557607650756836,-13.19337272644043,45.774288177490234,42.304344177246094
0,183062,18.75893783569336,16.200969696044922,-3.3039097785949707,-0.764519453048706
0,183062,-0.9900466203689575,3.2465622425079346,-54.694217681884766,-11.451321601867676
0,183062,-60.789398193359375,-29.887718200683594,-45.914676666259766,10.55860710144043
0,183062,-2.788360118865967,-10.567774772644043,-36.6579475402832,-18.193140029907227
0,183062,23.567066192626953,9.463714599609375,-40.31909942626953,-8.068790435791016
0,183063,-4.291557312011719,7.993062973022461,-6.261100769042969,-4.013148784637451
0,183063,-16.198766708374023,1.704156517982483,48.44163131713867,-11.190624237060547
0,183063,24.676944732666016,9.587285041809082,37.979461669921875,-9.055779457092285
0,183063,66.6330795288086,13.009981155395508,-9.109811782836914,-0.4901929795742035
0,183063,-16.9810733795166,5.774153232574463,39.4898681640625,25.942333221435547
0,183063,-30.812498092651367,-26.125301361083984,2.662792682647705,-12.602799415588379
0,183064,17.7908878326416,-8.952220916748047,-43.6490364074707,-19.401336669921875
0,183064,-13.02823543548584,19.05968475341797,-4.067392349243164,-3.2784228324890137
0,183064,-39.083396911621094,-7.61403751373291,-71.65775299072266,-5.94335412979126
0,183064,-14.684003829956055,-8.491873741149902,-65.39827728271484,17.794418334960938
0,183064,21.751922607421875,-18.961103439331055,27.98601722717285,-26.366649627685547
0,183064,-3.925922393798828,0.021857328712940216,29.668798446655273,-22.57316780090332
0,183065,-9.13919734954834,14.071677207946777,11.794875144958496,25.65909767150879
0,183065,6.036099910736084,-9.065255165100098,22.262441635131836,-4.1190876960754395
0,183065,2.1035337448120117,12.92672061920166,16.841657638549805,-2.40309739112854
0,183065,19.266155242919922,20.788225173950195,-8.845179557800293,16.39491844177246
0,183065,-7.080650806427002,-16.22895622253418,20.533008575439453,7.463505268096924
0,183065,-1.2436062097549438,-21.737062454223633,-5.4653730392456055,-2.3464772701263428
0,183066,27.12129783630371,34.0751953125,-82.89839172363281,-9.486512184143066
0,183066,-27.3807315826416,4.199471950531006,-23.642972946166992,9.589920997619629
0,183066,-32.01757049560547,-58.92543029785156,35.27066421508789,0.11810657382011414
0,183066,32.53748321533203,-10.398625373840332,9.086525917053223,-16.01956558227539
0,183066,-1.0074347257614136,49.372310638427734,30.855838775634766,20.32666778564453
0,183067,-35.53014373779297,5.173768043518066,15.47169017791748,21.52982521057129
0,183067,16.785219192504883,-28.824098587036133,-1.8341814279556274,-10.503545761108398
0,183067,24.030864715576172,32.61456298828125,26.078472137451172,-8.061324119567871
0,183067,1.9254339933395386,21.798357009887695,-11.87895679473877,15.288361549377441
0,183067,7.243398189544678,-34.928218841552734,-14.603824615478516,0.1865430325269699
0,183067,-0.10283683240413666,-10.495667457580566,9.226887702941895,-10.626619338989258
0,183068,-18.420879364013672,28.28687286376953,-6.387031555175781,28.376785278320312
0,183068,8.051947593688965,2.5454623699188232,10.175965309143066,4.505848407745361
0,183068,11.293440818786621,-20.253557205200195,15.454026222229004,-39.91548538208008
0,183068,-15.497207641601562,14.436576843261719,1.504583716392517,-7.603029251098633
0,183068,9.64169692993164,17.079845428466797,-1.46127450466156,22.115074157714844
0,183068,3.488203525543213,-14.544282913208008,1.9800114631652832,3.264923334121704
0,183069,-13.93181037902832,-8.053793907165527,15.159497261047363,-18.082910537719727
0,183069,-6.331090927124023,-9.516280174255371,-15.405211448669434,7.442805767059326
0,183069,-2.936786413192749,1.3083953857421875,-24.29707145690918,8.399822235107422
0,183069,16.393869400024414,18.261152267456055,-14.543909072875977,-25.57552146911621
0,183069,10.880565643310547,-19.564876556396484,-15.56464672088623,14.014739036560059
0,183069,-4.588273048400879,-0.47100546956062317,-15.38521957397461,11.79213809967041
0,183070,1.12172269821167,18.934898376464844,-17.79342269897461,-42.27481460571289
0,183070,-11.385546684265137,-25.295921325683594,27.282190322875977,12.953771591186523
0,183070,-4.959232330322266,3.2163338661193848,32.95106506347656,30.88566780090332
0,183070,14.96320915222168,26.818056106567383,-39.09358596801758,-24.913074493408203
0,183070,-14.482865333557129,-3.1075758934020996,-14.59398365020752,2.385462999343872
0,183070,-16.502248764038086,-4.286231994628906,34.4798583984375,14.6181001663208
0,183071,26.808700561523438,-0.7615846991539001,-36.798118591308594,-17.821332931518555
0,183071,-14.240910530090332,-0.9927141666412354,-1.8809221982955933,5.9161481857299805
0,183071,-19.327289581298828,-3.5744435787200928,43.19017791748047,1.2967191934585571
0,183071,31.167585372924805,-9.54898452758789,-47.005672454833984,-17.969125747680664
0,183071,-22.443391799926758,-19.712785720825195,-20.416370391845703,20.82259178161621
0,183071,-19.202219009399414,-8.503700256347656,47.156883239746094,17.142637252807617
0,183072,28.402803421020508,24.63832664489746,5.0895819664001465,-13.23954963684082
0,183072,19.207054138183594,8.226957321166992,-29.767982482910156,-1.3043869733810425
0,183072,5.118264198303223,-4.078433990478516,1.4754645824432373,-4.727165699005127
0,183072,-9.258618354797363,2.8013060092926025,23.82697296142578,-4.716065883636475
0,183072,5.062322616577148,-33.13970947265625,-12.059039115905762,20.230607986450195
0,183072,-8.100788116455078,-4.603440761566162,-12.244263648986816,7.204537868499756
0,183073,-25.2087345123291,47.07228469848633,-3.7088675498962402,-35.39866256713867
0,183073,24.3245906829834,1.281495451927185,-15.648662567138672,-6.609930992126465
0,183073,17.874357223510742,-37.422325134277344,6.235654830932617,30.92313575744629
0,183073,-27.319786071777344,8.04027271270752,15.495834350585938,-8.495606422424316
0,183073,3.5345871448516846,34.99430847167969,12.90954303741455,-31.8701229095459
0,183073,1.1668959856033325,-15.247084617614746,-3.5656936168670654,17.913719177246094
0,183074,-39.54557418823242,-24.546348571777344,8.79041576385498,41.184669494628906
0,183074,15.726360321044922,13.94157886505127,39.62330627441406,-16.69818115234375
0,183075,17.25768280029297,8.626184463500977,-28.811399459838867,-10.446029663085938
0,183075,-9.470157623291016,-8.941258430480957,-37.29226303100586,-3.4656565189361572
0,183075,10.813899040222168,-9.230301856994629,37.7435302734375,-9.020598411560059
0,183076,-17.46387481689453,9.57323169708252,-5.809718132019043,16.336252212524414
0,183076,5.302768230438232,22.91710090637207,-16.033315658569336,-17.77394676208496
0,183076,5.805113315582275,-23.650707244873047,28.94576644897461,-6.935993671417236
0,183076,-3.202385663986206,-27.05615234375,5.424466609954834,19.784029006958008
0,183077,11.029773712158203,37.198265075683594,-7.028777122497559,-1.4986997842788696
0,183078,-6.606493949890137,22.600629806518555,-15.663029670715332,-16.47693634033203
0,183080,11.302628517150879,-33.415401458740234,43.47657775878906,6.02437686920166
0,183082,19.032926559448242,-8.717425346374512,133.76278686523438,29.07994270324707
0,183084,7.68907356262207,46.58295440673828,70.17596435546875,0.8792245984077454
0,183086,8.399446487426758,37.61884689331055,-21.844972610473633,1.0295453071594238
0,183088,8.062053680419922,-30.514881134033203,-38.513526916503906,-8.285932540893555
0,183090,14.765534400939941,-40.77018737792969,-1.3035097122192383,-5.417767524719238
0,183092,-19.925704956054688,8.595499038696289,-113.50443267822266,-1.704430103302002
0,183094,-56.954811096191406,-3.855078935623169,-214.49688720703125,-2.528675079345703
0,183097,-14.795425415039062,-15.60812759399414,12.676356315612793,24.02121353149414
0,183098,0.7712401747703552,-6.785749912261963,33.96253204345703,-42.0257453918457
0,183101,-2.042475700378418,5.92863130569458,-62.62070083618164,-62.42558670043945
0,183102,6.9757161140441895,16.981130599975586,136.55465698242188,35.18986892700195
0,183105,35.67985916137695,19.49015998840332,192.8318634033203,75.4732894897461
0,183259,-8.980781555175781,-7.049561977386475,-222.76559448242188,3.8745100498199463
0,183259,-66.53865814208984,-41.4259033203125,-276.4312438964844,-37.88567352294922
0,183259,30.120370864868164,2.592956781387329,208.40037536621094,-10.11949348449707
0,183259,40.23811721801758,13.505487442016602,156.30484008789062,2.2432708740234375
0,183260,-9.685853958129883,3.9191110134124756,-10.766845703125,27.939706802368164
0,183260,17.90179443359375,11.928332328796387,45.43475341796875,0.95968097448349
0,183260,15.081913948059082,-3.389697313308716,-17.534509658813477,-35.22684097290039
0,183260,-18.360055923461914,2.1398932933807373,-13.16310977935791,18.213327407836914
0,183260,-7.640750885009766,-2.7059590816497803,5.964167594909668,15.079264640808105
0,183260,4.507164001464844,-18.24758529663086,-7.843451023101807,-18.2962703704834
0,183261,-26.596759796142578,3.1984472274780273,-4.445861339569092,-2.5657405853271484
0,183261,-5.010005474090576,26.221874237060547,21.174068450927734,-8.318604469299316
0,183261,39.68053436279297,10.147387504577637,42.689998626708984,-10.856310844421387
0,183261,10.652073860168457,-10.794621467590332,24.407466888427734,-0.5387328863143921
0,183261,-13.75416088104248,-4.791234016418457,13.274048805236816,11.699366569519043
0,183261,12.126299858093262,5.683765888214111,-3.569223165512085,27.821735382080078
0,183262,1.2394564151763916,0.018879646435379982,-20.74616813659668,13.766408920288086
0,183262,-8.731341361999512,-6.785147666931152,-25.712141036987305,-14.59164810180664
0,183262,12.580448150634766,-3.603576421737671,-45.349117279052734,-18.358976364135742
0,183262,-14.500904083251953,0.25286781787872314,-23.992597579956055,-8.472920417785645
0,183262,-15.369894027709961,1.057615876197815,-1.7498184442520142,-3.778870105743408
0,183262,-2.5015711784362793,6.180395126342773,15.491596221923828,17.093658447265625
0,183263,-8.851673126220703,13.189936637878418,46.4852180480957,9.03656005859375
0,183263,22.423030853271484,-1.3262650966644287,15.37502384185791,-17.10738754272461
0,183263,9.325047492980957,-16.57136344909668,-18.215959548950195,-4.31535530090332
0,183263,-12.243658065795898,8.304848670959473,10.380550384521484,16.015884399414062
0,183263,13.126553535461426,10.571011543273926,0.7109975218772888,15.414593696594238
0,183264,7.335709095001221,-10.236130714416504,-20.788330078125,-25.09219741821289
0,183264,-13.302165031433105,-4.433369159698486,-25.432100296020508,-25.542678833007812
0,183264,-5.630995750427246,-9.523348808288574,-35.37743377685547,22.815780639648438
0,183264,-7.463698863983154,-3.2172651290893555,11.513786315917969,18.082551956176758
0,183264,-0.19626136124134064,22.19473648071289,14.4276123046875,-7.727077960968018
0,183264,22.373682022094727,4.058078765869141,-2.1228866577148438,-0.5328443646430969
0,183265,-4.080537796020508,-23.31058120727539,18.127851486206055,7.958297252655029
0,183265,-30.156747817993164,1.8582239151000977,-3.4828686714172363,4.798573970794678
0,183265,3.9991543292999268,14.341572761535645,-31.312002182006836,-8.344406127929688
0,183265,5.716452121734619,-11.09444808959961,-9.205816268920898,2.2978501319885254
0,183265,-25.468341827392578,-9.355423927307129,15.603699684143066,14.888211250305176
0,183265,22.049333572387695,0.42059025168418884,-17.09648323059082,1.329540729522705
0,183266,26.158449172973633,4.750537872314453,-5.275946617126465,7.711855411529541
0,183266,-31.473886489868164,-4.642226219177246,14.091994285583496,-9.929986000061035
0,183266,4.874917030334473,-7.894803524017334,3.2283380031585693,-21.527706146240234
0,183266,15.364481925964355,11.958035469055176,14.385758399963379,-1.5080316066741943
0,183266,-31.705568313598633,-19.178102493286133,-5.7824835777282715,11.731317520141602
0,183266,-4.6487202644348145,4.667142868041992,-14.504337310791016,2.687980890274048
0,183267,24.213050842285156,28.22492027282715,5.1146345138549805,-12.131211280822754
0,183267,-9.767233848571777,-17.227880477905273,30.929882049560547,-7.148948669433594
0,183267,-7.397365570068359,10.365596771240234,5.139061450958252,-7.834910869598389
0,183267,12.77017593383789,-3.4529201984405518,-50.23752975463867,-10.90300178527832
0,183267,2.2563154697418213,-17.21812629699707,-4.130080699920654,7.77259635925293
0,183267,-5.3905253410339355,11.516596794128418,34.37744140625,30.916847229003906
0,183268,1.19185471534729,-12.12270450592041,26.53595542907715,-0.6681151986122131
0,183268,10.751432418823242,-11.147525787353516,36.617698669433594,0.6924930214881897
0,183268,19.0181827545166,32.80972671508789,-21.842790603637695,17.716571807861328
0,183268,20.251440048217773,25.62095069885254,-22.99269676208496,-22.235912322998047
0,183268,-12.42762565612793,-14.268986701965332,42.279605865478516,-4.398421764373779
0,183268,0.36300450563430786,7.669580936431885,-8.899879455566406,4.532021522521973
0,183269,-1.1493619680404663,-2.8183600902557373,-39.0103874206543,-7.77431058883667
0,183269,-18.935007095336914,-19.68161964416504,-0.2809135317802429,-0.8589406609535217
0,183269,13.769774436950684,15.817110061645508,-5.449643611907959,-10.592514991760254
0,183269,-5.675109386444092,7.594959259033203,-37.269065856933594,-2.218325614929199
0,183269,-15.83652114868164,-17.256868362426758,1.657314658164978,-9.69066047668457
0,183269,11.923298835754395,1.2374916076660156,40.12871551513672,-1.7605640888214111
0,183270,4.215685844421387,3.6877291202545166,-40.80569076538086,2.9100778102874756
0,183270,-16.063772201538086,-12.049989700317383,-26.009258270263672,-4.614566326141357
0,183270,0.9236155152320862,-0.36763277649879456,32.52265548706055,21.09830665588379
0,183270,5.556814193725586,4.0490827560424805,-30.748680114746094,-3.3757882118225098
0,183270,-23.27931022644043,-7.395232200622559,-4.343413829803467,-14.239672660827637
0,183270,3.155162811279297,-11.018105506896973,13.925106048583984,2.9678120613098145
0,183271,-8.507796287536621,-2.402935743331909,-34.763267517089844,8.925973892211914
0,183271,-31.555818557739258,-3.4188899993896484,3.3343067169189453,24.995283126831055
0,183271,40.83329391479492,17.800275802612305,8.589082717895508,-14.28248119354248
0,183271,3.8401694297790527,11.188787460327148,0.7502862811088562,-22.480998992919922
0,183271,-32.86132049560547,-30.828935623168945,16.096120834350586,39.71744918823242
0,183271,34.623897552490234,3.0122792720794678,19.351242065429688,17.96640968322754
0,183272,16.045225143432617,12.724705696105957,22.90354347229004,-34.46938705444336
0,183272,-12.137916564941406,-12.752601623535156,2.7610065937042236,9.746268272399902
0,183273,3.0196895599365234,26.06058120727539,-56.708168029785156,1.1308507919311523
0,183273,9.56521224975586,14.886693954467773,-34.78799057006836,-28.692527770996094
0,183274,13.705045700073242,-20.85856819152832,56.942440032958984,2.508199453353882
0,183274,-12.32563304901123,11.889751434326172,36.624061584472656,2.1815149784088135
0,183274,-18.126676559448242,18.762638092041016,0.771361231803894,18.891319274902344
0,183274,13.690143585205078,-23.10996437072754,-14.406793594360352,7.563386917114258
0,183274,2.109961986541748,-21.687368392944336,-13.431751251220703,-38.170284271240234
0,183274,-5.631117820739746,-1.393501877784729,18.97649574279785,-3.480954885482788
0,183276,-13.400633811950684,3.3913187980651855,1.527733564376831,-2.1885087490081787
0,183278,-12.622903823852539,8.66889476776123,-64.4276123046875,-13.537891387939453
0,183280,12.34500789642334,-12.009458541870117,-14.831178665161133,45.45490264892578
0,183283,-8.287836074829102,-28.189170837402344,168.41690063476562,33.47285461425781
0,183284,-6.513906002044678,-3.8822360038757324,153.838134765625,-2.548828363418579
0,183287,45.79694366455078,56.74024200439453,-29.347064971923828,-26.117347717285156
0,183288,59.05454635620117,37.373085021972656,-27.90500831604004,1.300360083580017
0,183291,-34.30860900878906,-36.627593994140625,-81.00826263427734,25.86142349243164
0,183292,-61.907508850097656,-16.613914489746094,-166.5427703857422,-46.464263916015625
0,183293,12.256197929382324,16.3723201751709,-37.921932220458984,-32.38569259643555
0,183296,-15.89854907989502,-5.035216808319092,3.440045118331909,43.470272064208984
0,183297,-23.240827560424805,-6.091737747192383,21.11688804626465,32.997047424316406
0,183300,17.378385543823242,-14.954606056213379,41.4903450012207,-33.041831970214844
0,183301,16.794214248657227,-13.0390625,18.956199645996094,-36.27324295043945
0,183304,30.323871612548828,42.38926696777344,94.1541519165039,6.889285564422607
0,183305,24.68820571899414,32.003231048583984,44.337772369384766,35.33664321899414
0,183308,-14.135398864746094,-21.013517379760742,-63.33832550048828,27.442415237426758
0,183309,-20.922958374023438,-25.788284301757812,21.77897834777832,-12.367215156555176
0,183312,-10.709354400634766,-14.437713623046875,-69.10260009765625,-30.805017471313477
0,183313,-10.4815034866333,-4.750382900238037,-139.22848510742188,-8.026521682739258
0,183316,6.632556438446045,13.379148483276367,61.90645217895508,18.960508346557617
0,183317,3.754457473754883,9.750487327575684,33.90837097167969,0.43368759751319885
0,183320,-16.924856185913086,-9.629011154174805,-38.93989944458008,3.0873732566833496
0,183321,0.8314985036849976,-8.230257987976074,40.48499298095703,-11.774599075317383
0,183487,43.32239532470703,32.998374938964844,115.44917297363281,1.5566582679748535
0,183487,8.149869918823242,33.32978439331055,31.760379791259766,31.781850814819336
0,183487,-48.528900146484375,-38.33566665649414,-101.71834564208984,-19.667625427246094
0,183487,-7.543082237243652,-26.889394760131836,23.536962509155273,-20.678546905517578
0,183487,22.177814483642578,29.75433349609375,114.29549407958984,17.60384178161621
0,183487,12.340669631958008,16.501022338867188,36.9724235534668,29.120468139648438
0,183488,20.812131881713867,2.604904890060425,-2.188586473464966,1.5798813104629517
0,183488,7.090258598327637,-10.177905082702637,-11.705710411071777,-19.259382247924805
0,183488,-8.900933265686035,-9.915950775146484,-54.76605987548828,-1.9996047019958496
0,183488,-16.126832962036133,5.392003536224365,-85.29869842529297,-0.2924997806549072
0,183488,-11.632867813110352,-16.89463233947754,-75.0864028930664,-8.271180152893066
0,183489,-9.778534889221191,-26.407329559326172,-41.44414520263672,-7.243551731109619
0,183489,-6.8486223220825195,0.4632629156112671,-10.174918174743652,-6.61091947555542
0,183489,3.233570098876953,-0.6179789900779724,-2.9912827014923096,-9.087897300720215
0,183489,-19.06890296936035,-7.346878528594971,40.27871322631836,3.675861120223999
0,183489,4.156180381774902,16.85894012451172,52.95173645019531,1.21803617477417
0,183489,36.72334671020508,8.732552528381348,0.0185508094727993,-3.9714860916137695
0,183490,-3.8304390907287598,13.805885314941406,-6.477004051208496,5.0288543701171875
0,183490,-34.45515441894531,6.532442569732666,-8.111323356628418,-0.08815497159957886
0,183490,-1.8135839700698853,-26.272302627563477,-45.102603912353516,-0.3985432982444763
0,183490,24.221769332885742,6.564812183380127,-57.257843017578125,-10.034546852111816
0,183490,-4.129791736602783,1.2129064798355103,-11.568848609924316,-22.152191162109375
0,183490,-31.762832641601562,-23.466232299804688,52.439964294433594,21.869556427001953
0,183491,11.442303657531738,26.629135131835938,36.56108856201172,21.795175552368164
0,183491,48.162872314453125,6.54306173324585,2.9009108543395996,-0.21060959994792938
0,183491,2.2703752517700195,-12.268893241882324,31.9439697265625,10.39011287689209
0,183491,-14.322406768798828,27.864450454711914,43.117576599121094,7.947213649749756
0,183491,12.39042854309082,6.430378437042236,6.289398670196533,20.514745712280273
0,183491,2.9268321990966797,-22.471084594726562,-38.49337387084961,-22.170074462890625
0,183492,-12.102766990661621,-4.692406177520752,-45.31768798828125,-16.008056640625
0,183492,-4.872459411621094,6.865368843078613,0.8358108997344971,16.259262084960938
0,183492,-11.318033218383789,-8.968254089355469,8.153705596923828,-6.900950908660889
0,183492,-12.40175724029541,2.9430482387542725,-15.734291076660156,8.959721565246582
0,183492,16.75623321533203,-6.033332347869873,12.886232376098633,-0.5309932827949524
0,183493,17.8486385345459,-12.50932502746582,17.624906539916992,-27.85397720336914
0,183493,-9.429692268371582,5.729064464569092,2.2337210178375244,-0.0869336947798729
0,183493,-4.737582683563232,-1.2292917966842651,11.046175956726074,24.343812942504883
0,183493,-3.91522216796875,5.576411724090576,15.317073822021484,-11.501253128051758
0,183493,-4.922616481781006,2.2932496070861816,7.85120153427124,-13.87563419342041
0,183493,-0.5094866156578064,-1.698057770729065,-17.575063705444336,9.890748977661133
0,183494,-8.549020767211914,0.2364802062511444,-17.397815704345703,-5.253800868988037
0,183494,-3.8348312377929688,-13.517940521240234,-5.317404747009277,-8.02607250213623
0,183494,6.406795978546143,5.746934413909912,-20.81237030029297,-0.6263723373413086
0,183494,17.00811767578125,30.22832679748535,2.582460641860962,4.9030327796936035
0,183494,2.9149482250213623,-1.5767550468444824,44.97819519042969,21.236072540283203
0,183494,-7.208307266235352,-22.602920532226562,19.664989471435547,5.999840259552002
0,183495,11.106351852416992,0.09364040940999985,-5.45186710357666,-18.524160385131836
0,183495,-1.7999088764190674,6.365417003631592,-14.156682968139648,-2.344433069229126
0,183495,-21.05659294128418,3.07901930809021,2.07212495803833,3.9296464920043945
0,183495,11.31175422668457,-9.405134201049805,24.014558792114258,4.167922496795654
0,183495,5.383680820465088,-28.03721809387207,-31.857593536376953,0.837917685508728
0,183495,-29.244314193725586,6.464645862579346,-11.382770538330078,-4.505098819732666
0,183496,-2.0720503330230713,22.95867919921875,25.42426872253418,4.214389801025391
0,183496,11.127469062805176,2.9748058319091797,-24.64674949645996,7.879234313964844
0,183496,-3.446995258331299,12.978351593017578,3.5697946548461914,-7.971981525421143
0,183496,3.4747259616851807,-13.461258888244629,9.911421775817871,-16.6064510345459
0,183496,-1.362073302268982,-26.30845069885254,-17.597274780273438,11.091832160949707
0,183496,-0.9508248567581177,38.614349365234375,30.81930923461914,-6.222294807434082
0,183497,20.524761199951172,13.768217086791992,3.1991758346557617,-1.9710769653320312
0,183497,10.252240180969238,-39.428409576416016,-32.06208419799805,34.135902404785156
0,183497,-14.225788116455078,23.650779724121094,-1.4590297937393188,-15.664295196533203
0,183497,-15.981907844543457,1.1998484134674072,-21.56894874572754,-25.8221435546875
0,183497,-3.2688510417938232,-21.7872371673584,-3.852276563644409,13.783317565917969
0,183497,12.262584686279297,22.747026443481445,20.2976016998291,10.8622407913208
0,183498,0.8387112021446228,-3.9436986446380615,1.4195507764816284,-6.81617546081543
0,183498,-1.3745537996292114,-17.780925750732422,5.692874431610107,-5.50075626373291
0,183498,12.36076831817627,2.9228553771972656,-23.0300350189209,-8.61252212524414
0,183498,-10.033317565917969,8.80167293548584,-9.03511905670166,-23.571813583374023
0,183498,-3.9429149627685547,-12.590535163879395,34.20104217529297,12.183362007141113
0,183498,-10.253955841064453,11.222548484802246,26.664918899536133,20.71900749206543
0,183499,-1.6792609691619873,17.474910736083984,5.544390678405762,-11.951949119567871
0,183499,27.743974685668945,-21.803281784057617,-27.894319534301758,8.208739280700684
0,183499,-12.287944793701172,-3.117596387863159,14.157888412475586,22.452180862426758
0,183499,9.996374130249023,15.386001586914062,39.77678680419922,-14.681859970092773
0,183499,20.118621826171875,2.7756357192993164,-5.384217262268066,-0.6294430494308472
0,183499,-26.25371551513672,3.912398338317871,7.766564846038818,26.66319465637207
0,183500,10.337187767028809,-3.961625814437866,41.031288146972656,-8.824858665466309
0,183500,38.72514724731445,-17.12713050842285,-7.673461437225342,-9.02971363067627
0,183500,-19.333873748779297,17.989994049072266,-45.929595947265625,20.880640029907227
0,183500,-17.499738693237305,25.21332550048828,0.07952770590782166,-9.972319602966309
0,183500,10.103178977966309,-29.81296730041504,8.000786781311035,-28.053451538085938
0,183500,-11.164640426635742,-11.502820014953613,-6.479467391967773,11.609086036682129
0,183502,7.511101245880127,24.455726623535156,43.7380485534668,11.514999389648438
0,183502,0.9733443260192871,-4.580841064453125,39.47016906738281,4.133766174316406
0,183502,-13.422383308410645,-2.1214640140533447,-43.487308502197266,-5.513550758361816
0,183502,-0.9835044145584106,-15.389890670776367,-28.65994644165039,-8.597862243652344
0,183502,-6.197964668273926,-1.396050214767456,25.35714340209961,22.70917320251465
0,183503,4.047006130218506,22.22368621826172,-6.148301124572754,0.7423031330108643
0,183503,25.053142547607422,-6.81357479095459,-39.15814208984375,-31.78126335144043
0,183503,4.513510704040527,0.7061960697174072,-10.157262802124023,1.5586724281311035
0,183504,-26.076969146728516,-9.333827018737793,10.27710247039795,15.973024368286133
0,183506,-7.504408836364746,0.21135982871055603,10.219131469726562,-13.357102394104004
0,183508,17.732213973999023,6.415877342224121,21.50166130065918,-0.11750147491693497
0,183510,15.616048812866211,-2.6307685375213623,-13.231042861938477,17.241008758544922
0,183512,-24.465091705322266,3.1590709686279297,-153.55271911621094,-26.446931838989258
0,183514,-44.371971130371094,-19.09287452697754,-142.4832763671875,-27.337430953979492
0,183516,1.7695873975753784,-16.680374145507812,51.48280334472656,8.798868179321289
0,183518,1.1976418495178223,-6.349231243133545,54.522403717041016,2.162393569946289
0,183520,-3.6448376178741455,2.818960428237915,56.56382369995117,23.53065299987793
0,183522,30.653810501098633,10.181567192077637,132.36878967285156,34.41788864135742
0,183524,22.946462631225586,33.13124084472656,72.86918640136719,-5.768869876861572
0,183526,-8.723713874816895,10.420998573303223,-1.0478380918502808,-38.41796875
0,183528,7.641973495483398,-17.240427017211914,-19.981233596801758,-12.983355522155762
0,183530,23.317190170288086,20.037944793701172,-29.490482330322266,27.962772369384766
0,183532,-34.1252326965332,-0.3258737325668335,-112.94756317138672,3.7470991611480713
0,183534,-21.698583602905273,-11.595787048339844,-65.01962280273438,-27.74007225036621
0,183536,23.336875915527344,-6.084612846374512,85.03434753417969,-0.3936821222305298
0,183538,-14.056042671203613,-4.538381099700928,-9.97021484375,16.144922256469727
0,183540,-5.857302188873291,-7.018221855163574,-42.451534271240234,3.8980345726013184
0,183542,28.095727920532227,-14.255463600158691,110.56474304199219,23.528287887573242
0,183544,9.112724304199219,17.184694290161133,80.14633178710938,17.70665740966797
0,183546,1.4314230680465698,8.76724910736084,-47.50407028198242,-17.38559913635254
0,183548,-11.148823738098145,-6.182894706726074,-36.898681640625,-30.66366958618164
0,183550,-9.000627517700195,3.40494704246521,25.439064025878906,-1.1559029817581177
0,183552,2.0851845741271973,-0.5815766453742981,-78.98933410644531,18.414052963256836
1,183726,-18.5028133392334,-15.621142387390137,25.084739685058594,-4.2870073318481445
1,183726,-0.6172491312026978,7.879156112670898,208.65589904785156,1.4502321481704712
1,183726,40.45718765258789,33.12947463989258,-47.259185791015625,-3.9537510871887207
1,183726,9.11802864074707,-12.26688289642334,-155.30638122558594,-13.316408157348633
1,183726,-53.220733642578125,-26.756839752197266,-18.561674118041992,3.997620105743408
1,183727,-10.333418846130371,-7.1877360343933105,-23.216503143310547,-3.9335243701934814
1,183727,24.541790008544922,3.692613363265991,-44.89822769165039,-15.258654594421387
1,183727,-0.5404797196388245,14.793060302734375,27.754037857055664,-4.671658992767334
1,183727,0.3525865375995636,2.2843077182769775,66.49365997314453,26.242319107055664
1,183727,0.8522598147392273,-18.202800750732422,34.616119384765625,23.133947372436523
1,183728,23.51302146911621,-9.43419075012207,33.98617172241211,-16.901290893554688
1,183728,18.08743667602539,35.51259994506836,26.18416404724121,1.790260910987854
1,183728,-6.287209987640381,15.433869361877441,-28.773847579956055,22.976049423217773
1,183728,-14.48997974395752,-18.2127685546875,-74.73774719238281,-13.851296424865723
1,183728,-15.73830509185791,1.3618929386138916,-67.28817749023438,-32.33993148803711
1,183728,-10.169353485107422,-7.418830394744873,-21.08783531188965,8.12193489074707
1,183729,-7.7005228996276855,-9.346420288085938,19.598281860351562,13.60769271850586
1,183729,11.18690013885498,-10.430768013000488,13.543011665344238,-0.6167740821838379
1,183729,-2.080944299697876,-1.6260191202163696,17.198143005371094,22.810781478881836
1,183729,-7.427692413330078,29.273887634277344,23.85527801513672,4.866391181945801
1,183729,21.464885711669922,-4.394399166107178,15.311946868896484,-25.463991165161133
1,183729,5.94495964050293,-3.1588258743286133,1.8204411268234253,-0.519573450088501
1,183730,-12.201041221618652,21.437013626098633,-26.49785041809082,16.16050148010254
1,183730,-7.929349422454834,-5.815502643585205,0.31557103991508484,-4.214202404022217
1,183730,-1.3092483282089233,-5.123415946960449,-12.502132415771484,-14.413349151611328
1,183730,15.395441055297852,-14.731419563293457,-44.57184982299805,-12.953423500061035
1,183730,-1.7394291162490845,-0.5358157753944397,17.43545913696289,18.40614128112793
1,183730,-12.159034729003906,8.760003089904785,10.307624816894531,7.866575241088867
1,183731,5.278759002685547,-19.491186141967773,-10.849034309387207,-25.10614776611328
1,183731,-3.8806514739990234,3.7081735134124756,45.677555084228516,7.345656871795654
1,183731,0.23872773349285126,9.000330924987793,38.23994445800781,11.60211181640625
1,183731,9.578590393066406,-11.762932777404785,-17.405231475830078,-18.90544891357422
1,183731,6.728923320770264,1.408833384513855,-19.70208740234375,9.56169605255127
1,183731,-0.4637223184108734,12.342127799987793,9.256213188171387,35.82135009765625
1,183732,-15.3355712890625,4.01320219039917,-4.595345973968506,-7.363466739654541
1,183732,-8.258185386657715,-2.894460439682007,-24.9428653717041,-36.12556457519531
1,183732,0.19924552738666534,-12.732470512390137,-16.418010711669922,-12.044360160827637
1,183732,14.61658000946045,-8.771820068359375,8.079712867736816,8.659090995788574
1,183732,-7.811882495880127,21.98863983154297,20.4996395111084,10.358777046203613
1,183732,-20.458595275878906,8.298004150390625,-3.158841133117676,6.973372936248779
1,183733,13.069653511047363,-32.2819709777832,4.775069713592529,-11.79301643371582
1,183733,3.2740609645843506,0.2782568335533142,20.4494686126709,-5.1097564697265625
1,183733,-3.2277026176452637,11.412623405456543,-7.6564154624938965,2.2573883533477783
1,183733,-0.09674031287431717,-17.56291961669922,-14.87863540649414,0.9962040185928345
1,183733,7.572751998901367,15.907424926757812,13.541927337646484,27.38382339477539
1,183734,7.198176383972168,7.170646667480469,-4.728177070617676,2.638361930847168
1,183734,-12.276611328125,-16.670656204223633,-24.958192825317383,-25.36573600769043
1,183734,-4.778750896453857,11.243123054504395,17.996389389038086,4.280189037322998
1,183734,11.944299697875977,28.84930419921875,23.418731689453125,10.821391105651855
1,183734,5.204107284545898,0.20985417068004608,-33.373207092285156,-12.433113098144531
1,183734,5.076409339904785,-16.973445892333984,-11.291892051696777,-9.144652366638184
1,183734,12.665964126586914,20.629676818847656,41.939701080322266,0.4472130537033081
1,183735,-29.255496978759766,-18.316720962524414,2.780460834503174,-2.813129425048828
1,183735,-28.421573638916016,-40.0296630859375,-16.980113983154297,-10.914100646972656
1,183735,34.440853118896484,15.266938209533691,-24.791017532348633,-12.617923736572266
1,183735,9.033944129943848,14.74311637878418,-14.915971755981445,16.588586807250977
1,183735,-38.41184616088867,-5.7741827964782715,34.4189567565918,19.440935134887695
1,183735,13.5391206741333,-5.785366058349609,26.40045166015625,-4.924747943878174
1,183736,33.475276947021484,14.832905769348145,-1.144187092781067,-3.6896331310272217
1,183736,-15.554019927978516,9.801609992980957,10.354921340942383,5.7871317863464355
1,183736,5.987555027008057,-4.417009353637695,18.63401985168457,4.0045905113220215
1,183736,20.267398834228516,17.12592315673828,-4.667900085449219,18.73553466796875
1,183736,-11.287480354309082,-7.17377233505249,5.5904059410095215,21.70110321044922
1,183737,2.2724339962005615,-23.551353454589844,18.275285720825195,-10.017277717590332
1,183737,0.18161405622959137,23.6605281829834,-31.284229278564453,-23.859878540039062
1,183737,0.3060910403728485,8.02880573272705,-35.88262176513672,-0.6258397698402405
1,183737,3.5920181274414062,-22.636756896972656,25.75189781188965,15.06705093383789
1,183737,-3.9341628551483154,9.505294799804688,-0.642734169960022,-6.328184127807617
1,183737,1.651673674583435,0.0956142246723175,-58.140743255615234,-23.173877716064453
1,183738,-22.969005584716797,-23.87676239013672,-6.288313865661621,-13.912003517150879
1,183738,-15.078843116760254,-7.9312286376953125,33.04402542114258,20.579391479492188
1,183738,1.5744942426681519,7.002728462219238,-8.645119667053223,23.754901885986328
1,183738,1.5356229543685913,22.66255760192871,6.504516124725342,-26.540000915527344
1,183738,4.5121259689331055,21.418832778930664,47.821617126464844,-32.222023010253906
1,183738,9.222577095031738,-23.561294555664062,-30.882326126098633,18.824169158935547
1,183739,-5.95146369934082,-44.24663543701172,-35.90348434448242,33.936771392822266
1,183739,-22.17287826538086,12.669841766357422,55.63852310180664,-14.486557006835938
1,183739,24.314924240112305,21.542495727539062,9.444575309753418,-16.3958740234375
1,183739,8.925758361816406,-21.328941345214844,-12.73926067352295,35.48896408081055
1,183739,-13.641111373901367,9.828195571899414,33.09236526489258,11.208044052124023
1,183739,15.722630500793457,19.838090896606445,12.492627143859863,-25.555953979492188
1,183740,2.071370840072632,-9.196335792541504,-17.714242935180664,-6.967788219451904
1,183740,8.638148307800293,0.9476993083953857,-12.37093734741211,7.117175102233887
1,183740,13.018109321594238,14.402073860168457,16.929758071899414,4.508326530456543
1,183740,-22.117273330688477,6.137732982635498,1.1396121978759766,-4.374842643737793
1,183740,-5.30134391784668,-3.921501874923706,-24.53303337097168,-4.87837553024292
1,183740,3.897310495376587,-4.9376606941223145,-5.000205039978027,3.517645835876465
1,183742,-1.6728514432907104,-11.210233688354492,46.368995666503906,-4.714919567108154
1,183742,24.82904052734375,1.2972244024276733,53.015804290771484,7.137653827667236
1,183742,-15.411630630493164,9.139654159545898,-19.460786819458008,21.248769760131836
1,183742,-9.046936988830566,11.860479354858398,-33.548763275146484,-13.941192626953125
1,183742,29.71763801574707,5.786167144775391,-17.009977340698242,-26.311931610107422
1,183743,-12.414134979248047,-36.52009582519531,-2.8597941398620605,12.364590644836426
1,183743,-17.067955017089844,-15.983429908752441,22.0435848236084,24.319988250732422
1,183743,10.070496559143066,39.164947509765625,2.029620409011841,-2.010637044906616
1,183744,17.86570167541504,30.525259017944336,-15.904213905334473,-15.622642517089844
1,183746,-2.3364338874816895,-2.459681510925293,-23.600736618041992,-10.750395774841309
1,183748,-12.312521934509277,-7.083962917327881,9.710587501525879,16.464122772216797
1,183750,-8.922501564025879,-23.43464469909668,-20.22932243347168,-8.687145233154297
1,183752,-27.163253784179688,-38.29945755004883,-183.44895935058594,-42.33499526977539
1,183754,-5.773756504058838,-0.5724596977233887,-98.62095642089844,3.2781686782836914
1,183756,12.087584495544434,6.4004998207092285,115.04058074951172,0.730434775352478
1,183758,-25.508373260498047,-11.483933448791504,3.9237000942230225,-13.56054973602295
1,183760,-5.33787727355957,5.4311017990112305,12.324941635131836,33.786659240722656
1,183762,35.305721282958984,30.45119857788086,197.30322265625,19.393129348754883
1,183764,23.519695281982422,11.462203979492188,66.32898712158203,-2.3601176738739014
1,183766,15.196557998657227,-9.022747039794922,-45.063133239746094,27.626543045043945
1,183768,-4.7352752685546875,2.7264974117279053,0.9121959209442139,-15.215160369873047
1,183770,-14.2509183883667,17.333091735839844,-38.82810592651367,-40.54341125488281
1,183772,-10.935502052307129,-7.000030517578125,-87.72074127197266,20.882436752319336
1,183774,6.059759616851807,-21.56652069091797,-44.01466369628906,32.66911315917969
1,184029,-5.60064172744751,15.587606430053711,82.82418060302734,-8.387118339538574
1,184030,-9.561910629272461,-4.324219703674316,128.09336853027344,-9.444979667663574
1,184033,28.69786834716797,1.004992961883545,5.122602462768555,-4.351966857910156
1,184034,11.456283569335938,9.866179466247559,-74.94546508789062,-8.298555374145508
1,184037,-4.763927936553955,-13.482794761657715,-37.268333435058594,15.009172439575195
1,184038,-21.424293518066406,3.3399078845977783,-63.533592224121094,0.31778067350387573
1,185304,-24.37677764892578,-9.78005599975586,-2.533947467803955,-22.19152069091797
1,185304,-11.239802360534668,6.230403900146484,146.45486450195312,8.00110149383545
1,185305,18.134641647338867,22.06583595275879,54.70814895629883,26.143320083618164
1,185305,48.978843688964844,-5.383360385894775,-63.00605010986328,-7.916926383972168
1,185305,3.44386887550354,-16.69778823852539,-27.61765480041504,-7.417994499206543
1,185305,-17.796674728393555,-17.10301399230957,-20.626712799072266,1.0688908100128174
1,185305,-18.651290893554688,9.510540962219238,-27.430788040161133,-15.172134399414062
1,185305,-12.761940956115723,16.990337371826172,-26.786518096923828,-8.525398254394531
1,185306,-6.42836332321167,-20.509532928466797,-53.1550178527832,-2.342954635620117
1,185306,-10.273965835571289,-22.61052703857422,-24.908876419067383,21.157712936401367
1,185306,11.414156913757324,20.20823860168457,37.1545524597168,11.624368667602539
1,185306,9.111865043640137,23.216115951538086,39.57951354980469,-18.478185653686523
1,185306,12.161871910095215,2.943990707397461,27.114675521850586,-12.179505348205566
1,185307,25.97797203063965,5.774052619934082,8.17687702178955,-2.243781805038452
1,185307,-1.7049262523651123,-0.7901877164840698,-34.45890808105469,-4.331154823303223
1,185307,-23.96316146850586,-15.23990249633789,-47.046363830566406,0.05914609506726265
1,185307,-13.825919151306152,-4.482890605926514,-4.734044551849365,16.7409610748291
1,185307,-3.682253122329712,5.47101354598999,11.77998161315918,3.727705717086792
1,185307,7.0440449714660645,0.9272063374519348,-14.599541664123535,-6.306765556335449
1,185308,7.779317855834961,-17.912622451782227,-6.489391326904297,-2.076279401779175
1,185308,-14.812772750854492,-26.10456657409668,8.705763816833496,2.7820522785186768
1,185308,-16.555246353149414,13.34554386138916,29.055131912231445,27.951656341552734
1,185308,24.4398136138916,33.66159439086914,36.99427795410156,-1.8123773336410522
1,185308,31.619972229003906,2.063405990600586,18.802265167236328,-37.17869186401367
1,185308,-8.202539443969727,-22.04037857055664,-8.533517837524414,9.752150535583496
1,185309,-23.61763572692871,-6.776315212249756,-40.457237243652344,20.201385498046875
1,185309,-11.265128135681152,4.951563358306885,-5.812280654907227,-6.4051384925842285
1,185309,11.9504976272583,17.215028762817383,10.596907615661621,0.7750150561332703
1,185309,22.13218879699707,9.451457977294922,-14.56157398223877,-3.331171751022339
1,185309,-7.708531379699707,-30.27631950378418,-9.072454452514648,-13.027484893798828
1,185309,-32.21204376220703,-7.899885177612305,4.993216037750244,6.691040992736816
1,185310,-7.826424598693848,24.05662727355957,-1.6621304750442505,4.005699634552002
1,185310,14.681496620178223,4.074923515319824,-11.697534561157227,-21.457176208496094
1,185310,-10.527447700500488,-12.707386016845703,29.782676696777344,13.797492980957031
1,185310,0.9655662178993225,-8.391277313232422,16.03982925415039,23.332536697387695
1,185310,18.696033477783203,14.939752578735352,-24.021493911743164,-23.405000686645508
1,185310,3.689954996109009,-0.43104153871536255,-7.301027774810791,-16.104637145996094
1,185311,-0.9733825922012329,-10.562734603881836,14.21774673461914,20.647844314575195
1,185311,-2.6531670093536377,17.794681549072266,27.659055709838867,-0.44007423520088196
1,185311,13.601950645446777,1.1293138265609741,-16.48200225830078,-13.43543815612793
1,185311,0.5506830811500549,-4.30836296081543,-21.935626983642578,-0.10093655437231064
1,185311,-18.98414421081543,-17.89151382446289,29.98692512512207,-1.2422882318496704
1,185312,1.1643208265304565,-1.595286250114441,38.60958480834961,11.751297950744629
1,185312,14.496883392333984,25.599761962890625,-2.0783138275146484,6.30143928527832
1,185312,-13.991653442382812,-7.5089216232299805,-9.409717559814453,4.747371196746826
1,185312,-1.8368479013442993,4.4415998458862305,26.410972595214844,0.7172360420227051
1,185312,25.96592903137207,15.438408851623535,-15.203110694885254,3.614193916320801
1,185312,-20.778793334960938,-13.86071491241455,-27.03023910522461,17.046579360961914
1,185313,-7.8747878074646,-7.8693389892578125,-22.01319694519043,-7.418696880340576
1,185313,34.568359375,9.9110689163208,-11.329224586486816,-27.632652282714844
1,185313,-8.433279037475586,-17.07993507385254,49.649070739746094,-3.554988384246826
1,185313,-31.605714797973633,-21.615859985351562,-4.050094127655029,15.161663055419922
1,185313,-10.955105781555176,15.141801834106445,-24.457183837890625,12.55385684967041
1,185313,4.525122165679932,27.868764877319336,28.55254554748535,5.936282634735107
1,185314,26.702957153320312,-6.952511787414551,-24.054628372192383,-22.806793212890625
1,185314,17.27109718322754,-20.11029815673828,-43.507301330566406,-6.2186598777771
1,185314,-22.217208862304688,0.8046352863311768,30.2403621673584,15.180887222290039
1,185314,-13.136595726013184,14.019704818725586,27.98153305053711,-24.041162490844727
1,185314,11.739546775817871,10.61143970489502,-45.32661819458008,-22.388286590576172
1,185314,-16.70140838623047,-15.852229118347168,-12.847908973693848,17.353483200073242
1,185315,-2.219590902328491,-1.6610562801361084,57.71670913696289,14.059590339660645
1,185315,44.51372528076172,12.192183494567871,4.595886707305908,6.177906513214111
1,185315,9.255599021911621,-7.642223834991455,-47.08522415161133,10.358317375183105
1,185315,-34.813140869140625,-0.6664034128189087,14.240490913391113,-3.883202314376831
1,185315,2.5401294231414795,-2.943878173828125,27.638668060302734,-27.26694679260254
1,185315,1.0433822870254517,-8.58275318145752,-13.059738159179688,-1.9204672574996948
1,185316,-22.555553436279297,16.23322105407715,15.22736930847168,33.83307647705078
1,185316,25.022724151611328,1.9420547485351562,-11.25866413116455,-1.864755630493164
1,185316,9.851218223571777,-22.90187644958496,-11.258221626281738,-1.229225754737854
1,185316,-9.283217430114746,1.089262843132019,26.79131507873535,7.629817962646484
1,185316,12.744828224182129,7.076306343078613,-24.501972198486328,-20.77467155456543
1,185316,-9.882346153259277,4.449108600616455,1.828853964805603,6.779463291168213
1,185317,-4.869014739990234,21.581615447998047,44.68727111816406,7.669614315032959
1,185317,13.171293258666992,-10.28164291381836,-13.799776077270508,-18.423585891723633
1,185317,-13.919371604919434,-25.803810119628906,-14.702790260314941,15.00256061553955
1,185317,0.1242590919137001,25.55175018310547,29.28927993774414,10.015371322631836
1,185317,17.193462371826172,13.92189884185791,11.49170970916748,-12.997757911682129
1,185317,-17.436817169189453,-27.22041893005371,-8.210051536560059,11.032523155212402
1,185318,5.429043292999268,14.249545097351074,6.305891513824463,-5.338159561157227
1,185318,19.103641510009766,8.021346092224121,11.11153793334961,-22.206260681152344
1,185318,-20.13630485534668,-24.857742309570312,8.593822479248047,19.735904693603516
1,185318,4.606015682220459,14.399364471435547,13.442004203796387,3.0486552715301514
1,185318,28.372474670410156,5.372742652893066,-13.638282775878906,-9.803391456604004
1,185318,-27.936546325683594,5.925727367401123,-18.14719581604004,31.00066566467285
1,185319,-21.666900634765625,15.332480430603027,0.8656788468360901,-5.395828723907471
1,185319,21.703596115112305,-7.943090438842773,-18.63719940185547,-38.307472229003906
1,185319,-16.964820861816406,-13.40439224243164,-4.7024407386779785,1.7080708742141724
1,185319,-6.839787483215332,-17.735092163085938,16.586427688598633,19.590444564819336
1,185320,40.06258010864258,16.00181770324707,4.400346755981445,-6.7332305908203125
1,185321,11.323807716369629,9.36368179321289,4.937482833862305,-4.5819010734558105
1,185321,-28.2412109375,-27.923480987548828,-13.041080474853516,1.6367601156234741
1,185321,-7.815179824829102,23.219341278076172,-22.259000778198242,5.791158199310303
1,185321,12.171587944030762,21.219757080078125,-0.42184674739837646,15.82642936706543
1,185321,-8.096869468688965,-32.33257293701172,5.415714263916016,-7.228965759277344
1,185321,-1.2570176124572754,-12.320833206176758,1.310607671737671,-15.231081008911133
1,185322,10.145187377929688,4.740887641906738,-15.10722827911377,-12.765589714050293
1,185323,-15.342546463012695,5.80560302734375,-13.660454750061035,15.565421104431152
1,185324,-12.344207763671875,-23.67426872253418,-14.536723136901855,15.962823867797852
1,185326,31.042762756347656,3.773516893386841,26.05840492248535,-33.85719299316406
1,185328,-11.125821113586426,51.70820236206055,-47.06570053100586,17.685443878173828
1,185330,-54.92768096923828,-31.401826858520508,-172.06182861328125,17.831405639648438
1,185332,12.67026138305664,-39.634971618652344,-12.151103019714355,-61.11235427856445
1,185334,11.152052879333496,5.2816009521484375,74.06969451904297,2.4349029064178467
1,185336,-10.156643867492676,7.3438825607299805,7.889118194580078,42.20795822143555
1,185338,14.56676959991455,17.33341407775879,79.12239074707031,-8.751543998718262
1,185340,10.048504829406738,4.158559799194336,180.51531982421875,2.1897871494293213
1,185342,27.05427360534668,20.268892288208008,76.11632537841797,24.114660263061523
1,185344,19.337188720703125,4.502752304077148,-87.39197540283203,5.2396240234375
1,185346,-16.82783317565918,-6.974427700042725,-7.304538249969482,-14.228266716003418
1,185348,-8.952569007873535,9.704394340515137,-32.62710952758789,-3.8220205307006836
1,185350,15.259081840515137,-7.915745258331299,-161.13101196289062,-16.324390411376953
1,185352,-26.345117568969727,-14.663446426391602,-8.890297889709473,-9.653229713439941
1,185354,-31.432254791259766,-20.789859771728516,86.89456939697266,14.808058738708496
1,185356,30.338289260864258,11.791830062866211,-35.357173919677734,4.34925651550293
1,185358,-11.770898818969727,6.882026195526123,-36.68505096435547,1.0511302947998047
1,185360,9.161693572998047,0.5135605335235596,139.20310974121094,16.46834945678711
1,185362,47.592098236083984,25.395627975463867,83.6636734008789,14.871871948242188
1,185364,-14.228602409362793,-11.422795295715332,-78.16527557373047,-35.0885124206543
1,185366,-9.432490348815918,1.5317436456680298,23.895408630371094,4.865971565246582
1,185368,-10.253798484802246,2.9951090812683105,-41.4513053894043,21.328399658203125
1,185370,-16.065311431884766,-21.897262573242188,-151.26571655273438,-34.09339141845703
1,185554,13.06628131866455,10.62081241607666,14.714621543884277,-15.231744766235352
1,185554,23.296154022216797,30.360836029052734,49.06572723388672,-9.130952835083008
1,185554,-12.031888961791992,20.42875862121582,-19.091520309448242,-0.014248927123844624
1,185554,-29.60668182373047,-20.281585693359375,-24.581546783447266,7.670711994171143
1,185554,6.281306266784668,-32.41871643066406,-52.36452102661133,-9.560431480407715
1,185554,5.163507461547852,-2.0033981800079346,-49.49689865112305,-18.459884643554688
1,185555,-16.326431274414062,-1.1066712141036987,8.019367218017578,10.281536102294922
1,185555,-9.22722339630127,13.42785358428955,77.66754913330078,19.7932186126709
1,185555,21.81332015991211,4.3799238204956055,106.22257232666016,-3.93190598487854
1,185555,18.24349021911621,-5.5652666091918945,83.5578842163086,29.511762619018555
1,185555,-9.562995910644531,19.133434295654297,57.591033935546875,25.392627716064453
1,185555,14.85924243927002,14.365201950073242,22.869136810302734,-8.897126197814941
1,185556,14.473794937133789,4.397910118103027,-48.41850662231445,-18.532283782958984
1,185556,-27.433666229248047,-9.190942764282227,-61.67926788330078,-10.448712348937988
1,185556,-16.747201919555664,18.103759765625,-29.069862365722656,-3.653961420059204
1,185556,16.172744750976562,28.31511116027832,-28.519424438476562,-20.942716598510742
1,185556,-7.1390886306762695,-38.71531677246094,-13.526395797729492,3.221790313720703
1,185557,-28.600811004638672,-35.27556228637695,21.662830352783203,16.614299774169922
1,185557,13.661031723022461,13.120036125183105,41.042640686035156,3.0460195541381836
1,185557,33.88157272338867,2.8704144954681396,25.699758529663086,-11.500265121459961
1,185557,-11.642900466918945,-23.219423294067383,20.432167053222656,-13.163723945617676
1,185557,-12.718535423278809,-43.357872009277344,11.003993034362793,35.31147003173828
1,185557,21.137968063354492,-0.9937014579772949,-18.873430252075195,24.99400520324707
1,185558,4.517797946929932,31.029701232910156,-34.10825729370117,-40.232139587402344
1,185558,-23.10590171813965,4.724244594573975,-16.204063415527344,-11.129536628723145
1,185558,-27.381969451904297,20.92511558532715,-17.385168075561523,49.42367935180664
1,185558,-5.4229841232299805,11.674586296081543,-42.99141311645508,4.846872806549072
1,185558,9.840516090393066,-36.03972625732422,26.456092834472656,-41.30558395385742
1,185558,22.103862762451172,-24.21420669555664,61.11622619628906,4.589135646820068
1,185559,10.959650039672852,32.12264633178711,-17.9718074798584,18.53087615966797
1,185559,-4.0414838790893555,-7.782748222351074,-40.05682373046875,-11.392672538757324
1,185559,-1.2773337364196777,-50.8627815246582,20.424571990966797,17.995656967163086
1,185559,-11.290817260742188,3.661329746246338,10.680296897888184,46.01839828491211
1,185559,4.086264610290527,13.902859687805176,-24.604412078857422,10.122254371643066
1,185560,20.11223602294922,-20.08294677734375,4.00901460647583,-14.366491317749023
1,185560,15.786633491516113,-23.353361129760742,3.4998350143432617,2.787292003631592
1,185560,4.271406173706055,10.967008590698242,-7.471304416656494,11.657976150512695
1,185560,-19.671979904174805,8.557619094848633,-12.687291145324707,9.283203125
1,185560,-17.750940322875977,-4.5748820304870605,22.952577590942383,8.319586753845215
1,185560,22.359079360961914,-3.7603487968444824,25.78175926208496,10.22746467590332
1,185561,17.447158813476562,-3.058363199234009,-12.875473976135254,-16.974706649780273
1,185561,-7.060612678527832,-9.358975410461426,4.285761833190918,-55.14065170288086
1,185561,-19.001436233520508,-16.186372756958008,-20.805614471435547,-14.955269813537598
1,185561,-16.60376739501953,22.317323684692383,-22.9381103515625,19.390178680419922
1,185561,16.42453956604004,20.52358055114746,30.49249839782715,1.4021859169006348
1,185561,14.33353328704834,-19.989078521728516,2.1305887699127197,20.180944442749023
1,185562,21.46583366394043,-11.994515419006348,-38.4437370300293,8.340494155883789
1,185562,13.54738998413086,12.394644737243652,9.553351402282715,-35.0493049621582
1,185562,-28.88759422302246,9.02621841430664,44.125980377197266,10.04272747039795
1,185562,-5.58829402923584,10.554384231567383,4.888220310211182,26.581357955932617
1,185562,8.136517524719238,-5.527548789978027,-5.4573140144348145,-14.559626579284668
1,185562,-26.148523330688477,7.726259231567383,9.274956703186035,-4.070448875427246
1,185563,-11.55272388458252,44.27339553833008,-9.761159896850586,-6.8992509841918945
1,185563,2.448357343673706,-34.29151153564453,-36.19337844848633,-17.975727081298828
1,185563,-10.0372896194458,-37.342918395996094,-39.02207946777344,2.5355448722839355
1,185563,-16.494184494018555,70.75540924072266,10.767266273498535,-11.463623046875
1,185563,-17.140132904052734,20.082521438598633,2.014312267303467,-31.696199417114258
1,185563,-0.5543211102485657,-41.950374603271484,-18.896751403808594,5.228923320770264
1,185564,-28.307363510131836,27.264814376831055,8.299867630004883,7.861492156982422
1,185564,-11.124924659729004,40.083065032958984,19.24981689453125,-18.506689071655273
1,185564,26.941526412963867,19.26944351196289,29.44087028503418,0.5877220034599304
1,185564,7.560118198394775,29.005163192749023,24.304466247558594,16.9505615234375
1,185564,19.88733673095703,-10.03325366973877,-3.581965923309326,2.090916872024536
1,185564,4.400747776031494,-31.0422306060791,-6.296719551086426,-2.659928798675537
1,185565,-4.400662899017334,14.949056625366211,10.256413459777832,7.565402507781982
1,185565,22.011083602905273,20.514368057250977,-15.523978233337402,-11.137765884399414
1,185565,17.375349044799805,-29.755233764648438,-7.4169230461120605,-5.156850337982178
1,185565,8.508564949035645,-16.26422882080078,13.007793426513672,22.722322463989258
1,185565,4.545968055725098,21.58669662475586,-15.547172546386719,-20.394062042236328
1,185565,9.278550148010254,-4.878885269165039,-32.251792907714844,-24.521677017211914
1,185566,1.9736340045928955,-24.76491355895996,-18.990909576416016,28.873172760009766
1,185566,-15.606271743774414,-12.011270523071289,-3.977695941925049,-6.4364190101623535
1,185566,-4.129293441772461,5.618403434753418,1.7290165424346924,-16.516834259033203
1,185566,0.5880028009414673,-11.667302131652832,0.6528412699699402,16.95709800720215
1,185566,-17.03816032409668,-16.198881149291992,-6.028687477111816,15.226471900939941
1,185566,-3.6289732456207275,39.55769729614258,-9.808206558227539,-8.537252426147461
1,185567,11.84237289428711,4.197110652923584,9.901569366455078,-23.62929344177246
1,185567,-4.809058666229248,-40.721805572509766,17.877094268798828,20.553693771362305
1,185567,20.62419891357422,28.712316513061523,-16.110816955566406,12.2296142578125
1,185567,20.16650390625,41.65802001953125,16.449472427368164,0.4831814467906952
1,185567,-18.124347686767578,-7.4671101570129395,33.73917770385742,11.39396858215332
1,185567,-5.3140435218811035,-19.897302627563477,-15.650863647460938,-7.766503810882568
1,185568,4.706362724304199,9.550524711608887,-4.284611701965332,8.297281265258789
1,185568,3.8307745456695557,6.739388942718506,10.013644218444824,-6.379152297973633
1,185568,-7.8784589767456055,-23.384403228759766,-16.39066505432129,-23.592164993286133
1,185568,-11.610993385314941,-13.65446949005127,-24.883399963378906,-10.516530990600586
1,185568,0.304439902305603,-5.661104679107666,11.090463638305664,-8.697309494018555
1,185568,-10.924664497375488,3.7276883125305176,7.232455253601074,6.706565856933594
1,185569,-20.837627410888672,-7.7320709228515625,-15.52505111694336,11.896960258483887
1,185569,4.382691860198975,-4.99130392074585,17.71481704711914,-0.0006603356450796127
1,185569,10.666143417358398,1.7687090635299683,3.3712985515594482,-5.255256652832031
1,185569,-15.316987991333008,-12.211837768554688,-14.904401779174805,6.206422328948975
1,185570,14.254697799682617,45.04734802246094,-9.734774589538574,-11.14577865600586
1,185571,28.008594512939453,36.69184875488281,-17.83405113220215,-32.754581451416016
1,185571,-7.927280902862549,-52.28908157348633,29.07021713256836,26.30779266357422
1,185571,-13.956700325012207,-16.314546585083008,26.395030975341797,54.01393127441406
1,185571,-2.881500005722046,41.55328369140625,3.4442248344421387,-10.324995994567871
1,185571,4.072293281555176,5.2520060539245605,8.51890754699707,-33.330081939697266
1,185571,-0.047596704214811325,-21.685373306274414,-21.159969329833984,8.174174308776855
1,185572,0.7759546041488647,-21.580244064331055,17.899503707885742,22.495716094970703
1,185573,-1.0288034677505493,11.644268035888672,9.816390037536621,0.2766941487789154
1,185574,-4.065107822418213,20.491079330444336,-63.679847717285156,-32.23468780517578
1,185576,3.2448570728302,-34.7534294128418,-35.65684127807617,-20.172908782958984
1,185578,13.026918411254883,-45.173805236816406,150.56365966796875,63.784000396728516
1,185580,37.01660919189453,22.360280990600586,197.7263946533203,86.93526458740234
1,185582,-10.082061767578125,24.590511322021484,-5.314070701599121,-1.2409017086029053
1,185584,-28.906269073486328,-49.9329719543457,-63.28858184814453,-25.35501480102539
1,185586,55.48960876464844,-24.707782745361328,-22.985105514526367,-22.491018295288086
1,185588,4.935914039611816,26.598712921142578,-71.67963409423828,-41.55900955200195
1,185590,-66.46039581298828,37.45646667480469,-227.9248809814453,-16.838747024536133
1,185592,-22.82391929626465,8.365867614746094,-106.8307113647461,3.837225914001465
1,185594,-21.53207778930664,-6.160353660583496,81.03535461425781,-9.189226150512695
1,185596,53.94497299194336,37.74006652832031,-20.26288604736328,-50.5198860168457
1,185598,74.3799819946289,-25.30242919921875,145.75025939941406,11.093419075012207
1,185600,-94.35911560058594,-71.2623519897461,205.45217895507812,59.74011993408203
1,185602,-76.8533706665039,-24.27589988708496,-29.706205368041992,47.226104736328125
1,185604,31.54645347595215,42.57152557373047,-34.12519454956055,52.01179504394531
1,185607,54.91686248779297,109.74851989746094,20.167993545532227,-58.310516357421875
1,185608,29.956233978271484,-7.570594787597656,-86.46549987792969,-88.4689712524414
1,185611,-28.25615882873535,-43.144405364990234,-192.4664306640625,-14.840664863586426
1,185612,-3.233341693878174,13.379063606262207,-23.113277435302734,-11.860313415527344
1,185615,-15.564892768859863,-73.2268295288086,76.44282531738281,40.45151138305664
1,185616,-24.545434951782227,-25.876842498779297,-44.05235290527344,75.86553192138672
1,185619,63.75537109375,94.82967376708984,148.41424560546875,3.422653913497925
1,185620,28.2189998626709,34.648765563964844,207.32504272460938,-58.28955841064453
1,185621,-31.758859634399414,-22.613746643066406,-115.46223449707031,-68.26911163330078
1,185813,-15.959199905395508,-26.345670700073242,-299.10308837890625,10.772547721862793
1,185813,-41.472049713134766,-61.938629150390625,-132.65220642089844,88.13572692871094
1,185813,29.694263458251953,13.270930290222168,220.68344116210938,24.149744033813477
1,185814,43.22440719604492,28.891395568847656,179.76756286621094,-20.80948257446289
1,185814,-13.947450637817383,-11.869662284851074,42.003196716308594,27.9440975189209
1,185814,14.614078521728516,10.894622802734375,5.555362701416016,18.20037078857422
1,185814,-3.2603659629821777,-13.050752639770508,-106.94062042236328,-37.41276168823242
1,185814,-32.74679946899414,-1.7587919235229492,-87.89096069335938,-24.342788696289062
1,185814,-25.812198638916016,20.493810653686523,-68.98885345458984,-19.618106842041016
1,185815,6.882101058959961,-5.140892028808594,-30.895660400390625,-28.738176345825195
1,185815,16.45633888244629,11.660046577453613,53.02299880981445,-7.52370023727417
1,185815,-27.973297119140625,-9.71448802947998,91.42240905761719,16.471759796142578
1,185815,-10.592081069946289,-10.985780715942383,94.87630462646484,16.593658447265625
1,185815,17.091320037841797,11.099936485290527,53.7459602355957,-13.588444709777832
1,185815,-7.154628753662109,-2.907888412475586,13.714056968688965,6.319064140319824
1,185816,14.37619400024414,23.845169067382812,-9.930668830871582,18.490110397338867
1,185816,8.999974250793457,9.916193962097168,-37.54023361206055,-5.470753192901611
1,185816,-0.3776443898677826,13.294221878051758,-65.43620300292969,-19.130342483520508
1,185816,9.237044334411621,1.3890689611434937,-79.52437591552734,-26.48579978942871
1,185816,-9.846914291381836,-16.319713592529297,-2.4589345455169678,-5.890585899353027
1,185817,15.496428489685059,22.528213500976562,46.09452438354492,10.594213485717773
1,185817,-0.7709525227546692,5.573379039764404,25.161470413208008,28.654367446899414
1,185817,-30.68915557861328,-19.989070892333984,73.3342514038086,27.3433837890625
1,185817,31.07828712463379,-14.799067497253418,62.29570007324219,2.8403422832489014
1,185817,34.181583404541016,-6.662551403045654,9.928417205810547,8.707052230834961
1,185817,-14.025313377380371,-4.887543678283691,2.8902595043182373,4.601167678833008
1,185818,10.900590896606445,-0.15683773159980774,-42.32735824584961,7.048266887664795
1,185818,12.695831298828125,12.393342971801758,-73.75708770751953,5.712494373321533
1,185818,-16.693126678466797,1.3108216524124146,-28.38868522644043,-21.251262664794922
1,185818,-0.30117565393447876,-12.680452346801758,-6.287407398223877,-7.539599895477295
1,185818,11.01126480102539,13.210959434509277,-13.880620002746582,8.644769668579102
1,185818,-2.4774680137634277,23.632553100585938,29.470029830932617,-9.590069770812988
1,185819,-17.019689559936523,-29.17693519592285,37.02139663696289,-12.086325645446777
1,185819,-2.7512929439544678,-15.525754928588867,7.868919372558594,0.9393393993377686
1,185819,10.697515487670898,14.558921813964844,-4.223593235015869,-7.006073951721191
1,185819,-24.64975929260254,-17.120113372802734,-8.831008911132812,0.30824708938598633
1,185819,-24.09408950805664,-18.00642204284668,-8.055105209350586,11.859084129333496
