Aktueller Finger,timestamp_ms,sensor_0,sensor_1,sensor_2,sensor_3
0,703775,-176.8132781982422,-42.29909896850586,-197.62025451660156,12.134310722351074
0,703775,-139.75376892089844,-30.0854549407959,-315.0830383300781,12.73465633392334
0,703778,70.59202575683594,29.051294326782227,-7.387048244476318,-79.96929168701172
0,703779,55.007537841796875,-21.572336196899414,-29.651206970214844,-60.15876007080078
0,703782,41.621734619140625,-7.157538890838623,-45.73103713989258,58.375423431396484
0,703783,73.0619125366211,20.046409606933594,83.13298797607422,15.746810913085938
0,703786,28.11598014831543,-2.659292697906494,64.63917541503906,-30.393394470214844
0,703787,12.117473602294922,11.409276962280273,79.4754409790039,40.6388053894043
0,703790,44.005584716796875,13.533585548400879,200.94741821289062,32.059627532958984
0,703791,-14.083184242248535,17.293373107910156,135.1964111328125,-39.99782943725586
0,703794,-143.5544891357422,-12.410360336303711,-248.91802978515625,14.114517211914062
0,703795,-78.42037200927734,-9.000480651855469,-248.0647735595703,87.45622253417969
0,703798,40.608829498291016,-5.452602863311768,15.470134735107422,-37.2473030090332
0,703799,23.653823852539062,-27.81111717224121,35.54405975341797,-77.27394104003906
0,703802,16.892305374145508,-0.37093186378479004,-40.4747200012207,-53.685646057128906
0,703803,26.573013305664062,28.49618911743164,5.360741138458252,-33.035728454589844
0,703806,33.310543060302734,10.930810928344727,93.38399505615234,161.45545959472656
0,703807,9.370611190795898,-28.19352149963379,18.197757720947266,63.66484451293945
0,703810,4.79624605178833,12.725303649902344,129.2764129638672,-122.68020629882812
0,703811,36.809139251708984,40.41032028198242,172.59381103515625,23.539037704467773
0,703814,-82.96952056884766,-16.963781356811523,-199.3674774169922,17.55048179626465
0,703815,-104.0278549194336,-16.639123916625977,-225.79063415527344,-56.02210998535156
0,703818,55.74931716918945,-7.466162204742432,48.61823654174805,40.76665115356445
0,703819,33.01608657836914,-24.235593795776367,66.2490463256836,25.879974365234375
0,703822,-8.60869312286377,-8.04204273223877,-14.393126487731934,-68.87812042236328
0,703823,37.94343185424805,14.41793441772461,-20.892345428466797,-29.501876831054688
0,703826,-5.03682279586792,17.996170043945312,18.15137481689453,41.7823600769043
0,703827,-5.202125549316406,3.9397363662719727,5.531057834625244,-12.18513298034668
0,703830,39.32313919067383,1.1021326780319214,112.36640930175781,11.636930465698242
0,703831,13.960745811462402,0.08303283900022507,128.9181671142578,53.608909606933594
0,703834,-43.97256851196289,-7.067024230957031,-181.78457641601562,10.630309104919434
0,703835,-60.695430755615234,-17.841388702392578,-177.84837341308594,-0.29181113839149475
0,703838,32.976139068603516,12.66006088256836,88.56459045410156,-45.45500946044922
0,703839,45.84027099609375,29.761722564697266,71.16178894042969,-58.95269775390625
0,703842,-37.389381408691406,-13.35569953918457,-20.640727996826172,-7.504703998565674
0,703843,-7.531246185302734,-15.19305419921875,-5.096382141113281,58.25271987915039
0,703846,9.04082202911377,5.603987693786621,6.926496505737305,44.664512634277344
0,703847,-13.475833892822266,-12.21828556060791,-52.949893951416016,-39.35885238647461
0,703850,42.44664764404297,-15.895554542541504,75.40178680419922,3.547593593597412
0,703851,55.74209213256836,28.0396671295166,177.58970642089844,42.836490631103516
0,703854,-73.23287963867188,21.148635864257812,-170.90087890625,-17.759859085083008
0,703855,-87.34698486328125,-14.262224197387695,-168.12738037109375,-0.5929999351501465
0,703858,56.32837677001953,9.368847846984863,135.56651306152344,-12.900111198425293
0,703859,47.749061584472656,16.950546264648438,63.979759216308594,-37.29063034057617
0,703862,-1.2952070236206055,-17.90298080444336,-40.23074722290039,-12.981878280639648
0,703863,5.778066158294678,-19.343975067138672,-32.351654052734375,-6.189403533935547
0,703866,-42.65805435180664,9.67776107788086,-28.558080673217773,43.45903015136719
0,703867,-32.51982116699219,3.518040657043457,-47.70244216918945,5.079113483428955
0,703870,82.47172546386719,-13.91731071472168,122.18920135498047,-49.056114196777344
0,703871,54.533260345458984,-23.770273208618164,163.19444274902344,44.64595413208008
0,703874,-117.20092010498047,3.661468029022217,-195.5200653076172,51.73469543457031
0,703875,-63.16691970825195,21.845129013061523,-137.7423095703125,-9.609464645385742
0,703878,84.83110046386719,6.151385307312012,128.55014038085938,-58.589012145996094
0,703879,24.71172332763672,14.500913619995117,52.3609504699707,-28.286781311035156
0,703882,-20.208375930786133,-32.39402389526367,10.321764945983887,65.2308120727539
0,703883,19.635082244873047,-8.673099517822266,-20.843507766723633,46.3159294128418
0,703886,-26.408607482910156,49.58646011352539,-72.4970474243164,-21.69280433654785
0,703887,-17.91861343383789,-18.912250518798828,-61.51362228393555,-119.61553955078125
0,703890,73.35164642333984,-20.505390167236328,141.6262969970703,39.677894592285156
0,703891,32.58491516113281,15.635701179504395,165.3127899169922,130.5730743408203
0,704146,-42.516136169433594,-13.700090408325195,-234.2108154296875,-148.1099090576172
0,704149,83.89647674560547,-2.7806339263916016,5.695924282073975,-47.686309814453125
0,704151,70.3565673828125,21.49562644958496,349.0541076660156,158.64878845214844
0,704153,-195.77572631835938,-8.07738208770752,-140.63372802734375,-90.22222900390625
0,704155,-175.25157165527344,-2.807743549346924,-289.83477783203125,-112.70914459228516
0,743546,15.418048858642578,15.207113265991211,-20.814208984375,169.07374572753906
0,743547,28.337663650512695,6.1990814208984375,-45.64471435546875,71.35482788085938
0,743550,12.389986038208008,9.643256187438965,-50.13613510131836,-106.00679779052734
0,743551,52.23796081542969,-33.530677795410156,53.473655700683594,17.718257904052734
0,743554,101.24830627441406,-21.241960525512695,76.5379867553711,-7.61376953125
0,743555,44.619049072265625,25.127649307250977,65.7398681640625,-140.1364288330078
0,743558,39.84675979614258,11.412572860717773,180.24557495117188,99.41374206542969
0,743559,86.89878845214844,3.460294485092163,151.6525115966797,198.7223358154297
0,743562,-156.94833374023438,-20.492883682250977,-166.53512573242188,-95.53917694091797
0,743563,-165.4018096923828,6.888518333435059,-183.90452575683594,-80.9616928100586
0,743566,55.22334671020508,4.88814640045166,-21.4388370513916,32.75212860107422
0,743567,1.968670129776001,-20.803077697753906,0.29906409978866577,-5.953366756439209
0,743570,10.679783821105957,37.234554290771484,23.302438735961914,13.189830780029297
0,743571,52.394073486328125,11.688826560974121,-27.22706413269043,-2.71313738822937
0,743574,3.0195484161376953,-46.77627944946289,-27.871322631835938,-47.08167266845703
0,743575,-1.9614908695220947,-22.52179718017578,50.724822998046875,-15.614118576049805
0,743578,96.18484497070312,54.94407272338867,180.1029052734375,64.88506317138672
0,743579,101.2535171508789,35.497230529785156,152.77577209472656,33.046234130859375
0,743582,-151.4390106201172,-42.68854522705078,-188.6610870361328,-72.48338317871094
0,743583,-182.6145477294922,-23.106857299804688,-218.40957641601562,-57.09837341308594
0,743586,40.94892501831055,-19.842748641967773,46.67267608642578,51.44989776611328
0,743587,69.39234924316406,17.23680877685547,53.35478973388672,41.83953857421875
0,743590,-8.482231140136719,45.17417526245117,-17.73326301574707,-18.514907836914062
0,743591,4.083214282989502,-27.617544174194336,-3.018939733505249,-13.986440658569336
0,743594,48.5771369934082,-23.42540168762207,13.608220100402832,4.803915500640869
0,743595,13.938076972961426,31.034881591796875,17.865476608276367,28.701248168945312
0,743598,12.021849632263184,1.6156597137451172,87.54671478271484,16.31729507446289
0,743599,22.290258407592773,-48.57701110839844,64.64359283447266,-56.33303451538086
0,743602,-60.74904251098633,3.4122302532196045,-119.61090850830078,2.8066840171813965
0,743603,-46.75932312011719,70.3830795288086,-68.9237060546875,86.40074920654297
0,743606,36.30634307861328,-9.35679817199707,21.603988647460938,-7.322482585906982
0,743607,18.890625,-59.76158905029297,-25.625757217407227,-52.56189727783203
0,743610,-40.41802215576172,-13.039704322814941,38.61991882324219,-77.96464538574219
0,743611,-25.777400970458984,-3.318830966949463,16.067798614501953,-131.53294372558594
0,743614,55.60307693481445,58.878353118896484,-20.266477584838867,109.39427185058594
0,743615,29.07917022705078,54.62098693847656,-4.824396133422852,141.44772338867188
0,743618,-5.766629219055176,-49.417030334472656,57.530033111572266,-84.92716979980469
0,743619,55.05049514770508,-24.704883575439453,128.95973205566406,82.48902130126953
0,743622,-59.2559700012207,33.502994537353516,-100.61103057861328,67.09369659423828
0,743623,-90.20565795898438,6.099545001983643,-144.20733642578125,-90.51934051513672
0,743626,21.02398681640625,-42.42660140991211,64.53021240234375,-64.28230285644531
0,743627,6.909599781036377,-16.593603134155273,50.51970291137695,-26.394485473632812
0,743630,50.817405700683594,44.46548080444336,-29.690217971801758,148.64205932617188
0,743631,33.24231719970703,-3.409158229827881,-52.47559356689453,86.83097839355469
0,743634,-52.54859161376953,-26.769275665283203,-28.739330291748047,-242.12115478515625
0,743635,-22.40264320373535,27.863239288330078,-3.2291386127471924,-75.70246124267578
0,743638,50.372920989990234,-1.3286463022232056,95.41553497314453,225.47328186035156
0,743639,71.97525787353516,-17.22865867614746,131.2930145263672,58.62736892700195
0,743642,-76.92000579833984,-2.071833372116089,-117.12137603759766,-156.4487762451172
0,743643,-106.58399963378906,-0.69777911901474,-119.19976043701172,-103.8561782836914
0,743646,88.8080825805664,23.7261905670166,98.4531021118164,155.5615692138672
0,743647,53.380096435546875,-19.159954071044922,37.76877975463867,27.851505279541016
0,743650,-58.436851501464844,-21.362354278564453,-39.10700607299805,-174.42422485351562
0,743651,7.587163925170898,40.78440475463867,-8.402083396911621,46.52220916748047
0,743654,2.1524412631988525,8.797438621520996,1.6903051137924194,145.97364807128906
0,743655,-67.24079895019531,-39.38167190551758,-56.35215759277344,81.93795776367188
0,743658,64.20360565185547,-15.545123100280762,40.7880744934082,-118.09178161621094
0,743659,102.88079071044922,27.120555877685547,140.02903747558594,-224.1880645751953
0,743662,-115.59874725341797,18.68079948425293,-109.20097351074219,79.73194885253906
0,743663,-65.20893859863281,2.2437708377838135,-121.55304718017578,215.22781372070312
0,743666,61.28426742553711,-20.278478622436523,87.93223571777344,-92.62378692626953
0,743668,30.182466506958008,-15.56602954864502,49.09123229980469,-105.69915008544922
0,743670,20.392412185668945,14.247220993041992,-7.535300254821777,102.50335693359375
0,743672,-47.13697814941406,-16.056774139404297,-1.446832299232483,23.288021087646484
0,743674,-2.4507384300231934,31.096561431884766,-5.645079612731934,-120.60916137695312
0,743676,23.74363136291504,42.052635192871094,-33.281681060791016,9.215133666992188
0,743678,3.092844247817993,-47.08818817138672,44.10103225708008,198.51527404785156
0,743680,65.369873046875,-36.11238479614258,72.87431335449219,-95.56419372558594
0,743681,-38.82386779785156,4.212724208831787,-75.92679595947266,-243.40032958984375
0,743684,-87.46759033203125,21.94173240661621,-82.19478607177734,161.0101318359375
0,743685,60.412078857421875,37.18415832519531,52.32622146606445,310.8707580566406
0,743688,35.94131851196289,-18.905513763427734,25.603811264038086,-194.4347686767578
0,743689,-95.21983337402344,-24.05216407775879,-74.42355346679688,-256.7861328125
0,743691,9.930814743041992,30.46187973022461,37.40919876098633,212.18942260742188
0,743694,35.799339294433594,-20.230783462524414,6.381803512573242,92.33159637451172
0,743695,-55.66487503051758,-18.24260139465332,-105.22257995605469,-103.55223846435547
0,743698,59.18125915527344,7.752195358276367,95.64962768554688,-20.051877975463867
0,743699,66.51537322998047,-21.396135330200195,151.95115661621094,-6.8010101318359375
0,743702,-101.75870513916016,6.856299877166748,-139.71456909179688,-28.529376983642578
0,743703,-29.0300235748291,38.212318420410156,-101.12696075439453,5.387583255767822
0,743706,103.6390609741211,20.429584503173828,154.32363891601562,78.87456512451172
0,743707,-85.86429595947266,-19.16086769104004,49.36164093017578,31.82733917236328
0,743710,-14.877211570739746,-29.82052993774414,-42.073307037353516,-12.425039291381836
0,743711,175.7295379638672,-13.446463584899902,-25.89848518371582,-18.0648136138916
0,743714,-40.09145736694336,31.82872772216797,-23.65666961669922,-107.89543914794922
0,743715,-117.2848129272461,26.706329345703125,-31.379905700683594,-41.832427978515625
0,743718,7.044896125793457,-27.713281631469727,26.66227912902832,105.52145385742188
0,743719,78.83645629882812,8.22408676147461,101.83031463623047,100.82526397705078
0,743722,-23.294376373291016,8.307580947875977,-114.60340118408203,-6.55351448059082
0,743723,-80.18453979492188,-50.02912521362305,-111.23047637939453,-134.68922424316406
0,743726,51.578948974609375,10.232582092285156,120.03102111816406,-21.15472984313965
0,743727,48.705604553222656,28.549442291259766,49.536277770996094,73.82122802734375
0,743730,-9.771245956420898,-17.815038681030273,-36.225040435791016,-94.56690979003906
0,743731,-11.278435707092285,5.147833347320557,-3.2864463329315186,2.22965931892395
0,743734,-20.193347930908203,-3.6849584579467773,-28.46841812133789,153.30332946777344
0,743735,-17.48337745666504,24.21422576904297,-34.24937057495117,5.28449010848999
0,743738,45.111656188964844,34.856101989746094,90.55068969726562,-73.33539581298828
0,743739,48.670021057128906,-62.78304672241211,67.97149658203125,-50.081748962402344
0,743742,-73.35848999023438,-29.471576690673828,-126.29077911376953,-2.960829019546509
0,743743,-70.1663589477539,46.202239990234375,-78.19646453857422,87.0634765625
0,743746,53.19032287597656,-4.517624378204346,101.21398162841797,27.903867721557617
0,743747,55.22136306762695,7.24855375289917,101.0277328491211,-15.131407737731934
0,743750,-22.834413528442383,15.202730178833008,-47.199703216552734,-9.68908405303955
0,743751,-17.32740592956543,-36.41546630859375,-62.40666961669922,-67.13077545166016
0,743754,-18.328725814819336,-17.590421676635742,-15.013561248779297,-15.316595077514648
0,743755,-52.41549301147461,43.486446380615234,-32.62282180786133,50.5980110168457
0,743758,69.051025390625,26.371362686157227,100.22750091552734,49.052249908447266
0,743759,69.82157897949219,-55.01940155029297,91.49528503417969,23.703554153442383
0,743762,-100.1532974243164,2.4845316410064697,-137.2628631591797,-110.67670440673828
0,743763,-20.226755142211914,44.49333190917969,-86.17023468017578,-40.3731803894043
0,743766,93.3472900390625,-23.44502830505371,87.97659301757812,43.83287811279297
0,743767,3.492609739303589,-15.252521514892578,22.678024291992188,-32.331382751464844
0,743770,-17.437461853027344,17.991872787475586,-8.757596015930176,61.26408004760742
0,743771,24.70808982849121,-2.1585419178009033,17.10540199279785,-42.228172302246094
0,743774,-50.01435470581055,-25.98565673828125,-27.221271514892578,-47.22796630859375
0,743775,-85.56002044677734,-9.738020896911621,-46.00861740112305,107.23065185546875
0,743778,63.270843505859375,-1.4069597721099854,48.11145782470703,62.26597213745117
0,743779,104.18189239501953,11.387604713439941,80.27642059326172,-26.47076416015625
0,743782,-96.18386840820312,22.343143463134766,-107.04057312011719,-51.37363052368164
0,743783,-96.04388427734375,-18.42986488342285,-82.06442260742188,-22.398218154907227
0,743786,101.14004516601562,1.0540683269500732,119.12730407714844,41.58755111694336
0,743787,72.65043640136719,52.21938705444336,65.4634017944336,71.1219482421875
0,743790,-33.63682174682617,-15.910847663879395,-54.215789794921875,-123.16159057617188
0,743791,-22.158199310302734,-38.64417266845703,-19.98797607421875,-80.99685668945312
0,743794,-33.80340576171875,27.143836975097656,-8.687432289123535,135.81517028808594
0,743795,-37.811824798583984,0.34959346055984497,-67.7641372680664,44.88496017456055
0,743798,92.07747650146484,-5.887465476989746,61.50299835205078,-36.86333084106445
0,743799,90.24553680419922,25.25790023803711,142.01434326171875,-18.37010955810547
0,743802,-124.73114013671875,-18.291685104370117,-134.42727661132812,-58.111793518066406
0,743803,-68.1547622680664,-26.135173797607422,-120.90049743652344,15.800995826721191
0,743806,69.03632354736328,-0.15700571238994598,127.33435821533203,41.857723236083984
0,743807,17.00358772277832,-0.8975157141685486,67.66089630126953,-3.963674783706665
0,743810,4.442969799041748,11.90276050567627,-82.5247573852539,4.548282623291016
0,743811,-22.03949546813965,-26.274316787719727,-34.773685455322266,-80.67195892333984
0,743814,-89.50927734375,-42.6766471862793,47.50608444213867,18.395179748535156
0,743815,-20.231042861938477,34.26942443847656,-56.29692840576172,90.6821517944336
0,743818,113.63239288330078,28.875347137451172,44.46078872680664,-47.386436462402344
0,743819,74.29527282714844,-28.973424911499023,100.7105941772461,-60.731388092041016
0,743822,-54.82609939575195,110.61844635009766,-50.91429901123047,94.63603973388672
0,743823,-122.48701477050781,5.979665279388428,-86.6134033203125,64.84362030029297
0,743826,76.339111328125,-144.146240234375,17.902694702148438,-121.16033935546875
0,743827,177.4324493408203,97.7791976928711,97.98360443115234,-40.682762145996094
0,743830,-79.41340637207031,15.693528175354004,-33.596343994140625,118.51296997070312
0,743831,-84.23169708251953,-65.4715347290039,-24.760663986206055,92.58486938476562
0,743834,36.60148620605469,54.23723220825195,15.141901016235352,-161.58975219726562
0,743835,-32.830570220947266,-23.83233070373535,-66.35311889648438,-186.1492156982422
0,743838,33.6354866027832,-4.751110076904297,63.358455657958984,145.777099609375
0,743840,82.77495574951172,40.30131149291992,113.5212631225586,239.83682250976562
0,743842,-130.12789916992188,-67.03874206542969,-153.8705596923828,-78.15178680419922
0,743844,-87.40208435058594,-27.06400489807129,-108.34877014160156,-245.10125732421875
0,743846,113.391357421875,54.78290939331055,135.96449279785156,85.66580963134766
0,743848,45.18671417236328,2.748429298400879,62.168094635009766,133.81581115722656
0,743849,-31.876344680786133,-20.961261749267578,-79.56194305419922,-83.43582153320312
0,743852,-15.780330657958984,5.934182643890381,-34.97208786010742,62.75970458984375
0,743854,-4.908466815948486,21.304471969604492,36.58784484863281,44.00702667236328
0,743856,-26.32960319519043,-12.472858428955078,-36.456077575683594,-181.1507568359375
0,743858,51.03480911254883,10.781049728393555,81.98719024658203,-15.254573822021484
0,743860,66.98030853271484,-6.233739376068115,104.4805679321289,138.15769958496094
0,743862,-95.20733642578125,-27.5092716217041,-166.77696228027344,1.9451521635055542
0,743864,-74.83136749267578,-10.043161392211914,-80.20162200927734,-63.958885192871094
0,743866,57.15332794189453,-17.665691375732422,118.87730407714844,41.9911994934082
0,743868,48.38431930541992,21.968177795410156,33.29680252075195,41.96646499633789
0,743870,8.379332542419434,37.72860336303711,-8.506471633911133,-75.80438995361328
0,743872,-4.818400859832764,-7.385429382324219,-10.883269309997559,14.54554271697998
0,743874,-56.381736755371094,-30.161571502685547,-55.21326446533203,-31.284170150756836
0,743876,-47.01768493652344,24.844480514526367,-32.01235580444336,-27.29730796813965
0,743878,94.50121307373047,-3.092160701751709,68.38896942138672,19.124618530273438
0,743880,81.45829010009766,-23.493186950683594,79.98750305175781,-53.70731735229492
0,743882,-125.41931915283203,26.641504287719727,-119.65232849121094,81.93692779541016
0,743884,-59.51566696166992,-3.790297508239746,-79.17739868164062,33.180477142333984
0,743886,95.50301361083984,25.12416648864746,124.86992645263672,11.945536613464355
0,743888,25.669431686401367,18.52938461303711,35.81126403808594,9.143741607666016
0,743890,7.16127347946167,-27.910520553588867,-17.400074005126953,-53.471656799316406
0,743892,1.339920163154602,-1.9031250476837158,-2.5717315673828125,33.358856201171875
0,743894,-37.608863830566406,-18.47981834411621,-50.03120040893555,-5.837215423583984
0,743896,-55.597503662109375,-29.014951705932617,-55.870445251464844,-115.26649475097656
0,743898,43.76140594482422,25.76811981201172,77.03617858886719,79.34956359863281
0,743900,95.3177490234375,23.61089324951172,112.97113800048828,151.7897186279297
0,743902,-111.2751693725586,-11.94340991973877,-145.62051391601562,-154.4230194091797
0,743904,-81.04627990722656,-1.2345799207687378,-61.27353286743164,-64.3433837890625
0,743906,121.1729736328125,-16.362377166748047,121.41881561279297,119.41345977783203
0,743908,21.269739151000977,-16.531709671020508,-34.05717086791992,-17.133241653442383
0,743910,-76.49253845214844,4.115298748016357,-17.664255142211914,-46.44568634033203
0,743912,14.683520317077637,23.252859115600586,84.4983901977539,69.62733459472656
0,743914,34.49928665161133,31.988513946533203,-25.510944366455078,52.16387176513672
0,743916,-24.366098403930664,-19.726539611816406,-102.35184478759766,-7.232389450073242
0,743918,19.144306182861328,-27.363418579101562,82.75996398925781,-165.42649841308594
0,743920,67.14762878417969,32.188594818115234,103.17306518554688,-164.1941680908203
0,743922,-76.7625732421875,7.873339653015137,-146.67640686035156,182.65623474121094
0,743924,-72.59669494628906,-26.30034065246582,-60.623046875,130.6773223876953
0,743926,86.78694915771484,3.6346473693847656,113.99864196777344,-59.474021911621094
0,743928,48.40269088745117,12.311144828796387,8.380373001098633,-10.061610221862793
0,743930,-35.51030731201172,-12.061115264892578,-25.554893493652344,44.63997268676758
0,743932,-46.89397430419922,-7.736059188842773,13.802556037902832,-12.645456314086914
0,743934,-5.170805931091309,27.949922561645508,-72.91026306152344,-107.73149871826172
0,743936,11.795629501342773,0.34197285771369934,-47.36114501953125,65.23573303222656
0,743938,13.533246994018555,-37.922607421875,119.62907409667969,90.2315444946289
0,743940,72.18870544433594,16.348039627075195,89.56986999511719,-16.903762817382812
0,743942,-25.8963680267334,47.0093994140625,-94.54466247558594,-22.852624893188477
0,743944,-108.7309799194336,-37.0248908996582,-106.1209487915039,-73.8795166015625
0,743946,38.822776794433594,-43.83203125,66.4451675415039,-27.720510482788086
0,743948,69.96167755126953,17.045778274536133,85.08793640136719,11.219167709350586
0,743950,-5.074166774749756,17.202747344970703,-11.68421745300293,34.446372985839844
0,743952,-20.68890953063965,24.70805549621582,-18.967748641967773,49.26018524169922
0,743954,-57.178348541259766,-21.248456954956055,-71.45428466796875,-21.11231803894043
0,743956,-41.8863639831543,-42.68185043334961,-53.66504669189453,-22.81819725036621
0,743958,80.44033813476562,24.09138298034668,115.0661392211914,19.454811096191406
0,743960,75.31018829345703,24.085803985595703,94.28417205810547,8.097461700439453
0,743962,-102.35919952392578,0.6091930866241455,-138.96234130859375,-5.630202770233154
0,743964,-54.005775451660156,12.510320663452148,-89.5898208618164,-34.75634002685547
0,743966,107.47528839111328,0.022741487249732018,120.82257843017578,1.4323478937149048
0,743968,52.535465240478516,-5.813172340393066,54.373146057128906,34.36957550048828
0,743970,-35.80876922607422,-1.8622069358825684,-14.449000358581543,-12.824943542480469
0,743972,-49.13387680053711,-19.19782066345215,-5.898269176483154,-6.021883487701416
0,743974,-30.834943771362305,7.084158897399902,-66.28694152832031,5.929676055908203
0,743976,-19.373619079589844,-17.111690521240234,-64.77023315429688,2.5692946910858154
0,743978,74.92959594726562,-9.038363456726074,86.72779083251953,40.62588119506836
0,743980,78.18894958496094,64.32238006591797,102.93839263916016,-6.199702739715576
0,743982,-119.08106231689453,-34.859676361083984,-120.48829650878906,-93.41394805908203
0,743984,-66.03211212158203,-29.896345138549805,-68.1404800415039,-51.1821403503418
0,743986,78.85846710205078,27.475875854492188,123.52922821044922,113.79989624023438
0,743988,37.34548568725586,-12.679497718811035,16.68526268005371,64.80960083007812
0,743990,4.912779331207275,14.1915864944458,-68.87438201904297,-110.45640563964844
0,743992,-33.147438049316406,3.179765224456787,12.51127815246582,4.4267778396606445
0,743994,-27.509920120239258,17.08124351501465,11.584056854248047,84.84548950195312
0,743996,19.859804153442383,14.901163101196289,-35.28983688354492,-10.475667953491211
0,743998,41.8106803894043,-29.550861358642578,60.74593734741211,-64.46437072753906
0,744000,60.73715591430664,-17.955047607421875,54.18391418457031,-32.78326416015625
0,744002,-83.2165756225586,-24.376657485961914,-168.98745727539062,54.12485122680664
0,744004,-96.7080307006836,-0.11750609427690506,-72.5413589477539,21.94240951538086
0,744005,91.40410614013672,51.82621765136719,178.08961486816406,-51.14413070678711
0,744008,25.61820411682129,-1.2921116352081299,63.33293151855469,44.43136978149414
0,744009,-57.619510650634766,-27.736656188964844,-88.73945617675781,7.777378559112549
0,744012,18.33358383178711,3.032541513442993,-11.6660737991333,56.96213150024414
0,744013,1.625732183456421,-1.0816998481750488,15.626952171325684,2.0547537803649902
0,744016,-49.12509536743164,-6.0260515213012695,-54.15778350830078,-240.9683837890625
0,744017,20.454641342163086,23.104476928710938,59.01626968383789,7.629519939422607
0,744020,94.29463195800781,23.462766647338867,123.67868041992188,252.10391235351562
0,744021,21.22960662841797,-20.647258758544922,-66.83708190917969,181.42608642578125
0,744024,-82.34193420410156,-8.021178245544434,-116.21595764160156,-233.2678985595703
0,744027,-45.12148666381836,-20.21880340576172,15.201380729675293,-253.57456970214844
0,744028,40.11420822143555,-5.606990337371826,59.079795837402344,179.42442321777344
0,744029,28.357494354248047,54.40455627441406,6.176798343658447,31.897613525390625
0,744032,-3.45015025138855,-14.564854621887207,-11.519317626953125,-55.294986724853516
0,744033,-21.22979164123535,-48.16984558105469,-34.08660888671875,64.43165588378906
0,744036,-39.883663177490234,21.227657318115234,-79.72481536865234,5.0443902015686035
0,744037,47.40681838989258,19.382036209106445,102.30110931396484,-38.565330505371094
0,744040,56.04682922363281,0.4857732057571411,85.03759002685547,-23.91716957092285
0,744041,-66.04595947265625,-24.805055618286133,-123.8242416381836,39.7226448059082
0,744044,-59.52456283569336,-14.658808708190918,-7.675219535827637,25.642364501953125
0,744045,29.374141693115234,39.956382751464844,50.932220458984375,-26.612709045410156
0,744048,39.29912567138672,-2.2142815589904785,-17.59762191772461,4.519564628601074
0,744049,4.091482639312744,-17.931562423706055,13.461861610412598,82.01791381835938
0,744052,44.472801208496094,45.719608306884766,68.22190856933594,24.41353988647461
0,744053,-23.84295654296875,-23.0084171295166,-56.46695327758789,-105.16471862792969
0,744056,-81.20044708251953,-48.37252426147461,-118.02594757080078,-77.27474212646484
0,744057,41.200355529785156,30.883630752563477,78.69738006591797,-41.538326263427734
0,744060,41.22162628173828,-12.970951080322266,95.30528259277344,-5.159231185913086
0,744061,-31.059490203857422,4.676544666290283,-67.0107421875,217.34495544433594
0,744064,-14.748696327209473,25.2772216796875,-60.53273010253906,93.9618148803711
0,744065,25.343246459960938,-12.807119369506836,63.872230529785156,-233.8889923095703
0,744068,17.86314582824707,12.852967262268066,33.23052215576172,-108.17459106445312
0,744069,-14.418591499328613,23.877620697021484,-42.240516662597656,38.65174865722656
0,744072,18.410982131958008,18.248184204101562,74.90277099609375,172.9512939453125
0,744073,21.782136917114258,-38.04334259033203,8.900707244873047,157.67002868652344
0,744076,-73.1253433227539,-42.2607421875,-194.6697998046875,-288.2486877441406
0,744077,-18.282123565673828,29.742921829223633,27.798898696899414,-155.32435607910156
0,744080,66.25371551513672,-9.197003364562988,142.9939727783203,369.50250244140625
0,744081,-23.117246627807617,-39.21289825439453,-62.59410858154297,103.71229553222656
0,744084,-59.936485290527344,16.839679718017578,-48.969791412353516,-284.5384826660156
0,744085,31.922977447509766,38.34975051879883,46.5235481262207,-91.05127716064453
0,744088,65.78929138183594,11.420785903930664,34.499298095703125,182.81346130371094
0,744089,-39.23475646972656,-19.20688819885254,3.478947639465332,71.83309936523438
0,744092,-29.169469833374023,-17.80010223388672,-2.9679172039031982,-219.1384735107422
0,744093,16.66981315612793,-11.811614036560059,-37.95450210571289,-105.75247955322266
0,744096,-14.196035385131836,41.04354476928711,-22.011123657226562,223.81932067871094
0,744097,42.11762619018555,43.89681625366211,80.14424133300781,161.4556121826172
0,744100,24.1296329498291,-44.76607894897461,36.14940643310547,-141.24522399902344
0,744101,-82.5980224609375,-29.39487075805664,-107.11862182617188,-188.10302734375
0,744104,-50.70846939086914,-15.71712589263916,-128.2857208251953,78.10020446777344
0,744105,117.00296020507812,-51.48188018798828,4.2477521896362305,117.24966430664062
0,744108,68.0973892211914,69.92254638671875,165.60986328125,30.879114151000977
0,744109,-29.474227905273438,87.83978271484375,69.99592590332031,116.64031982421875
0,744112,-11.712075233459473,-68.80841064453125,-52.60788345336914,-120.98786926269531
0,744113,-110.52246856689453,-70.98371887207031,-40.945274353027344,-311.7210998535156
0,744116,-32.05043411254883,47.264739990234375,-47.100154876708984,98.84043884277344
0,744117,99.8028793334961,74.99376678466797,109.3134536743164,293.5321960449219
0,744120,95.70127868652344,21.61709976196289,72.22846221923828,-51.13193130493164
0,744121,25.12868309020996,8.057205200195312,-137.0717315673828,-145.7713165283203
0,744124,-223.213623046875,-75.81655883789062,-54.79092788696289,-45.464046478271484
0,744125,-122.67298889160156,-70.1631851196289,70.74008178710938,-0.49320805072784424
0,744128,241.7332000732422,19.902759552001953,11.060957908630371,161.42034912109375
0,744129,85.51778411865234,22.507482528686523,-54.05916976928711,81.56896209716797
0,744132,-82.75607299804688,33.8049430847168,39.11343002319336,-229.1649627685547
0,744133,-30.549402236938477,-16.255796432495117,-4.746970176696777,-64.7084732055664
0,744136,-77.29729461669922,-22.931028366088867,-77.89576721191406,79.73865509033203
0,744137,35.231101989746094,17.365018844604492,86.41011047363281,-12.771260261535645
0,744140,119.55867004394531,-19.981674194335938,83.02462005615234,197.2517852783203
0,744141,-31.72816276550293,12.738044738769531,-98.69605255126953,82.80751037597656
0,744144,-83.01297760009766,42.70687484741211,-41.49142074584961,-240.54689025878906
0,744145,12.7586669921875,-32.13482666015625,84.32929992675781,-140.65174865722656
0,744148,34.075584411621094,11.954400062561035,15.57557487487793,162.0446319580078
0,744149,24.699262619018555,42.865657806396484,-49.74111557006836,75.71975708007812
0,744152,-23.852649688720703,-61.2571907043457,15.890497207641602,-105.44499206542969
0,744153,-51.06033706665039,-45.18325424194336,-41.84937286376953,141.24252319335938
0,744156,16.427881240844727,27.176721572875977,-72.91605377197266,0.3933793008327484
0,744157,77.40575408935547,54.77218246459961,117.91973114013672,-128.2359161376953
0,744160,-1.0240415334701538,29.322601318359375,73.41924285888672,88.26480102539062
0,744161,-85.57997131347656,-3.853832483291626,-77.30491638183594,-136.44448852539062
0,744164,-18.197948455810547,-41.520240783691406,-58.64406204223633,-56.12445831298828
0,744165,47.75065994262695,-80.24224090576172,-24.436729431152344,257.0226745605469
0,744168,49.49093246459961,37.95487594604492,20.478363037109375,-208.21066284179688
0,744170,-20.50606918334961,60.811588287353516,68.6817398071289,-240.27674865722656
0,744172,-25.795818328857422,-39.47146224975586,48.85091018676758,290.6198425292969
0,744174,-26.16399383544922,-8.43596363067627,-73.47151947021484,158.46534729003906
0,744176,-19.097774505615234,13.302453994750977,-92.71659851074219,69.10033416748047
0,744178,66.74981689453125,-10.105171203613281,115.45573425292969,68.83393096923828
0,744180,16.871841430664062,8.265968322753906,63.4500732421875,-315.6112976074219
0,744182,-25.858600616455078,12.710284233093262,-124.70634460449219,-203.918701171875
0,744183,-7.661056041717529,-40.84434509277344,-1.0022687911987305,218.10829162597656
0,744186,-0.743431806564331,12.698092460632324,63.196285247802734,104.9133529663086
0,744187,22.37232208251953,91.13551330566406,25.704904556274414,-43.85992431640625
0,744190,-21.624473571777344,-29.951488494873047,-31.95201873779297,-67.29409790039062
0,744191,-55.17780685424805,-57.98697280883789,-47.722652435302734,16.262508392333984
0,744194,-9.076319694519043,9.016267776489258,2.6763856410980225,61.878929138183594
0,744195,39.64115905761719,-22.578662872314453,-33.195350646972656,-35.05437469482422
0,744198,51.49912643432617,2.925565719604492,74.58375549316406,-0.02695801667869091
0,744199,25.031084060668945,24.251689910888672,116.47760772705078,-45.36008834838867
0,744202,-38.65947723388672,19.099760055541992,-87.28532409667969,-8.056788444519043
0,744203,-16.27645492553711,38.92771911621094,-68.13014221191406,63.78131866455078
0,744206,13.923025131225586,-12.590514183044434,28.598392486572266,-18.576990127563477
0,744207,-55.70771789550781,-67.22590637207031,-40.76678466796875,-12.054885864257812
0,744210,-1.4808861017227173,-17.14908790588379,44.09434127807617,132.6795196533203
0,744211,82.5566635131836,34.807037353515625,48.74220275878906,3.84142804145813
0,744216,15.22264289855957,-2.178595781326294,-36.71543884277344,-129.14768981933594
0,744217,-25.053518295288086,-6.757774829864502,-1.3956912755966187,74.23331451416016
0,744218,3.9380478858947754,21.411376953125,3.081238031387329,-122.60255432128906
0,744219,4.445964813232422,-8.261406898498535,16.438892364501953,-205.332763671875
0,744222,-74.4987564086914,-19.220666885375977,-87.77687072753906,228.24618530273438
0,744223,-66.0777587890625,4.382835388183594,-63.17896270751953,226.57435607910156
0,744226,84.07963562011719,48.658790588378906,115.60450744628906,-1.0119990110397339
0,744227,63.65456771850586,38.17988204956055,44.43437576293945,-75.025146484375
0,744230,-13.237375259399414,-29.405601501464844,-34.797149658203125,-312.0588073730469
0,744231,-12.514102935791016,-46.7867431640625,-18.893869400024414,-234.58566284179688
0,744234,-56.442169189453125,-20.26765251159668,-63.518959045410156,190.30116271972656
0,744235,-33.130802154541016,15.939663887023926,-32.902931213378906,166.31536865234375
0,744238,75.41178894042969,19.874462127685547,131.34814453125,290.5592346191406
0,744239,63.955711364746094,19.534786224365234,94.6290054321289,326.0029296875
0,744242,-82.00525665283203,-18.79131317138672,-133.7875518798828,-382.1648864746094
0,744243,-50.68803787231445,-30.69097900390625,-55.8963508605957,-334.764892578125
0,744246,91.63357543945312,-12.267650604248047,118.49746704101562,230.76979064941406
0,744247,9.294010162353516,5.259428977966309,36.45221710205078,53.33296203613281
0,744250,-54.79987716674805,36.16342544555664,-59.4254264831543,-172.19374084472656
0,744251,38.56261444091797,23.02663230895996,-41.44458770751953,-74.69515991210938
0,744254,-31.954275131225586,25.034168243408203,-36.36968994140625,-79.50949096679688
0,744255,-79.6021499633789,-22.939817428588867,-32.152549743652344,79.35877990722656
0,744258,105.57722473144531,-36.77724075317383,109.93378448486328,381.68243408203125
0,744259,112.58267211914062,12.378792762756348,81.18594360351562,127.12974548339844
0,744262,-80.32710266113281,-38.716121673583984,-151.06646728515625,-443.1646423339844
0,744263,-81.5406494140625,-9.45992660522461,-40.31524658203125,-357.32904052734375
0,744266,12.519609451293945,59.218563079833984,126.33430480957031,272.9074401855469
0,744267,19.711837768554688,-10.59653377532959,23.196287155151367,276.8614196777344
0,744270,13.448694229125977,-38.03514099121094,-73.55982971191406,-14.177978515625
0,744271,-21.38849449157715,25.66312599182129,-16.78256607055664,93.78671264648438
0,744274,-36.01313781738281,31.30417823791504,21.711830139160156,-131.34642028808594
0,744275,16.022663116455078,-15.396167755126953,-39.91294860839844,-274.3892517089844
0,744278,66.19412231445312,-14.06601333618164,61.60599136352539,170.94088745117188
0,744279,53.25767135620117,-7.290329933166504,103.52667999267578,166.582763671875
0,744282,-122.41036987304688,-32.75356674194336,-139.69277954101562,-151.96778869628906
0,744283,-110.12569427490234,21.200252532958984,-113.43848419189453,5.793720245361328
0,744286,132.43174743652344,106.91473388671875,171.82505798339844,-75.75505065917969
0,744287,99.88201904296875,-8.121103286743164,47.640953063964844,-260.9209899902344
0,744290,-78.85548400878906,-158.85084533691406,-124.18946075439453,159.64588928222656
0,744291,-45.39289093017578,-26.991952896118164,20.90229034423828,524.8450317382812
0,744294,38.445526123046875,93.37138366699219,7.734344005584717,53.37675857543945
0,744295,-28.448461532592773,8.085258483886719,-106.74761962890625,-416.9720458984375
0,744298,35.167640686035156,63.08434295654297,125.63036346435547,-27.328594207763672
0,744299,67.49591827392578,33.26124572753906,157.06265258789062,75.89971160888672
0,744302,-101.10511779785156,-88.6474609375,-188.1024169921875,-37.74675369262695
0,744303,-9.586506843566895,28.96196937561035,-48.21686935424805,59.50802993774414
0,744306,79.98271179199219,-15.14356517791748,90.69219207763672,-6.6666483879089355
0,744307,-30.481441497802734,-76.16387176513672,-63.294464111328125,17.585613250732422
0,744310,-22.411197662353516,55.129173278808594,56.95863723754883,108.04191589355469
0,744311,-12.45677661895752,24.205810546875,83.8881607055664,-87.7074966430664
0,744314,-31.157222747802734,2.5908865928649902,-103.13180541992188,-222.60537719726562
0,744315,11.258326530456543,8.972733497619629,-81.44637298583984,12.272987365722656
0,744318,73.86231231689453,-24.364395141601562,151.19993591308594,51.47487258911133
0,744319,59.871620178222656,9.889784812927246,101.87895965576172,38.612022399902344
0,744322,-53.724849700927734,-47.74643325805664,-218.20765686035156,82.18390655517578
0,744323,-97.30987548828125,-34.116477966308594,-131.9394073486328,31.231443405151367
0,744326,0.7194845080375671,27.246706008911133,110.19620513916016,-48.057125091552734
0,744327,52.317508697509766,-4.725272178649902,54.218894958496094,-30.76457977294922
0,744330,59.72135543823242,59.585662841796875,59.5861930847168,117.84410858154297
0,744331,8.10460376739502,53.27067565917969,33.1982307434082,12.928278923034668
0,744334,-132.320068359375,-2.1767525672912598,-81.80901336669922,-102.2486343383789
0,744335,-84.59285736083984,-0.30652859807014465,-60.94964599609375,-51.963417053222656
0,744338,193.71051025390625,-95.50387573242188,72.36009216308594,-173.71575927734375
0,744339,102.85005187988281,-58.20750427246094,94.33206176757812,-259.1933288574219
0,744342,-252.175048828125,48.392032623291016,-116.20618438720703,445.194580078125
0,744343,-35.62942886352539,9.193032264709473,-79.3841323852539,756.78857421875
0,744346,189.68692016601562,13.974631309509277,113.19036865234375,-561.4434814453125
0,744347,3.279175043106079,34.918025970458984,35.714759826660156,-710.4902954101562
0,744350,-37.45439147949219,-9.439958572387695,-39.32318115234375,526.5780029296875
0,744351,49.93976593017578,-23.753787994384766,-14.299738883972168,311.7182312011719
0,744354,31.308629989624023,98.45013427734375,-17.758943557739258,-252.6242218017578
0,744355,-87.81864166259766,71.72814178466797,-24.968074798583984,-53.744693756103516
0,744358,-47.01873016357422,-155.51132202148438,54.11360549926758,14.510946273803711
0,744359,73.5077896118164,-51.609169006347656,116.3488540649414,39.83805465698242
0,744362,-75.96875762939453,39.70812225341797,-123.88306427001953,-94.57439422607422
0,744363,-53.636173248291016,-43.87168884277344,-152.56544494628906,-199.14012145996094
0,744366,145.27613830566406,69.90653228759766,192.6222686767578,144.06112670898438
0,744367,34.466163635253906,62.36298370361328,95.12801361083984,206.17489624023438
0,744370,-96.94123840332031,-72.31327056884766,-156.8040771484375,27.81220054626465
0,744371,-63.432315826416016,-115.2092514038086,-39.97563934326172,88.97097778320312
0,744374,38.87364959716797,-123.60786437988281,-3.6080169677734375,-142.056640625
0,744375,42.039390563964844,113.22901153564453,28.201915740966797,-353.0076599121094
0,744378,-7.570137977600098,235.31761169433594,109.25746154785156,191.6410369873047
0,744379,93.40355682373047,50.39830780029297,8.770259857177734,357.46221923828125
0,744382,21.234638214111328,-34.44929504394531,-109.63892364501953,-182.14141845703125
0,744383,-138.9412384033203,-103.1352310180664,-52.30686569213867,-201.2825927734375
0,744386,-34.389530181884766,-37.758583068847656,83.139892578125,-107.8299331665039
0,744388,53.6234130859375,28.14536476135254,31.325855255126953,-18.428022384643555
0,744390,43.6836051940918,-12.628740310668945,-13.192734718322754,373.050048828125
0,744392,4.3433356285095215,-5.927731513977051,6.274641036987305,122.02378845214844
0,744394,-59.97304153442383,-30.997262954711914,-70.74658203125,-193.81459045410156
0,744396,-34.13623809814453,-33.54953384399414,-89.21357727050781,-107.20384216308594
0,744398,47.79433059692383,45.2028923034668,103.05525207519531,20.064083099365234
0,744400,40.86541748046875,52.31834030151367,121.49356842041016,33.97867965698242
0,744401,-35.52696990966797,-19.000843048095703,-72.20681762695312,-130.6027069091797
0,744404,-32.873165130615234,-34.26966857910156,-48.4495964050293,140.92483520507812
0,744405,10.769721031188965,3.761086940765381,44.4392204284668,187.34011840820312
0,744408,51.73605728149414,58.35443115234375,37.98255157470703,-232.4114227294922
0,744409,3.237839698791504,10.518077850341797,-6.416121482849121,-319.48602294921875
0,744412,-14.45887565612793,-62.736209869384766,-24.118694305419922,48.60368347167969
0,744413,-40.309627532958984,-57.59584045410156,-106.90779876708984,251.3150634765625
0,744417,-49.22901153564453,-7.66355562210083,-41.3551139831543,71.61849212646484
0,744418,50.24299621582031,27.501583099365234,139.74301147460938,30.268251419067383
0,744420,19.84717559814453,22.24241828918457,7.277237892150879,67.19143676757812
0,744422,9.979044914245605,19.747787475585938,-57.790077209472656,50.89500427246094
0,744424,8.111207962036133,30.2454833984375,19.549341201782227,-86.76558685302734
0,744426,31.30668067932129,124.53321075439453,67.44232177734375,-38.85702896118164
0,744428,-10.339590072631836,21.045068740844727,28.541383743286133,-92.83677673339844
0,744430,-87.15471649169922,-162.26895141601562,-77.02503204345703,-87.08073425292969
0,744432,80.50253295898438,-26.356754302978516,21.704744338989258,226.8150177001953
0,744434,31.60763168334961,5.386302471160889,-12.413413047790527,-5.5411057472229
0,744436,-148.36561584472656,-56.543121337890625,-92.6489486694336,-152.40301513671875
0,744438,22.111160278320312,11.249276161193848,68.29267883300781,63.25912857055664
0,744440,108.7072982788086,48.75126647949219,52.43667984008789,101.96905517578125
0,744442,-84.04286193847656,-12.72672176361084,-85.225830078125,-27.393482208251953
0,744444,-36.18341064453125,-10.84847640991211,-20.170015335083008,-49.75325012207031
0,744446,136.88478088378906,50.37077331542969,85.54459381103516,110.63236236572266
0,744448,65.41275024414062,-17.750627517700195,30.759544372558594,-47.798526763916016
0,744450,-51.05124282836914,-4.594923973083496,-39.983394622802734,-114.92122650146484
0,744452,-106.11444091796875,24.293724060058594,25.68108558654785,185.02484130859375
0,744454,-41.50254821777344,1.137437105178833,-9.348389625549316,-9.950191497802734
0,744456,82.23636627197266,43.1944580078125,-40.40199661254883,-345.4518737792969
0,744458,76.60282897949219,16.166913986206055,65.10369110107422,44.467445373535156
0,744460,-64.17986297607422,-62.12330627441406,-47.59101867675781,-447.2273864746094
0,744462,-88.78614044189453,-112.27600860595703,-117.17900848388672,-597.9893798828125
0,744464,19.831815719604492,-8.541431427001953,48.49618148803711,1329.33642578125
0,744466,29.76609992980957,142.06390380859375,76.34133911132812,1093.29443359375
0,744468,-3.1255602836608887,-8.70740032196045,27.658241271972656,-832.900390625
0,744470,8.775903701782227,-69.30675506591797,-2.9523773193359375,-632.83935546875
0,744472,74.68334197998047,118.00456237792969,-20.577415466308594,213.67506408691406
0,744474,-0.3861598074436188,96.44689178466797,-33.75630187988281,91.48999786376953
0,744476,-116.2388916015625,-113.42876434326172,-48.16828155517578,-44.73963165283203
0,744478,35.61107635498047,-157.10287475585938,128.54237365722656,179.96844482421875
0,744480,35.8187141418457,12.896215438842773,28.086383819580078,-205.89979553222656
0,744482,-95.368896484375,28.625225067138672,-204.08242797851562,-279.0668029785156
0,744484,38.48048782348633,13.435540199279785,39.65032196044922,648.3123168945312
0,744486,80.50540924072266,66.97181701660156,124.50249481201172,-70.94967651367188
0,744488,15.099821090698242,-20.353496551513672,-18.042984008789062,-834.9295654296875
0,744490,-14.790999412536621,-49.38690185546875,-16.67931365966797,257.2414855957031
0,744492,-22.636484146118164,44.85528564453125,-2.0282206535339355,297.40802001953125
0,744494,-58.12956619262695,8.499588012695312,-40.88646697998047,30.886056900024414
0,744496,-27.738494873046875,-58.29262924194336,-16.08850860595703,119.03272247314453
0,744498,144.6133575439453,58.92051696777344,91.98604583740234,-88.61865997314453
0,744500,0.051020894199609756,83.2463607788086,15.70218276977539,-40.4753303527832
0,744502,-149.566650390625,-42.55266189575195,-101.921875,14.518099784851074
0,744504,26.03550148010254,-24.62748908996582,-8.054908752441406,-65.55293273925781
0,744506,70.16191864013672,-7.266029357910156,61.279510498046875,-80.71815490722656
0,744508,18.786521911621094,-48.96819305419922,4.443856239318848,47.112979888916016
0,744510,-33.49385452270508,-2.460218667984009,-23.404836654663086,138.3917694091797
0,744512,-47.902252197265625,-0.24388526380062103,-61.62420654296875,-114.9358139038086
0,744514,23.939199447631836,-19.73019790649414,-50.0052375793457,-279.92340087890625
0,744516,11.761899948120117,66.76270294189453,94.05693817138672,167.1004638671875
0,744518,66.90994262695312,118.70196533203125,165.36167907714844,392.09033203125
0,744520,23.808515548706055,-74.6140365600586,-51.881431579589844,86.5755844116211
0,744522,-126.11112213134766,-126.66316986083984,-195.22994995117188,-199.8256072998047
0,744524,-49.43583297729492,53.95063781738281,38.16899871826172,-266.8092346191406
0,744526,21.24785804748535,38.45657730102539,98.9921646118164,-160.72769165039062
0,744528,31.935028076171875,-43.58086395263672,3.127504825592041,-31.514360427856445
0,744530,39.79513931274414,-56.60867691040039,-13.809669494628906,266.03271484375
0,744532,32.47538757324219,27.918867111206055,-29.048236846923828,365.3682861328125
0,744534,-24.936767578125,89.75288391113281,26.375133514404297,-149.74359130859375
0,744536,-39.99932861328125,23.21283721923828,19.909128189086914,-62.56317901611328
0,744538,94.11433410644531,-25.979185104370117,10.253657341003418,107.27937316894531
0,744540,0.33756521344184875,-19.998727798461914,-107.73934936523438,-272.2663879394531
0,744542,-131.821044921875,-35.827720642089844,-113.92632293701172,35.25099182128906
0,744544,30.521570205688477,-53.293907165527344,145.3185272216797,90.3254623413086
0,744546,64.9739990234375,13.948479652404785,81.01652526855469,-337.14801025390625
0,744548,-12.51646900177002,118.99955749511719,-57.04145812988281,121.40116882324219
0,744550,1.084919810295105,25.745716094970703,10.193291664123535,331.59716796875
0,744552,-3.204636335372925,-109.68180847167969,17.385364532470703,-151.71981811523438
0,744554,-41.25687026977539,8.611470222473145,-41.94526672363281,-41.27505111694336
0,744556,-44.27402877807617,43.36320495605469,-21.087026596069336,87.36967468261719
0,744558,123.15794372558594,10.501011848449707,124.68839263916016,-99.41677856445312
0,744560,16.56241798400879,-67.35292053222656,-24.034442901611328,-30.275442123413086
0,744562,-177.233642578125,-107.4024429321289,-144.8433837890625,19.466062545776367
0,744564,46.61663055419922,110.484375,2.860577344894409,3.7371835708618164
0,744566,122.29896545410156,92.75558471679688,47.86814880371094,70.59979248046875
0,744568,-0.6494258642196655,-38.21044921875,87.04334259033203,29.534372329711914
0,744570,-40.77763366699219,0.16894854605197906,-11.978551864624023,-29.84471893310547
0,744572,-43.74989700317383,-46.10325622558594,-57.14446258544922,-101.91873168945312
0,744574,-44.95332336425781,-38.01354217529297,-35.91313934326172,-40.86922836303711
0,744575,16.500892639160156,50.91819381713867,-34.991397857666016,146.57289123535156
0,744578,102.177001953125,13.367683410644531,145.1832733154297,-0.7823379039764404
0,744579,32.737274169921875,-22.74359703063965,86.12621307373047,-147.66392517089844
0,744582,-69.96858978271484,35.009952545166016,-143.39364624023438,112.82384490966797
0,744583,-43.702919006347656,21.874053955078125,-29.332168579101562,201.4655303955078
0,744586,26.897014617919922,-18.41031265258789,70.92747497558594,-120.92404174804688
0,744587,12.731305122375488,-28.912830352783203,-88.78295135498047,-6.197937965393066
0,744590,14.264437675476074,-10.107893943786621,-30.331180572509766,97.32404327392578
0,744591,-4.120062351226807,35.97123336791992,84.49906158447266,-147.1504669189453
0,744594,-68.41773986816406,-25.344736099243164,-58.19134521484375,-407.4982604980469
0,744595,-62.428768157958984,-55.21402359008789,-82.86744689941406,-178.14247131347656
0,744598,47.357173919677734,56.33648681640625,153.28604125976562,487.11456298828125
0,744599,104.56648254394531,43.70429992675781,155.5065460205078,298.18212890625
0,744602,11.152311325073242,-59.49633026123047,-168.74600219726562,97.2865982055664
0,744603,66.29119110107422,6.468434810638428,-107.43720245361328,-30.261837005615234
0,744606,-28.349979400634766,27.144317626953125,113.77874755859375,-360.1069030761719
0,744607,-157.72132873535156,-44.18520736694336,4.023914337158203,-36.77532196044922
0,744610,88.88671112060547,55.62596130371094,16.906829833984375,296.65008544921875
0,744611,46.65354919433594,74.50962829589844,34.075870513916016,64.93276977539062
0,744614,-172.2611846923828,-56.82078170776367,-121.31853485107422,-353.13153076171875
0,744615,-10.360013961791992,-21.528488159179688,-38.113040924072266,-412.61651611328125
0,744618,132.011962890625,-137.09637451171875,83.68437957763672,355.0472717285156
0,744619,19.970823287963867,-169.39459228515625,17.480182647705078,568.0487060546875
0,744622,-103.20758819580078,223.77084350585938,-44.503265380859375,-162.83349609375
0,744623,-10.571020126342773,203.33340454101562,-15.928441047668457,-346.0986633300781
0,744626,102.95304870605469,-72.10674285888672,61.398399353027344,-154.6220703125
0,744627,-20.28284454345703,-55.9942741394043,15.356816291809082,236.3837432861328
0,744632,43.665889739990234,-45.165740966796875,19.064125061035156,223.02957153320312
0,744632,105.08749389648438,-9.514786720275879,2.9049434661865234,-94.6156234741211
0,744634,-134.22149658203125,57.81752395629883,-98.44649505615234,75.29222106933594
0,744635,-86.99850463867188,16.92733383178711,-36.39183807373047,-34.34824752807617
0,744638,82.18400573730469,-1.7422503232955933,73.45011901855469,-347.5220031738281
0,744639,84.71790313720703,61.78671646118164,131.23780822753906,-62.21132278442383
0,744642,-60.88033676147461,-33.877220153808594,-83.43211364746094,50.850868225097656
0,744643,-164.5290069580078,-120.78804779052734,-179.64697265625,-300.51141357421875
0,744646,39.1642951965332,-7.906980514526367,111.26759338378906,257.3531494140625
0,744647,57.91252136230469,25.99144172668457,89.08942413330078,747.5084228515625
0,744650,4.607324600219727,44.48937225341797,-41.38304901123047,-334.06622314453125
0,744651,63.25739288330078,18.5261287689209,21.965410232543945,-521.4740600585938
0,744654,-44.25636291503906,-37.645137786865234,-62.00324630737305,416.4873046875
0,744655,-48.56325912475586,10.968287467956543,-81.97987365722656,193.9625244140625
0,744658,94.89392852783203,-1.3324782848358154,138.84274291992188,-126.80767059326172
0,744659,41.87821960449219,-16.040767669677734,114.28536224365234,-43.44062805175781
0,744662,-84.6610107421875,63.086578369140625,-163.9794921875,-120.0445785522461
0,744663,-16.53880500793457,16.969539642333984,-99.32649993896484,-19.325450897216797
0,744666,20.98582649230957,-84.55944061279297,92.32671356201172,-16.68149757385254
0,744667,-39.32843017578125,-29.670761108398438,19.069568634033203,-43.94449996948242
0,744670,4.8840508460998535,53.500511169433594,15.616823196411133,174.77374267578125
0,744671,45.49460983276367,34.199886322021484,31.275394439697266,56.255985260009766
0,744674,-21.81376075744629,-44.456851959228516,-87.21276092529297,-189.98544311523438
0,744675,-37.18709182739258,0.833754301071167,-36.44939422607422,-55.36811065673828
0,744678,59.166622161865234,46.033843994140625,142.2227783203125,126.86080169677734
0,744679,61.22102737426758,-14.487577438354492,64.21625518798828,144.09429931640625
0,744682,-87.47720336914062,-25.962026596069336,-167.8653564453125,-122.8412857055664
0,744683,-49.05425262451172,-7.745652675628662,-40.79934310913086,-87.905029296875
0,744686,79.62825775146484,27.546602249145508,105.87653350830078,80.70698547363281
0,744687,21.4705810546875,27.320110321044922,5.5828070640563965,-63.88743591308594
0,744690,-25.97444725036621,-85.29301452636719,-13.259282112121582,49.740665435791016
0,744691,-2.6441400051116943,-68.52003479003906,-30.248491287231445,98.20612335205078
0,744694,-56.14733123779297,90.95866394042969,-65.81172943115234,-68.09956359863281
0,744695,-49.233211517333984,74.51396179199219,6.893826961517334,-38.06053924560547
0,744698,82.97775268554688,-45.546199798583984,110.73632049560547,49.689300537109375
0,744699,124.11173248291016,29.419023513793945,64.94800567626953,-7.871455192565918
0,744702,12.415151596069336,45.60313034057617,-99.6613998413086,8.699563980102539
0,744703,-112.07760620117188,-77.84162139892578,-55.39933395385742,-52.134639739990234
0,744706,-74.14533996582031,-18.78463363647461,80.48993682861328,-96.43197631835938
0,744707,6.146554946899414,16.471403121948242,4.419590473175049,63.57773971557617
0,744710,43.5551872253418,-21.437986373901367,-33.895225524902344,43.363494873046875
0,744711,36.05903625488281,-9.047515869140625,-9.977465629577637,-64.02349090576172
0,744714,-48.582740783691406,17.917381286621094,-50.31838607788086,32.921173095703125
0,744715,-40.72355270385742,-18.213287353515625,-36.96889114379883,97.24620819091797
0,744718,81.41850280761719,-43.92219543457031,135.80113220214844,91.43746948242188
0,744719,84.7531509399414,25.058094024658203,127.15377807617188,115.35356140136719
0,744722,-79.35735321044922,114.12215423583984,-188.21458435058594,-152.71377563476562
0,744723,-99.7767562866211,109.03659057617188,-78.54598999023438,-248.30291748046875
0,744726,16.095703125,-97.23841857910156,142.65032958984375,-243.35787963867188
0,744727,40.80599594116211,-138.4669952392578,-27.407699584960938,-101.94989776611328
0,744730,42.37290573120117,-28.7725887298584,-76.21092987060547,418.8257751464844
0,744731,11.887925148010254,15.09643268585205,47.92073440551758,693.6016235351562
0,744734,-59.3472900390625,91.52591705322266,38.20309066772461,-472.863037109375
0,744735,-40.83971405029297,9.461313247680664,-75.29244995117188,-942.887451171875
0,744738,54.7779426574707,-74.74223327636719,47.854732513427734,688.69970703125
0,744739,86.7945327758789,15.184176445007324,136.6946563720703,566.6974487304688
0,744742,-59.51643371582031,48.64894104003906,-134.7302703857422,-264.65771484375
0,744743,-79.06770324707031,13.892632484436035,-104.20339965820312,-95.3943862915039
0,744746,80.72489929199219,-22.677326202392578,150.40501403808594,-147.95346069335938
0,744747,40.94378662109375,-33.762088775634766,23.030336380004883,-77.99713134765625
0,744750,-18.663360595703125,41.732418060302734,-50.775672912597656,37.18226623535156
0,744751,12.282719612121582,64.57776641845703,25.214942932128906,39.56001281738281
0,744754,-33.991554260253906,-23.085407257080078,-49.50359344482422,54.50040054321289
0,744755,-71.88714599609375,-37.98990249633789,-42.207340240478516,18.984020233154297
0,744758,45.683799743652344,-5.271883487701416,80.63842010498047,-55.0496711730957
0,744759,63.51314926147461,-41.33353805541992,18.668075561523438,-80.1864242553711
0,744762,-127.47014617919922,-72.32695770263672,-211.5846405029297,-117.71460723876953
0,744763,-47.67219924926758,3.227182388305664,-58.75160598754883,154.48199462890625
0,744766,123.25401306152344,107.69529724121094,275.02728271484375,328.2475280761719
0,744767,36.25071716308594,45.580745697021484,87.54369354248047,-139.83770751953125
0,744770,-5.583212852478027,-81.2096939086914,-102.79856872558594,-206.9851837158203
0,744771,4.547262191772461,-2.919715404510498,0.8367006182670593,109.37418365478516
0,744774,-40.949100494384766,58.736446380615234,-55.17226791381836,29.865808486938477
0,744775,-23.365093231201172,10.39151382446289,-58.962181091308594,-40.930213928222656
0,744778,53.18619918823242,6.507481575012207,108.73316955566406,-7.133360862731934
0,744779,35.57084274291992,-42.50965118408203,53.256752014160156,-107.95201110839844
0,744782,-91.00471496582031,-27.084095001220703,-118.7027587890625,-0.9359031319618225
0,744783,-36.636680603027344,23.96283721923828,-18.323070526123047,184.8060302734375
0,744786,91.52728271484375,-18.574674606323242,82.21076965332031,-21.00882911682129
0,744787,7.536978244781494,0.7024989128112793,-11.684236526489258,-91.2336654663086
0,744790,-34.86861038208008,6.1882429122924805,-30.104047775268555,-78.26708221435547
0,744791,6.356078624725342,9.523981094360352,18.142431259155273,22.83502769470215
0,744794,-25.11208152770996,53.016136169433594,-22.686691284179688,147.3313751220703
0,744795,-45.33320236206055,-64.16695404052734,-74.73418426513672,-112.1937255859375
0,744798,66.84359741210938,-34.62989044189453,115.90054321289062,-72.35391235351562
0,744799,105.7352066040039,112.48335266113281,144.75706481933594,163.16709899902344
0,744802,-123.41679382324219,-42.966800689697266,-214.6567840576172,10.404184341430664
0,744803,-93.66690063476562,-93.72184753417969,-98.44062805175781,-134.55682373046875
0,744806,107.70882415771484,58.0830078125,173.55325317382812,91.04508209228516
0,744807,20.518552780151367,34.42251968383789,-7.058129787445068,155.0196990966797
0,744810,-12.07962703704834,-25.364809036254883,-25.939237594604492,-99.1720199584961
0,744811,31.27488899230957,-15.438331604003906,36.83421325683594,-201.9840850830078
0,744814,-79.16223907470703,10.910628318786621,-53.67478561401367,39.12917709350586
0,744815,-66.5885009765625,27.92432403564453,-44.4106559753418,160.80296325683594
0,744818,138.5440673828125,11.27308177947998,99.4576187133789,-5.138363361358643
0,744819,76.02205657958984,-34.440834045410156,74.13317108154297,-65.06202697753906
0,744822,-127.13240051269531,-28.93117904663086,-173.38961791992188,-70.2899169921875
0,744823,-49.61045837402344,-7.34407901763916,-65.3331069946289,-27.491079330444336
0,744826,81.88517761230469,14.639033317565918,149.90524291992188,184.59010314941406
0,744827,32.49173355102539,57.14524841308594,34.313114166259766,63.47449493408203
0,744830,-31.8362979888916,-22.779909133911133,-35.172393798828125,-255.42803955078125
0,744831,5.755168437957764,-40.503108978271484,-14.775845527648926,-0.034713152796030045
0,744834,-48.57069778442383,35.83312225341797,-25.420578002929688,146.45989990234375
0,744835,-43.874717712402344,40.3648681640625,-23.360031127929688,-34.233314514160156
0,744838,78.55291748046875,-22.71868896484375,74.02115631103516,14.081442832946777
0,744839,27.447845458984375,-52.6347770690918,66.1161880493164,33.23515319824219
0,744842,-3.325226068496704,30.310115814208984,-146.29901123046875,-62.46315002441406
0,744843,1.4776979684829712,25.457120895385742,-49.32884979248047,-78.46439361572266
0,744846,-32.38536834716797,9.78494644165039,175.67144775390625,32.30830001831055
0,744847,-6.858639240264893,8.403416633605957,9.715363502502441,97.74435424804688
0,744850,2.3260915279388428,-79.05501556396484,-130.07789611816406,-16.047760009765625
0,744851,8.910313606262207,-19.921775817871094,16.15802574157715,-47.95833206176758
0,744854,-13.703646659851074,53.00498962402344,10.202966690063477,-29.0657958984375
0,744855,-19.24755096435547,11.528470039367676,-40.26308059692383,32.69800567626953
0,744860,-2.9974679946899414,-13.971593856811523,20.91326141357422,155.7357940673828
0,744860,12.334318161010742,-22.34393882751465,3.24579119682312,33.84745788574219
0,744861,30.788043975830078,11.35446834564209,41.895198822021484,-184.1005401611328
0,744864,-23.21769142150879,1.9629045724868774,7.305590629577637,-178.64039611816406
0,744865,-0.6664201617240906,3.5740833282470703,-21.314128875732422,98.0807113647461
0,744868,47.78902053833008,41.01749038696289,54.387393951416016,210.1361541748047
0,744869,-12.965231895446777,-16.648191452026367,7.182910442352295,-57.10357666015625
0,744872,23.833621978759766,-19.873781204223633,-12.552769660949707,-83.33380126953125
0,744873,-2.7181684970855713,4.931510925292969,-53.20310974121094,16.74981689453125
0,744876,-64.97503662109375,20.250228881835938,-37.978328704833984,1.235461950302124
0,744877,55.390159606933594,0.4776885211467743,100.59083557128906,-21.724529266357422
0,744880,6.236600399017334,-22.6436767578125,0.5160883665084839,-30.231216430664062
0,744881,-98.89263916015625,48.467567443847656,-107.62886047363281,66.37869262695312
0,744884,6.215015888214111,-44.32582092285156,-3.6704516410827637,-47.90119171142578
0,744885,52.64283752441406,-107.16902160644531,35.31061553955078,-120.05703735351562
0,744888,-15.920572280883789,38.049537658691406,24.50966453552246,236.19607543945312
0,744889,-5.104678153991699,101.25250244140625,-1.1161621809005737,159.33538818359375
0,744892,47.2823371887207,11.313998222351074,-4.388741970062256,-307.65765380859375
0,744893,-20.80657386779785,-49.97831344604492,-15.382854461669922,18.792329788208008
0,744896,-30.18889808654785,-12.727038383483887,-25.451927185058594,143.1637725830078
0,744897,82.06970977783203,9.260114669799805,100.26927947998047,-161.2209014892578
0,744900,-3.313861846923828,12.087455749511719,12.434184074401855,35.56447982788086
0,744901,-86.2880859375,23.938228607177734,-116.95155334472656,103.78375244140625
0,744904,-8.196160316467285,-18.6937255859375,-8.1624116897583,-75.9271240234375
0,744905,22.17629051208496,-14.340205192565918,58.366065979003906,-45.03023910522461
0,744908,31.343257904052734,45.931793212890625,40.13007354736328,-15.131587028503418
0,744909,2.268230438232422,-9.284728050231934,-40.67308044433594,-15.221537590026855
0,744912,-18.70383071899414,-106.20489501953125,-33.36796569824219,47.0338249206543
0,744913,0.32276758551597595,-9.698914527893066,4.160506248474121,105.94416046142578
0,744916,-11.30655574798584,114.88500213623047,17.915742874145508,52.871131896972656
0,744917,34.89045715332031,-1.211777925491333,91.18218231201172,-165.13143920898438
0,744920,21.340803146362305,-44.08490753173828,-32.13650894165039,-31.414522171020508
0,744921,-63.92097854614258,25.31401252746582,-126.19744110107422,124.76280212402344
0,744924,-16.193655014038086,19.113515853881836,38.314414978027344,-21.300851821899414
0,744925,37.67021560668945,-13.399673461914062,78.38209533691406,-89.0763931274414
0,744928,23.40751838684082,-15.776572227478027,-22.28672218322754,142.24002075195312
0,744929,-2.6765477657318115,28.961353302001953,-27.482280731201172,89.67742919921875
0,744932,-1.8328464031219482,-29.05059051513672,14.939284324645996,-247.96697998046875
0,744933,-22.092811584472656,-43.02629852294922,-62.02196502685547,-52.31889724731445
0,744936,-47.25260925292969,37.85148620605469,-16.01254653930664,106.93460083007812
0,744937,64.36498260498047,2.515639066696167,169.19610595703125,9.994007110595703
0,744940,43.60801696777344,-15.48844051361084,-12.735379219055176,57.718162536621094
0,744941,-89.56959533691406,21.86888885498047,-149.95016479492188,-12.108582496643066
0,744944,-10.974312782287598,-12.315000534057617,13.378462791442871,-148.2848358154297
0,744945,51.13673400878906,-41.03558349609375,19.337491989135742,28.284212112426758
0,744948,23.723634719848633,35.756771087646484,43.59446334838867,183.98370361328125
0,744949,-26.264202117919922,29.203990936279297,39.274513244628906,-21.12721061706543
0,744952,-9.418221473693848,-18.46671485900879,-39.9881477355957,-163.41384887695312
0,744953,18.386741638183594,15.256681442260742,-40.12230682373047,10.134782791137695
0,744956,-53.18692398071289,-3.4923484325408936,-9.42927074432373,132.23731994628906
0,744957,19.48979949951172,-10.234420776367188,107.33513641357422,-49.64549255371094
0,744960,50.515926361083984,35.21529769897461,26.77989387512207,-48.726905822753906
0,744961,-23.7208309173584,18.27309799194336,-111.59645080566406,87.54168701171875
0,744964,-30.615842819213867,-60.69847869873047,-56.20195007324219,-41.614227294921875
0,744965,1.5256493091583252,-34.2188606262207,18.89544105529785,39.93706512451172
0,744968,43.888275146484375,10.186355590820312,57.24689865112305,-74.84848022460938
0,744969,0.15150047838687897,37.785240173339844,34.31354904174805,-151.26683044433594
0,744972,-10.970295906066895,33.2759895324707,-0.5962907671928406,230.98355102539062
0,744973,-11.789968490600586,-35.898536682128906,-59.51079177856445,77.3739013671875
0,744976,-26.81035804748535,-15.690749168395996,-5.6894097328186035,-125.83995819091797
0,744977,73.38591003417969,14.563826560974121,104.2897720336914,8.953335762023926
0,744980,1.8936762809753418,-7.055593013763428,-47.175960540771484,-34.731239318847656
0,744981,-104.9727554321289,-7.601831912994385,-103.81584167480469,-36.51713180541992
0,744984,14.136466979980469,2.148135185241699,56.54402542114258,87.49526977539062
0,744985,53.31535339355469,4.737099647521973,54.0682258605957,87.71005249023438
0,744988,34.13631057739258,14.083277702331543,0.2742287218570709,-52.534183502197266
0,744989,20.733646392822266,4.719649314880371,-23.75177574157715,-134.37643432617188
0,744992,-68.40716552734375,-15.381237030029297,-23.724016189575195,14.108394622802734
0,744993,-51.928955078125,-26.81620216369629,-12.729445457458496,83.51313018798828
0,744996,35.452396392822266,39.278411865234375,11.38245964050293,3.7538034915924072
0,744997,33.669105529785156,37.184326171875,82.17842102050781,15.382124900817871
0,745000,-24.325254440307617,-74.39578247070312,-67.52587890625,-172.33009338378906
0,745001,-16.659311294555664,-12.721349716186523,-113.24862670898438,-111.34355163574219
0,745004,35.36186981201172,82.1396484375,95.3526611328125,288.29315185546875
0,745005,4.09684419631958,-4.458794593811035,73.44709777832031,113.65542602539062
0,745008,5.521219253540039,-23.82272720336914,-16.73127555847168,-151.4783935546875
0,745009,0.6671703457832336,21.458637237548828,-40.27890396118164,-65.0641860961914
0,745012,-11.500077247619629,-40.218441009521484,15.385255813598633,194.5020751953125
0,745013,-8.537029266357422,-57.89352798461914,-55.328163146972656,-122.28158569335938
0,745016,-32.445865631103516,10.013264656066895,-77.3903579711914,-293.3708801269531
0,745017,51.64661407470703,26.511754989624023,184.37364196777344,388.0794372558594
0,745020,32.269378662109375,10.769819259643555,26.448707580566406,75.2920150756836
0,745021,-74.43925476074219,34.57783508300781,-154.5869140625,-205.21141052246094
0,745024,-21.273664474487305,1.900777816772461,39.748722076416016,69.74111938476562
0,745025,38.41424560546875,-25.478605270385742,69.93266296386719,-69.32952117919922
0,745028,35.99049377441406,15.671060562133789,-30.608060836791992,-78.9449234008789
0,745029,19.181657791137695,36.010440826416016,-18.7363338470459,-0.13873250782489777
0,745032,-20.86495590209961,-6.492433547973633,17.17747688293457,69.54545593261719
0,745033,-63.03048324584961,-62.2857551574707,-76.24744415283203,51.85285949707031
0,745036,11.942696571350098,29.003849029541016,20.110767364501953,84.20415496826172
0,745037,96.60216522216797,53.84537124633789,135.97171020507812,0.7672680020332336
0,745040,-37.51046371459961,-86.69920349121094,-87.71588134765625,-188.8774871826172
0,745041,-92.95841979980469,-30.1366024017334,-99.22722625732422,33.562252044677734
0,745044,30.2508602142334,51.35847091674805,65.33950805664062,103.79824829101562
0,745045,11.557010650634766,-15.241701126098633,40.136783599853516,-51.994598388671875
0,745048,-16.317113876342773,14.973688125610352,32.070316314697266,-47.787841796875
0,745049,40.77809524536133,30.02055549621582,-15.968253135681152,-69.44493103027344
0,745052,-8.160069465637207,-35.5377311706543,-54.0651969909668,67.67642211914062
0,745053,-53.75099182128906,-7.95344877243042,-42.40362548828125,56.194095611572266
0,745056,35.08232116699219,53.37211608886719,34.98304748535156,-53.87742614746094
0,745057,82.81456756591797,6.930121898651123,145.60092163085938,66.04869079589844
0,745060,-20.116607666015625,-50.56290054321289,-59.865386962890625,-31.880924224853516
0,745061,-72.31753540039062,-11.322110176086426,-136.15719604492188,-74.03401947021484
0,745064,0.36921775341033936,17.306228637695312,62.885093688964844,91.6402816772461
0,745065,52.9947395324707,15.761221885681152,64.52105712890625,53.049312591552734
0,745068,4.383652687072754,-25.951200485229492,-13.95654010772705,-1.0638827085494995
0,745069,-36.74302291870117,-16.661884307861328,-27.839656829833984,-40.44620132446289
0,745072,5.775845050811768,39.25772476196289,11.472362518310547,-76.24817657470703
0,745073,-6.673008918762207,6.102841377258301,-31.647573471069336,39.79581832885742
0,745076,-15.738601684570312,-8.18546199798584,1.169650912284851,52.50550079345703
0,745077,50.50450134277344,-22.026546478271484,110.82962799072266,-8.862591743469238
0,745080,4.777383327484131,-5.7890729904174805,-79.05644989013672,-89.23873901367188
0,745081,-63.2530632019043,36.35627746582031,-125.03175354003906,-53.12418746948242
0,745084,9.742230415344238,-15.158546447753906,70.26493835449219,135.3217315673828
0,745085,30.213010787963867,-23.455913543701172,65.39562225341797,152.72714233398438
0,745088,24.14284324645996,16.38130760192871,-2.401371955871582,-37.55704116821289
0,745089,2.7796003818511963,-8.709776878356934,-32.85922622680664,-186.4461669921875
0,745092,-47.59967041015625,-4.154562950134277,-2.123492479324341,-44.627838134765625
0,745093,-18.713817596435547,32.932899475097656,-15.997410774230957,25.901018142700195
0,745099,11.422708511352539,5.670777320861816,-7.400460243225098,41.668663024902344
0,745099,24.46983528137207,-22.953750610351562,60.275997161865234,67.97863006591797
0,745100,-29.245431900024414,-17.61803436279297,-66.80272674560547,-41.124515533447266
0,745102,-3.939115047454834,9.305641174316406,-29.726642608642578,-69.45188903808594
0,745104,51.12054443359375,24.459924697875977,101.54132843017578,37.5931282043457
0,745106,8.88840103149414,-0.6611446738243103,31.907421112060547,92.67832946777344
0,745108,-23.075611114501953,-24.1314754486084,-33.13013458251953,-67.0779037475586
0,745110,-33.29241943359375,8.77412223815918,-32.77479934692383,-10.89547348022461
0,745112,42.75788879394531,28.563636779785156,16.93581199645996,55.879150390625
0,745114,-9.521288871765137,-24.799428939819336,-50.3673095703125,-55.87198257446289
0,745116,-29.162738800048828,-3.6807785034179688,22.69757080078125,34.69260025024414
0,745118,90.68585968017578,26.096290588378906,130.7356414794922,-19.645105361938477
0,745120,-72.07315826416016,-6.043923854827881,-108.22543334960938,-67.2619400024414
0,745122,-84.14822387695312,-5.386059284210205,-105.8593521118164,76.64007568359375
0,745124,88.68646240234375,-15.601428985595703,68.77996826171875,-5.882972717285156
0,745126,-4.71929931640625,-34.66899871826172,25.884803771972656,-52.73077392578125
0,745128,23.847261428833008,39.56854248046875,16.650651931762695,8.229902267456055
0,745130,46.3187141418457,37.83888626098633,7.759981632232666,-22.794588088989258
0,745132,-57.692691802978516,-33.37549591064453,-8.955057144165039,94.45671081542969
0,745134,-31.451717376708984,-8.256696701049805,-54.95585632324219,52.12675094604492
0,745136,11.516491889953613,-27.722978591918945,10.176512718200684,-56.620967864990234
0,745138,55.10654067993164,-1.4357291460037231,120.91507720947266,15.50046443939209
0,745140,-29.796993255615234,27.04952049255371,-78.35920715332031,-90.295654296875
0,745142,-73.26178741455078,-7.581888198852539,-95.68628692626953,18.37461280822754
0,745144,38.70608139038086,30.55229377746582,67.49484252929688,113.9098892211914
0,745146,32.279850006103516,-11.389636993408203,44.90291213989258,-128.3839569091797
0,745148,12.444792747497559,-27.411388397216797,18.66673469543457,-37.08533477783203
0,745150,1.998169183731079,43.630348205566406,-20.86954689025879,120.40431213378906
0,745152,-46.82196807861328,-16.77759552001953,-53.918235778808594,-13.31623649597168
0,745154,-48.66614532470703,-50.45097732543945,-65.49787139892578,49.0855598449707
0,745156,49.776405334472656,19.75993537902832,86.3385238647461,23.322288513183594
0,745158,79.96125030517578,39.07489013671875,150.7372589111328,-194.128173828125
0,745160,-59.795772552490234,-6.547942161560059,-141.39727783203125,-125.9525375366211
0,745162,-43.15684509277344,-12.08008098602295,-117.10585021972656,137.15928649902344
0,745164,36.849422454833984,19.29238510131836,103.81671142578125,213.88438415527344
0,745166,15.668506622314453,6.776669502258301,43.371620178222656,-61.3723258972168
0,745168,8.380470275878906,-16.011619567871094,5.569419860839844,-95.37446594238281
0,745170,-17.013967514038086,-27.443735122680664,-3.0949559211730957,16.644088745117188
0,745172,-11.43741226196289,-1.7138525247573853,-54.91578674316406,69.76506042480469
0,745174,-16.93317222595215,23.16857147216797,-45.98707580566406,110.32321166992188
0,745176,29.474699020385742,7.8701019287109375,67.09293365478516,-204.42971801757812
0,745178,95.80118560791016,9.289969444274902,97.38345336914062,-168.2388153076172
0,745180,-79.07433319091797,-6.761756420135498,-101.65291595458984,227.7502899169922
0,745182,-115.36088562011719,-26.45772933959961,-121.57192993164062,63.87462615966797
0,745184,73.69973754882812,5.604769706726074,97.99951934814453,-103.79052734375
0,745186,55.883697509765625,23.69013786315918,108.32841491699219,-2.7914936542510986
0,745188,-26.269977569580078,1.0044951438903809,-21.338443756103516,-33.421443939208984
0,745190,-28.25925064086914,-4.1670026779174805,-28.45231056213379,44.29215621948242
0,745192,-1.691748023033142,-10.180020332336426,-61.824180603027344,19.351781845092773
0,745194,1.6896946430206299,-15.251835823059082,-71.6613540649414,-76.9584732055664
0,745196,4.608785152435303,26.486656188964844,116.17669677734375,64.9775161743164
0,745198,64.03451538085938,25.34971046447754,130.90122985839844,69.6803207397461
0,745200,-11.946746826171875,-32.67489242553711,-147.97666931152344,-43.69755554199219
0,745202,-70.57637786865234,-21.78351593017578,-113.48174285888672,34.49721145629883
0,745204,18.674819946289062,2.2637202739715576,93.90621185302734,36.117740631103516
0,745206,32.43707275390625,-22.941038131713867,9.888147354125977,-154.61399841308594
0,745208,21.458986282348633,33.78788757324219,30.421987533569336,-37.29277801513672
0,745210,-21.18937110900879,34.07926559448242,35.13878631591797,99.78764343261719
0,745212,-42.15684127807617,-34.966094970703125,-81.96410369873047,-55.35770034790039
0,745214,-16.603771209716797,0.6265875101089478,-25.50690269470215,-6.265953063964844
0,745216,33.48342514038086,10.82771110534668,68.63858032226562,76.33238983154297
0,745218,72.52098083496094,-15.570242881774902,85.54424285888672,26.10157585144043
0,745220,-59.560638427734375,-4.916058540344238,-91.00006866455078,-28.857879638671875
0,745222,-66.39599609375,-0.9688259363174438,-113.59780883789062,-34.03681182861328
0,745224,52.90625,2.4012644290924072,92.88191223144531,16.73431396484375
0,745226,55.362064361572266,37.42713928222656,88.52118682861328,46.24679946899414
0,745228,-3.401242733001709,20.817983627319336,-21.164331436157227,27.188901901245117
0,745230,-46.243221282958984,-29.769418716430664,-61.57168197631836,-32.293888092041016
0,745232,-24.660226821899414,-45.35608673095703,-40.62215805053711,-138.9727020263672
0,745234,-35.074031829833984,8.99116039276123,-20.798519134521484,-48.13700866699219
0,745236,60.090824127197266,43.44257354736328,92.37728881835938,188.70924377441406
0,745238,108.87049865722656,-16.4971981048584,101.64907836914062,46.9809684753418
0,745240,-104.0380859375,5.259964466094971,-130.40634155273438,-88.56646728515625
0,745242,-100.85716247558594,14.410176277160645,-90.87290954589844,32.16697311401367
0,745244,54.79866409301758,-34.848411560058594,74.08330535888672,-56.28669357299805
0,745246,57.810245513916016,-15.41601848602295,16.444868087768555,-91.42928314208984
0,745248,24.231508255004883,7.901873588562012,3.7725517749786377,90.45624542236328
0,745250,-33.16016387939453,19.895832061767578,55.7562255859375,107.35598754882812
0,745252,-18.1418514251709,21.329803466796875,-36.41325378417969,-26.021347045898438
0,745254,-21.49441146850586,-17.46702003479004,-104.21257781982422,-97.47925567626953
0,745256,15.5343017578125,-17.36937141418457,80.07892608642578,0.7313846349716187
0,745258,105.03727722167969,-2.8215177059173584,127.06195068359375,120.07141876220703
0,745260,-42.7879524230957,-4.461531162261963,-120.38526916503906,-4.366355895996094
0,745262,-90.50902557373047,30.143077850341797,-90.07930755615234,-146.85792541503906
0,745264,37.10847473144531,2.458071708679199,101.4375228881836,0.5221100449562073
0,745266,12.984082221984863,-25.74413299560547,47.17788314819336,91.37674713134766
0,745268,21.3759708404541,-8.82363224029541,-32.29543685913086,17.83738899230957
0,745270,6.9447832107543945,-1.1644887924194336,-15.61966323852539,-16.9883975982666
0,745272,-66.0130844116211,25.195343017578125,-13.437560081481934,-29.439990997314453
0,745274,-15.84463882446289,21.555782318115234,-83.37428283691406,-2.2346384525299072
0,745276,49.682220458984375,-14.300162315368652,39.037017822265625,-8.845686912536621
0,745278,76.5691146850586,-24.6024169921875,154.2821044921875,-17.305347442626953
0,745280,-49.82319259643555,25.56678581237793,-104.70750427246094,14.558298110961914
0,745282,-103.97186279296875,8.530716896057129,-124.02523040771484,23.43764877319336
0,745284,47.574405670166016,-34.28224182128906,111.89043426513672,11.446139335632324
0,745286,65.30339813232422,16.289201736450195,83.28590393066406,-21.602842330932617
0,745288,4.075409889221191,26.242027282714844,-24.860435485839844,21.1535701751709
0,745290,-6.086744785308838,-14.017663955688477,-57.25949478149414,50.29404830932617
0,745292,-34.18708801269531,-31.42458724975586,-50.7916145324707,-76.93546295166016
0,745294,-70.81920623779297,-4.533097743988037,-14.459516525268555,-40.484092712402344
0,745296,31.866043090820312,23.617374420166016,100.38341522216797,70.21663665771484
0,745298,113.73150634765625,2.533905506134033,87.63194274902344,12.096012115478516
0,745300,-53.48847198486328,2.516984701156616,-99.65632629394531,17.475584030151367
0,745302,-80.2074203491211,0.9095717072486877,-77.1572494506836,-6.883886814117432
0,745304,54.46723556518555,-14.885579109191895,34.819637298583984,-89.53794860839844
0,745306,16.18400001525879,-8.16719913482666,35.82088088989258,-19.811046600341797
0,745308,2.884956121444702,2.3253352642059326,40.960208892822266,98.18515014648438
0,745310,13.828507423400879,27.46894073486328,-18.66917610168457,53.021392822265625
0,745311,-53.184349060058594,-11.601601600646973,-77.92027282714844,-76.69389343261719
0,745314,-25.606489181518555,-8.10991382598877,-19.854711532592773,-28.770719528198242
0,745315,20.473772048950195,31.612279891967773,20.33578109741211,29.59136199951172
0,745318,73.32847595214844,-35.45804977416992,97.46196746826172,6.20304536819458
0,745319,44.380130767822266,-31.70206069946289,48.230064392089844,-13.439179420471191
0,745322,-105.71823120117188,28.835124969482422,-155.1437225341797,-83.36241912841797
0,745323,-38.75554656982422,13.075852394104004,-22.42391586303711,54.96977233886719
0,745326,70.15446472167969,5.747590065002441,118.0842514038086,115.20663452148438
0,745327,-9.369831085205078,-13.385772705078125,-29.85455322265625,-52.92505645751953
0,745330,-20.905099868774414,-37.17427444458008,-5.720221519470215,-75.72943878173828
0,745331,34.31712341308594,31.348407745361328,39.17784118652344,-51.201683044433594
0,745334,-26.845396041870117,50.00882339477539,-82.00162506103516,8.613243103027344
0,745335,-76.08102416992188,-34.61224365234375,-71.26428985595703,67.33692932128906
0,745338,90.66575622558594,-29.015775680541992,139.11981201171875,52.78554153442383
0,745339,136.9193115234375,52.52568817138672,113.87200164794922,180.4305419921875
0,745342,-124.7825698852539,19.174705505371094,-148.82489013671875,-53.0767707824707
0,745343,-91.25767517089844,-59.09163284301758,-46.80548858642578,-314.770751953125
0,745349,112.51434326171875,-23.7034969329834,127.0217514038086,84.6292953491211
0,745349,25.16268539428711,21.015254974365234,0.3868681490421295,122.4347152709961
0,745350,-54.87993621826172,11.540427207946777,-75.05360412597656,-56.65038299560547
0,745352,-22.945880889892578,18.878578186035156,-10.825397491455078,12.986162185668945
0,745353,-41.038700103759766,-6.70058536529541,-56.201053619384766,-37.67290496826172
0,745356,-7.450745105743408,-17.02456283569336,16.355825424194336,-16.29405975341797
0,745357,118.16464233398438,24.35811996459961,153.83848571777344,65.87065887451172
0,745360,24.078872680664062,4.60006046295166,-89.30516815185547,-11.25230884552002
0,745361,-132.8138885498047,-27.644920349121094,-121.94071960449219,-47.99197769165039
0,745364,-19.5064697265625,-8.336491584777832,86.09735870361328,3.38519549369812
0,745365,78.39327239990234,16.1468505859375,25.705018997192383,20.17531394958496
0,745368,12.570645332336426,6.8776726722717285,-19.390438079833984,62.42335891723633
0,745369,-29.059537887573242,-16.271657943725586,7.112311840057373,31.329727172851562
0,745372,14.58121109008789,-9.582268714904785,13.014102935791016,-45.44331741333008
0,745373,4.385319232940674,15.873575210571289,-25.23199462890625,-26.104534149169922
0,745376,-26.74055290222168,-0.877769410610199,-5.352519989013672,-46.29593276977539
0,745377,57.29314041137695,-25.78343963623047,104.15557098388672,-50.6088752746582
0,745380,-1.4962860345840454,23.65784454345703,-5.808549404144287,81.86416625976562
0,745381,-94.54302978515625,24.698925018310547,-139.1432342529297,38.178466796875
0,745384,21.862977981567383,-5.912337779998779,18.92087745666504,28.0723876953125
0,745385,64.41748046875,6.317833423614502,85.72798919677734,19.78912925720215
0,745388,-2.9415082931518555,-14.305102348327637,-29.23397445678711,-117.8609848022461
0,745389,-30.905153274536133,3.7237534523010254,-24.186368942260742,-2.654644727706909
0,745392,4.426734924316406,-7.4966583251953125,20.77750587463379,72.08563995361328
0,745393,-1.9767827987670898,-15.597780227661133,-13.406716346740723,11.00422191619873
0,745396,7.56818151473999,14.983990669250488,-9.259369850158691,-77.21897888183594
0,745397,60.252052307128906,-28.623247146606445,76.87953186035156,-118.5411148071289
0,745400,-35.82932662963867,21.513200759887695,-2.2656266689300537,139.7881317138672
0,745401,-82.69800567626953,27.544282913208008,-84.3015365600586,128.99868774414062
0,745404,-2.0713207721710205,-33.857948303222656,0.2945599853992462,-227.43943786621094
0,745405,48.608882904052734,27.123035430908203,33.27137756347656,-49.271087646484375
0,745408,29.37303924560547,-21.769695281982422,6.186656475067139,387.01202392578125
0,745409,-7.598003387451172,-24.65106964111328,-12.896342277526855,61.47252655029297
0,745412,4.372386455535889,49.13587188720703,-1.6200008392333984,-443.12420654296875
0,745413,-58.16145324707031,-12.114873886108398,-53.564815521240234,-139.00523376464844
0,745416,9.00001049041748,2.8149449825286865,25.447235107421875,286.77313232421875
0,745417,104.95088958740234,27.159317016601562,134.2372589111328,206.7293701171875
0,745420,-70.7439193725586,-45.329185485839844,-78.95037078857422,-116.65306854248047
0,745421,-70.09797668457031,-24.184423446655273,-122.00813293457031,-123.98452758789062
0,745424,46.81021499633789,34.897804260253906,54.47170639038086,12.565021514892578
0,745425,16.193695068359375,8.491164207458496,56.164878845214844,-14.295548439025879
0,745428,13.29270076751709,-7.688632965087891,24.737071990966797,52.97723388671875
0,745429,12.525947570800781,12.85856819152832,-14.549539566040039,5.4602556228637695
0,745432,-8.211087226867676,-19.1262264251709,-21.17556381225586,-4.198722839355469
0,745433,-39.68617248535156,-25.599231719970703,-41.722408294677734,92.00588989257812
0,745436,0.8639710545539856,34.25054931640625,-4.014800071716309,-126.90150451660156
0,745437,86.70577239990234,18.126249313354492,111.21792602539062,-115.31027221679688
0,745440,-26.456174850463867,-20.568225860595703,-32.508544921875,166.3484344482422
0,745441,-99.48007202148438,-0.7703345417976379,-118.17210388183594,109.27033233642578
0,745444,40.35013961791992,-4.563531875610352,57.18842697143555,-57.784202575683594
0,745445,34.76105880737305,-24.379249572753906,74.17587280273438,-163.63433837890625
0,745448,1.3721061944961548,20.582019805908203,-11.96187686920166,6.361304759979248
0,745449,18.918228149414062,22.64923858642578,-17.14496421813965,151.40399169921875
0,745452,-30.48861312866211,-15.494485855102539,-28.251224517822266,-42.68128967285156
0,745453,-16.103116989135742,25.013172149658203,-15.369078636169434,-58.541847229003906
0,745456,12.557798385620117,-3.9411468505859375,52.66081237792969,39.64885711669922
0,745457,41.356876373291016,-47.127159118652344,58.329994201660156,-33.61153030395508
0,745460,-2.7495980262756348,31.385725021362305,-77.4969711303711,16.744956970214844
0,745461,-71.32735443115234,22.429378509521484,-105.15867614746094,57.20051193237305
0,745464,2.8470101356506348,-36.40967559814453,33.537723541259766,-61.25345993041992
0,745465,45.85148239135742,7.9745869636535645,74.78092956542969,-64.8724136352539
0,745468,35.9771728515625,12.462258338928223,35.35598373413086,42.48379898071289
0,745469,-18.553924560546875,-28.315624237060547,-28.630294799804688,69.13453674316406
0,745472,-68.36614990234375,-1.6149135828018188,-19.54769515991211,3.5750465393066406
0,745473,-32.146453857421875,36.75248718261719,-34.7718620300293,-50.54885482788086
0,745476,30.66390037536621,5.104317665100098,-6.482138633728027,-1.0875099897384644
0,745477,95.05455780029297,-31.969959259033203,133.4782257080078,64.48247528076172
0,745480,-32.42591094970703,-16.20421600341797,-42.739540100097656,-38.418766021728516
0,745481,-94.88114929199219,-12.958964347839355,-117.94007110595703,-0.16674189269542694
0,745484,55.831512451171875,22.026025772094727,51.31401062011719,25.53658676147461
0,745485,63.812896728515625,43.803768157958984,37.739830017089844,-194.00157165527344
0,745488,-23.64133071899414,-8.871625900268555,-20.474422454833984,5.698219299316406
0,745489,-48.719051361083984,-18.733064651489258,-27.670757293701172,219.25291442871094
0,745492,16.584487915039062,-12.251612663269043,10.539922714233398,-12.474388122558594
0,745493,0.5975369215011597,5.386261940002441,-25.609130859375,11.120322227478027
0,745496,-24.885902404785156,8.87932014465332,21.309707641601562,2.2991926670074463
0,745497,78.00006103515625,-20.035846710205078,123.59374237060547,-95.4666976928711
0,745500,-11.404489517211914,9.024321556091309,-62.87289810180664,91.62686920166016
0,745501,-88.64180755615234,22.17336082458496,-118.34235382080078,-4.748871326446533
0,745504,27.69701385498047,0.29708221554756165,59.61259078979492,-192.229248046875
0,745505,49.81423568725586,8.230045318603516,103.27458190917969,19.204055786132812
0,745508,21.98920249938965,-1.6396970748901367,3.5026113986968994,142.2059783935547
0,745509,-20.007823944091797,-20.520755767822266,-107.63232421875,60.41374588012695
0,745512,-43.21025466918945,-19.448589324951172,-31.823001861572266,-119.53466033935547
0,745513,-22.483659744262695,18.642562866210938,27.546728134155273,-89.97735595703125
0,745516,9.150078773498535,16.930044174194336,-0.2593247592449188,116.23624420166016
0,745517,85.71701049804688,-25.778182983398438,42.00547409057617,20.939651489257812
0,745520,-7.5059332847595215,6.084393501281738,-30.146137237548828,25.502342224121094
0,745521,-110.8045883178711,15.923582077026367,-62.827693939208984,-0.5748039484024048
0,745524,24.398807525634766,2.72177791595459,84.566162109375,-79.87883758544922
0,745525,66.47586059570312,-14.427257537841797,75.67710876464844,34.93415069580078
0,745528,2.713650941848755,-12.545171737670898,-39.264408111572266,14.739270210266113
0,745529,6.0380144119262695,24.43979263305664,-38.280479431152344,26.378652572631836
0,745532,-12.603753089904785,-6.1033782958984375,8.72188663482666,47.91393280029297
0,745533,-70.37914276123047,-35.3038330078125,-50.563926696777344,-98.69707489013672
0,745536,18.855173110961914,-2.851259469985962,-15.703435897827148,-130.0508270263672
0,745537,98.22318267822266,22.525299072265625,134.97718811035156,102.57007598876953
0,745540,-68.68024444580078,-12.720680236816406,-73.02066040039062,118.08934020996094
0,745541,-89.16055297851562,-5.511796951293945,-138.9447021484375,-103.56300354003906
0,745544,65.92283630371094,59.730655670166016,121.6047134399414,9.135985374450684
0,745545,67.64930725097656,6.926817417144775,80.40258026123047,95.61180877685547
0,745548,-43.2600212097168,-67.54151916503906,-44.36455154418945,-79.8147964477539
0,745549,-56.43704605102539,16.91192626953125,-28.643306732177734,-26.66046905517578
0,745552,44.7909049987793,51.67928695678711,4.868338584899902,100.99310302734375
0,745553,26.964784622192383,-23.345096588134766,-50.162357330322266,-43.52880859375
0,745556,-26.054794311523438,-9.933821678161621,14.07198715209961,-136.64691162109375
0,745557,34.15618896484375,7.689780235290527,139.12060546875,92.48751831054688
0,745560,-14.369688987731934,-30.352903366088867,-93.03604125976562,97.64248657226562
0,745561,-59.588043212890625,7.700043678283691,-110.85970306396484,-166.23609924316406
0,745564,49.67876052856445,45.7244758605957,108.89209747314453,41.14220428466797
0,745565,42.855342864990234,-20.58510398864746,20.817707061767578,130.05911254882812
0,745568,-26.361709594726562,-44.216129302978516,-25.019508361816406,-70.62353515625
0,745569,-29.962080001831055,-3.9962615966796875,7.664155960083008,-51.00775146484375
0,745572,-11.116604804992676,10.851945877075195,-52.1254768371582,-8.453902244567871
0,745573,-8.713711738586426,18.455602645874023,-40.35494613647461,38.03529357910156
0,745576,39.30405044555664,37.5981559753418,98.11573028564453,-24.009809494018555
0,745577,89.72027587890625,3.6163880825042725,119.35546112060547,19.861337661743164
0,745580,-63.61631774902344,-41.712154388427734,-131.36277770996094,65.352783203125
0,745581,-86.01565551757812,5.8242058753967285,-125.77641296386719,-72.236328125
0,745584,35.13812255859375,10.321950912475586,103.28701782226562,-27.719213485717773
0,745585,16.96623420715332,-35.579071044921875,39.29209899902344,67.73733520507812
0,745588,5.994135856628418,-9.821191787719727,-25.209938049316406,-9.01191234588623
0,745589,-11.38272762298584,21.188695907592773,-5.676815509796143,-25.93944549560547
0,745592,21.454242706298828,26.812103271484375,-10.33285140991211,34.14518737792969
0,745593,-29.795963287353516,-10.656167030334473,-29.988916397094727,-4.326360702514648
0,745596,-31.35651969909668,-26.976776123046875,43.34119415283203,-44.24861145019531
0,745597,115.01250457763672,22.2112979888916,105.25215148925781,-16.717193603515625
0,745600,-65.31797790527344,-11.660333633422852,-111.00080871582031,52.36982727050781
1,745601,-101.92781066894531,-11.373435974121094,-102.85230255126953,3.0337960720062256
1,745604,73.42171478271484,53.98272705078125,119.76593017578125,-36.34833908081055
1,745608,54.56277847290039,-20.41345977783203,59.46851348876953,48.11112976074219
1,745608,19.822795867919922,-31.587745666503906,-14.941393852233887,5.085907936096191
1,745609,-37.09254837036133,42.25060272216797,-25.47404670715332,-58.5511360168457
1,745612,-34.45872116088867,-16.914194107055664,-66.85408782958984,-10.409768104553223
1,745613,-18.860118865966797,-32.049530029296875,-42.45084762573242,-83.67656707763672
1,745616,42.48090362548828,29.559005737304688,80.03239440917969,58.43132781982422
1,745617,69.4620132446289,21.87146759033203,109.75979614257812,232.51377868652344
1,745620,-69.51073455810547,-23.6246395111084,-126.77007293701172,-164.456787109375
1,745621,-56.841156005859375,-36.24092483520508,-110.69737243652344,-138.03558349609375
1,745624,45.43069839477539,30.852724075317383,94.57960510253906,181.30445861816406
1,745625,19.043636322021484,35.320404052734375,74.74190521240234,-73.87586975097656
1,745628,-13.466134071350098,-30.997081756591797,6.933569431304932,-53.458988189697266
1,745629,10.081157684326172,3.0819857120513916,-35.57120132446289,157.50762939453125
1,745632,-9.336431503295898,4.768796920776367,-39.22823715209961,-21.173871994018555
1,745633,-62.12384033203125,-34.36174774169922,-41.94186019897461,-71.37972259521484
1,745636,48.872920989990234,26.176624298095703,87.88361358642578,9.916143417358398
1,745637,94.43684387207031,16.76154136657715,100.67527770996094,141.30503845214844
1,745640,-76.00848388671875,-39.553829193115234,-145.5377197265625,-39.45985794067383
1,745641,-92.13042449951172,7.094072341918945,-77.42926025390625,-312.2624206542969
1,745644,66.05570220947266,1.0691959857940674,89.33091735839844,82.14169311523438
1,745645,113.6738052368164,30.274633407592773,73.65264892578125,233.76947021484375
1,745648,-21.601123809814453,24.458677291870117,9.13329792022705,-49.385658264160156
1,745649,-74.22244262695312,-66.50914764404297,-71.00910186767578,-111.88278198242188
1,745652,-14.67581558227539,13.182558059692383,-56.85948181152344,-0.05493959039449692
1,745653,-25.73593521118164,29.13585090637207,-13.25597858428955,83.65145111083984
1,745656,38.29970169067383,-20.178199768066406,106.48926544189453,57.68228530883789
1,745657,67.4298324584961,8.354827880859375,112.35482788085938,-14.738765716552734
1,745660,-76.18272399902344,12.666357040405273,-148.28778076171875,-57.17534255981445
1,745661,-45.71467208862305,15.126640319824219,-111.67373657226562,-12.406439781188965
1,745664,28.56342315673828,-50.0308952331543,88.11335754394531,-22.443321228027344
1,745665,26.04175567626953,-11.21981430053711,42.559688568115234,11.125249862670898
1,745668,67.92483520507812,63.799400329589844,18.18209457397461,62.64669418334961
1,745669,-17.025089263916016,-33.94200134277344,-12.72767448425293,-40.48867416381836
1,745672,-67.26978302001953,-30.88168716430664,-58.57926940917969,-75.84785461425781
1,745673,-32.92180252075195,28.93719482421875,-11.615607261657715,15.325926780700684
1,745676,58.85234069824219,19.239665985107422,97.28852844238281,53.790565490722656
1,745677,104.11735534667969,7.493145942687988,65.2254638671875,-9.28049373626709
1,745680,-103.70370483398438,-30.72736358642578,-153.46853637695312,12.44890308380127
1,745681,-83.68679809570312,-19.881444931030273,-69.7628173828125,46.85593032836914
1,745684,85.74272155761719,32.119014739990234,118.4179916381836,-69.03797149658203
1,745685,8.186477661132812,-8.194770812988281,19.87746810913086,-125.6434097290039
1,745688,-10.690641403198242,-22.918725967407227,-28.849002838134766,111.76536560058594
1,745689,15.258478164672852,21.126102447509766,-0.6752011775970459,219.3192138671875
1,745692,-24.907060623168945,7.600841999053955,-28.00462532043457,-140.44223022460938
1,745693,-48.93980026245117,1.072981357574463,-30.37375259399414,-235.33709716796875
1,745696,33.86787414550781,-10.47667407989502,84.39311981201172,92.2763900756836
1,745697,98.25921630859375,2.844374179840088,94.86848449707031,164.0348358154297
1,745700,-77.23591613769531,20.47504234313965,-138.58895874023438,51.159996032714844
1,745701,-64.48455047607422,-14.7542142868042,-76.738525390625,-52.13153839111328
1,745704,95.12437438964844,4.662360191345215,116.1269302368164,-97.51905059814453
1,745705,-1.4751490354537964,10.92774486541748,26.26716423034668,31.61764144897461
1,745708,-42.92363739013672,-25.738052368164062,-27.8629150390625,38.530845642089844
1,745709,30.83136749267578,19.660289764404297,-3.4182963371276855,-15.88309097290039
1,745712,6.525731086730957,-0.79090815782547,-47.024227142333984,30.0071964263916
1,745713,-70.64344024658203,-51.70849609375,-69.68871307373047,-129.97802734375
1,745716,22.092737197875977,34.0563850402832,89.50923156738281,-56.737754821777344
1,745717,99.31883239746094,33.80799102783203,146.2705078125,239.79574584960938
1,745720,-65.79801940917969,-45.776588439941406,-137.40762329101562,-107.9571533203125
1,745721,-65.12193298339844,1.3345688581466675,-135.3372802734375,-176.17062377929688
1,745724,45.3814697265625,7.444003582000732,128.43746948242188,192.07301330566406
1,745725,20.38303565979004,-7.971490383148193,76.42060089111328,75.38426208496094
1,745728,12.397575378417969,38.229026794433594,-30.259275436401367,-35.93925476074219
1,745729,-6.54514741897583,-19.42224884033203,-36.7071418762207,-7.056219577789307
1,745732,-23.69020652770996,6.167987823486328,-5.412456035614014,-67.29031372070312
1,745733,-10.393028259277344,52.308837890625,-4.906196117401123,-23.81675148010254
1,745736,32.703006744384766,-61.23870849609375,25.47247886657715,30.486339569091797
1,745737,58.12370681762695,-54.129337310791016,73.28509521484375,-44.48621368408203
1,745740,-66.13768768310547,49.12488555908203,-109.67882537841797,-18.227027893066406
1,745741,-74.68310546875,11.97765064239502,-103.65432739257812,52.28834915161133
1,745744,60.11874771118164,-11.07679557800293,107.6528091430664,73.7163314819336
1,745745,27.913177490234375,10.370079040527344,40.904457092285156,56.04657745361328
1,745748,-18.508676528930664,-18.308258056640625,-17.373517990112305,-105.9044418334961
1,745749,3.674088716506958,-5.875484943389893,37.35624694824219,-93.51344299316406
1,745752,-17.27427101135254,12.200485229492188,-50.57944107055664,131.64613342285156
1,745753,-41.51532745361328,15.353689193725586,-87.96344757080078,57.04408264160156
1,745756,37.596885681152344,-1.0664656162261963,94.81455993652344,-148.99635314941406
1,745757,94.27588653564453,-10.910544395446777,115.5616226196289,-33.00914001464844
1,745760,-67.19818878173828,-2.5829949378967285,-119.55947875976562,106.10320281982422
1,745761,-83.59114074707031,-9.86818790435791,-95.7989730834961,4.009871006011963
1,745764,70.98357391357422,28.96487045288086,87.73829650878906,-44.276771545410156
1,745765,45.331573486328125,33.614192962646484,54.33777618408203,31.016141891479492
1,745768,9.885878562927246,-14.098186492919922,-14.280449867248535,-45.58013153076172
1,745769,-31.109405517578125,-31.964004516601562,-9.23493766784668,-10.175359725952148
1,745772,-60.49003982543945,-19.65043067932129,-39.63914108276367,110.89556121826172
1,745773,7.791109561920166,18.575294494628906,-39.13311767578125,-11.647514343261719
1,745776,66.85688781738281,13.978548049926758,93.08854675292969,-16.924518585205078
1,745777,28.570695877075195,5.7480854988098145,85.13944244384766,-121.3094482421875
1,745780,-105.48512268066406,-25.5335750579834,-162.74449157714844,-108.43769073486328
1,745781,-45.67359924316406,-40.3359260559082,-83.46511840820312,211.68702697753906
1,745784,97.26256561279297,27.23428726196289,134.58258056640625,79.4084243774414
1,745785,34.97972106933594,31.758895874023438,45.70258712768555,-120.60906219482422
1,745788,-37.903709411621094,-0.3979889750480652,-9.414155006408691,3.4335553646087646
1,745789,-22.088064193725586,-17.398956298828125,-37.55575942993164,35.248069763183594
1,745792,-4.808029651641846,-2.015648365020752,-67.70166778564453,-10.312925338745117
1,745793,-0.7352780103683472,-2.5555334091186523,-20.999202728271484,11.148115158081055
1,745796,22.116308212280273,-5.264486312866211,105.22721099853516,29.43790054321289
1,745797,57.96297073364258,37.071861267089844,130.62991333007812,1.741220235824585
1,745800,-43.126644134521484,21.495513916015625,-133.66954040527344,-6.996843338012695
1,745801,-74.82636260986328,-35.40507507324219,-133.63287353515625,-37.37226486206055
1,745804,47.69084548950195,-55.43192672729492,76.06204223632812,-50.88448715209961
1,745805,57.19461441040039,24.24583625793457,68.58708953857422,35.66054153442383
1,745808,-1.611103892326355,45.9365348815918,18.902103424072266,14.81904411315918
1,745809,-48.75156784057617,-32.10221862792969,-45.7202262878418,-103.4194564819336
1,745812,-11.119979858398438,-5.386751651763916,-48.052303314208984,41.46257781982422
1,745813,-16.70790672302246,23.926769256591797,-17.03904151916504,159.18931579589844
1,745816,30.9204158782959,-1.1522865295410156,59.20196533203125,-51.97031784057617
1,745817,94.48204040527344,-15.008448600769043,93.87554931640625,-41.44474411010742
1,745820,-100.27698516845703,-8.300302505493164,-114.89546203613281,17.213346481323242
1,745822,-69.0652847290039,32.8707389831543,-69.22798156738281,-64.61861419677734
1,745824,86.2634048461914,16.527536392211914,123.29712677001953,31.393632888793945
1,745826,18.570558547973633,-21.127235412597656,37.46870040893555,-14.40377426147461
1,745828,-14.88027286529541,-23.936325073242188,-42.28234100341797,-13.061881065368652
1,745830,5.507518291473389,-19.574369430541992,-28.938390731811523,113.7085189819336
1,745832,-36.084712982177734,6.963562965393066,-43.590240478515625,-39.66923522949219
1,746087,-83.25404357910156,30.3950138092041,-50.11078643798828,-84.3196792602539
1,746090,60.91068649291992,13.903366088867188,106.7369384765625,25.436649322509766
1,746091,125.77991485595703,-5.420103549957275,133.290283203125,27.271888732910156
1,746094,-53.19898986816406,-13.242707252502441,-127.4012222290039,-11.442002296447754
1,746095,-67.03215789794922,-9.614771842956543,-99.40528106689453,-7.930321216583252
1,746098,28.536575317382812,16.479122161865234,98.15424346923828,29.237060546875
1,746099,39.011390686035156,-0.16686978936195374,58.11635971069336,-18.022531509399414
1,746102,28.502639770507812,-8.926863670349121,-21.562576293945312,-18.723983764648438
1,749788,-25.85724449157715,-0.08654524385929108,-21.377504348754883,-3.3209986686706543
1,749788,-75.61099243164062,-25.018657684326172,-52.23579025268555,-20.794429779052734
1,749789,-36.86162185668945,2.677738904953003,-87.52884674072266,-8.190528869628906
1,749792,41.0932731628418,31.108551025390625,80.71025848388672,78.84632110595703
1,749793,58.194332122802734,2.866027355194092,110.40425872802734,46.08018493652344
1,749796,-30.465654373168945,-40.94160461425781,-124.68345642089844,-101.95307159423828
1,749797,-55.680335998535156,-9.980486869812012,-63.77655029296875,17.429981231689453
1,749800,68.41696166992188,63.01676940917969,96.67475128173828,36.11451721191406
1,749801,58.12342834472656,6.680052280426025,63.0044059753418,-56.097293853759766
1,749804,-28.639747619628906,-25.676340103149414,2.0424644947052,37.11656951904297
1,749805,-36.077728271484375,17.059171676635742,-42.58068084716797,17.329469680786133
1,749808,-31.6312255859375,-25.959369659423828,-27.510595321655273,-44.71624755859375
1,749809,-14.030961990356445,-10.749462127685547,-36.46109390258789,16.520431518554688
1,749812,51.04758834838867,44.19209671020508,51.00315856933594,30.068906784057617
1,749813,60.75328063964844,-23.29850959777832,98.51180267333984,-20.439804077148438
1,749816,-64.52908325195312,-22.410255432128906,-98.36011505126953,-2.3394291400909424
1,749817,-33.538883209228516,36.07676696777344,-64.35098266601562,22.508481979370117
1,749820,45.878414154052734,-10.938101768493652,78.56073760986328,-17.210298538208008
1,749821,-5.172409534454346,-31.02013397216797,8.99209213256836,-7.3156023025512695
1,749824,-8.181324005126953,21.670223236083984,7.008196830749512,18.746267318725586
1,749825,-5.743773937225342,3.1355488300323486,8.2089262008667,-16.556005477905273
1,749828,-15.317148208618164,-12.596222877502441,-69.13599395751953,-27.743993759155273
1,749829,-11.09848403930664,13.835521697998047,-50.58660125732422,14.03322982788086
1,749832,32.03303909301758,-3.2176437377929688,89.3705825805664,13.257866859436035
1,749833,64.96050262451172,14.058371543884277,106.2021484375,-5.942973613739014
1,749836,-35.323997497558594,-9.022546768188477,-99.5173110961914,2.6917099952697754
1,749837,-64.4406967163086,-31.109230041503906,-101.5103988647461,4.8006205558776855
1,749840,27.530900955200195,27.621557235717773,64.18376159667969,0.07576359808444977
1,749841,21.499988555908203,21.439733505249023,67.51844787597656,-4.157940864562988
1,749844,-2.247363805770874,-21.071256637573242,-8.528018951416016,10.200482368469238
1,749845,12.296217918395996,-7.8448309898376465,-56.571170806884766,-17.80535316467285
1,749848,-23.093477249145508,11.02651309967041,-7.156149387359619,-12.00277042388916
1,749849,-56.584407806396484,-8.091056823730469,-5.801877021789551,11.288535118103027
1,749852,35.45210647583008,-3.5610392093658447,14.946590423583984,-7.56239652633667
1,749853,70.2963638305664,-4.657439708709717,108.36780548095703,34.55819320678711
1,749856,-65.38213348388672,-20.964859008789062,-79.31498718261719,0.3735869228839874
1,749857,-39.095542907714844,26.698942184448242,-116.31489562988281,-37.50334930419922
1,749860,47.1580924987793,45.63916778564453,123.52227020263672,-3.8792667388916016
1,749861,2.157858371734619,-27.647153854370117,55.860267639160156,-26.791461944580078
1,749864,33.8783073425293,-30.286388397216797,-51.22235870361328,45.04873275756836
1,749865,17.197011947631836,9.779069900512695,-25.921669006347656,55.34632110595703
1,749868,-48.32775115966797,18.55801010131836,-12.158150672912598,-45.99225997924805
1,749869,-21.630109786987305,11.307217597961426,-25.066322326660156,-29.704206466674805
1,749872,31.473461151123047,-26.66493034362793,12.567107200622559,13.445725440979004
1,749873,50.59511947631836,-4.381284713745117,109.60838317871094,41.90485763549805
1,749876,-61.87320327758789,1.6023571491241455,-67.98865509033203,-11.22183609008789
1,749877,-36.291419982910156,-7.1840500831604,-115.29256439208984,-52.87369155883789
1,749880,46.082115173339844,6.10673189163208,92.61741638183594,40.96040725708008
1,749881,-28.9630069732666,-7.743376731872559,41.89674758911133,17.906513214111328
1,749884,28.429872512817383,24.453840255737305,-6.045713424682617,-22.50067901611328
1,749885,30.24175453186035,29.848791122436523,-1.1287949085235596,-0.6225550174713135
1,749888,-62.41119384765625,-36.8791389465332,-66.4175033569336,-28.151512145996094
1,749889,-22.825836181640625,-29.553979873657227,-43.97484588623047,7.210758686065674
1,749892,56.375022888183594,15.584064483642578,75.62773895263672,20.838106155395508
1,749893,52.19600296020508,35.1521110534668,90.91539001464844,-0.2615506052970886
1,749896,-84.75113677978516,3.8832061290740967,-95.98892974853516,19.917936325073242
1,749897,-57.59751892089844,-32.98485565185547,-40.009429931640625,10.388222694396973
1,749900,90.31098937988281,9.404460906982422,93.21585083007812,-51.80220413208008
1,749901,33.09901809692383,-0.8937119245529175,-12.459813117980957,-16.17571258544922
1,749904,-29.677114486694336,-20.91813087463379,-15.83797836303711,62.89898681640625
1,749905,-1.5152294635772705,23.6712589263916,3.5656440258026123,-4.504053592681885
1,749908,-2.9408140182495117,22.31593132019043,-15.492828369140625,-24.869361877441406
1,749909,-22.541006088256836,-16.249948501586914,-36.466121673583984,12.574965476989746
1,749912,26.6043701171875,-15.045167922973633,43.079368591308594,-6.311375141143799
1,749913,50.86806106567383,5.7274370193481445,101.82743072509766,-3.049830198287964
1,749916,-66.74819946289062,-8.636189460754395,-105.91625213623047,-2.2900047302246094
1,749917,-44.55205535888672,-4.174572944641113,-88.48872375488281,1.2378201484680176
1,749920,56.538902282714844,18.574188232421875,82.16041564941406,0.29960164427757263
1,749921,31.05977439880371,-19.19046974182129,33.67190933227539,10.508864402770996
1,749924,-0.27772650122642517,-14.563451766967773,-29.427396774291992,0.36529988050460815
1,749925,-36.87697982788086,-2.4602975845336914,-15.819573402404785,-29.47431182861328
1,749928,-25.65520668029785,10.873705863952637,5.4938554763793945,13.17891788482666
1,749929,-21.974517822265625,51.62729263305664,-16.00873565673828,23.27617835998535
1,749932,12.591720581054688,-10.166549682617188,60.62630844116211,-9.823460578918457
1,749933,113.45216369628906,-19.093814849853516,90.15087127685547,-32.09669494628906
1,749936,-34.363800048828125,11.640361785888672,-122.88823699951172,-14.330649375915527
1,749937,-129.35008239746094,-2.8518495559692383,-115.78719329833984,25.341089248657227
1,749940,53.77385330200195,-9.728052139282227,89.6661148071289,11.464120864868164
1,749941,74.84635162353516,-19.08226203918457,65.98640441894531,-1.547035813331604
1,749944,-53.57256317138672,-17.026317596435547,-19.453128814697266,-17.378366470336914
1,749945,-35.884498596191406,5.4227681159973145,-44.61970901489258,9.35559368133545
1,749948,54.83384323120117,33.49119186401367,-17.344560623168945,31.425899505615234
1,749949,-25.396875381469727,-10.093884468078613,6.420033931732178,-5.147414684295654
1,749952,7.152202606201172,-18.921504974365234,34.102638244628906,-5.198803424835205
1,749953,103.93988037109375,29.78862190246582,77.45162963867188,3.600498914718628
1,749956,-88.42383575439453,-7.124483108520508,-44.66593551635742,1.5370396375656128
1,749957,-95.13690185546875,-6.770742893218994,-71.60787200927734,7.203147888183594
1,749960,77.29611206054688,24.97557258605957,30.776830673217773,-18.414531707763672
1,749961,60.3565559387207,-58.02945327758789,22.385499954223633,-56.01641845703125
1,749964,-21.078447341918945,4.466080665588379,24.981090545654297,28.775070190429688
1,749965,-51.11602783203125,84.9740982055664,4.430296421051025,56.94648361206055
1,749968,28.77971076965332,-10.247153282165527,-46.958492279052734,-42.16897201538086
1,749969,13.858541488647461,0.24598078429698944,-40.50740051269531,-24.232784271240234
1,749972,-50.28972244262695,-14.799517631530762,42.8112907409668,43.29277420043945
1,749973,44.477901458740234,-32.94742965698242,77.40389251708984,18.980928421020508
1,749976,11.645709991455078,8.80648422241211,-105.38545989990234,-36.16249465942383
1,749977,-77.94971466064453,-13.033503532409668,-71.06987762451172,-2.6974036693573
1,749980,18.910442352294922,14.381945610046387,119.39921569824219,25.49297332763672
1,749981,65.2751693725586,24.565242767333984,33.762672424316406,-5.924013614654541
1,749984,19.773658752441406,-13.313382148742676,-32.19423294067383,-38.16364288330078
1,749985,-52.07539367675781,-19.071874618530273,1.9141571521759033,23.611244201660156
1,749988,-49.63737487792969,-2.2315828800201416,-12.033002853393555,128.0487060546875
1,749989,50.191978454589844,-6.382556915283203,-25.693754196166992,-31.667539596557617
1,749992,32.136051177978516,9.488812446594238,49.82990646362305,-143.8562774658203
1,749993,-6.142749309539795,-0.6221567392349243,6.162726402282715,-0.2894066870212555
1,749996,-36.53327941894531,-11.076342582702637,-108.07731628417969,42.291927337646484
1,749997,-32.44671630859375,28.50604820251465,5.416547775268555,-48.852989196777344
1,750000,63.4652214050293,-2.2706458568573,76.7176742553711,7.82633638381958
1,750001,46.35502624511719,5.032740592956543,27.33740997314453,113.25213623046875
1,750004,-35.20199966430664,16.03130340576172,-4.942974090576172,-32.81647872924805
1,750005,-35.20407485961914,-30.028541564941406,-41.58932113647461,-62.13429641723633
1,750008,-27.38862419128418,-0.8688002228736877,-21.492647171020508,23.54474639892578
1,750009,-23.610637664794922,-57.62413024902344,-28.521474838256836,-16.02602767944336
1,750014,5.438979148864746,-37.35831832885742,-23.436439514160156,-4.253401279449463
1,750015,38.2669792175293,144.692626953125,79.1868896484375,41.13346481323242
1,750016,14.188467979431152,16.362428665161133,30.359989166259766,27.855348587036133
1,750017,-9.302148818969727,-83.31539916992188,-51.96268844604492,-52.47744369506836
1,750020,11.07919979095459,13.907037734985352,21.64613151550293,-1.5812225341796875
1,750021,-6.111568927764893,0.7815945148468018,54.950775146484375,61.07559585571289
1,750024,8.957978248596191,1.4578198194503784,-3.24406099319458,-43.384246826171875
1,750025,-9.24068546295166,-10.298969268798828,-33.45876693725586,-42.732852935791016
1,750028,-6.9128570556640625,19.23318099975586,-39.871543884277344,-4.533849716186523
1,750029,24.218616485595703,50.95547103881836,-40.038917541503906,6.070191860198975
1,750032,35.1674690246582,-43.38511276245117,105.65316009521484,65.86964416503906
1,750033,52.833221435546875,-40.29557418823242,122.52521514892578,19.562597274780273
1,750036,-81.05891418457031,8.670515060424805,-156.0782012939453,-39.24005126953125
1,750037,-98.83960723876953,-22.124963760375977,-138.4628448486328,13.039456367492676
1,750040,59.2880859375,47.509521484375,108.33460235595703,-24.02395248413086
1,750041,44.77247619628906,32.79948806762695,52.27425765991211,-39.05799865722656
1,750044,-15.112248420715332,-57.98664855957031,-38.65948486328125,50.736854553222656
1,750045,0.5534613132476807,-3.3924615383148193,-47.068660736083984,-16.136722564697266
1,750048,-49.644386291503906,38.21554183959961,-4.957662582397461,-28.156526565551758
1,750049,-31.539278030395508,11.099286079406738,42.91236114501953,32.17536163330078
1,750052,66.83937072753906,-74.46513366699219,23.674753189086914,6.0660905838012695
1,750053,47.32171630859375,-13.269171714782715,48.88100814819336,-4.066707134246826
1,750056,-55.29441452026367,73.34481048583984,-89.30525970458984,10.001442909240723
1,750057,-33.595706939697266,9.24510383605957,-46.4208869934082,23.934587478637695
1,750060,40.654823303222656,13.907062530517578,123.09888458251953,-21.23604393005371
1,750061,9.542936325073242,-21.208234786987305,27.98394775390625,-1.9985322952270508
1,750064,3.8285183906555176,-26.955299377441406,-39.01283645629883,-1.7491627931594849
1,750065,-21.95232582092285,21.642953872680664,-23.588483810424805,-28.720712661743164
1,750068,-7.798123359680176,-4.519900798797607,-15.638715744018555,54.599979400634766
1,750069,17.45344352722168,-20.013275146484375,-81.12242889404297,-22.175365447998047
1,750072,26.52100372314453,36.912296295166016,78.44583129882812,-64.73465728759766
1,750073,23.18453025817871,-63.47240447998047,149.86582946777344,105.06686401367188
1,750076,-60.126014709472656,-58.65618896484375,-165.630126953125,-20.608951568603516
1,750077,-29.23587417602539,77.15746307373047,-120.5295639038086,-138.9402618408203
1,750080,31.45665168762207,3.0098979473114014,141.54248046875,86.44053649902344
1,750081,46.65224838256836,31.86902618408203,26.171079635620117,83.47560119628906
1,750084,-6.557476997375488,4.613595962524414,-43.44984817504883,-64.5453872680664
1,750085,-45.750465393066406,-15.595281600952148,89.22093963623047,-13.551445960998535
1,750088,-11.65735149383545,43.60005569458008,-13.382608413696289,19.62649917602539
1,750089,-38.85129928588867,-14.656782150268555,-92.57235717773438,-17.75914764404297
1,750092,31.237428665161133,-34.362789154052734,55.731510162353516,8.940735816955566
1,750093,118.88035583496094,-9.008283615112305,65.0810317993164,6.856762409210205
1,750096,-8.646044731140137,36.60581588745117,-86.3047103881836,-21.80255126953125
1,750097,-94.39726257324219,37.8764762878418,-45.04300308227539,15.717743873596191
1,750100,33.756309509277344,-57.133304595947266,49.665775299072266,16.596786499023438
1,750101,40.5923957824707,-58.804683685302734,26.693323135375977,2.26220440864563
1,750104,-88.00065612792969,46.33015060424805,2.183565616607666,5.0097808837890625
1,750105,-93.379150390625,-10.146136283874512,-43.29742431640625,-32.091365814208984
1,750108,-7.907837390899658,13.733992576599121,-62.310791015625,-8.526265144348145
1,750109,69.027587890625,84.8340835571289,-15.342255592346191,49.67958450317383
1,750112,141.32164001464844,-75.1153564453125,133.47947692871094,9.105843544006348
1,750113,12.827042579650879,13.802759170532227,81.29529571533203,-18.461322784423828
1,750116,-181.0248260498047,40.25591278076172,-170.44033813476562,0.008565068244934082
1,750117,-12.90194034576416,-149.09210205078125,-55.04718017578125,-31.033828735351562
1,750120,148.4910125732422,-5.4093804359436035,149.62506103515625,-8.079450607299805
1,750121,42.02890396118164,110.56536102294922,12.469171524047852,16.40389633178711
1,750124,9.992936134338379,23.398880004882812,-46.87628936767578,-12.22464656829834
1,750125,84.04210662841797,-31.701406478881836,17.794113159179688,6.140857219696045
1,750128,-27.67804718017578,14.292684555053711,-52.92923355102539,-13.199371337890625
1,750129,-219.57373046875,140.42796325683594,-52.58622741699219,-37.384376525878906
1,750132,-110.2461166381836,-29.792190551757812,44.196468353271484,41.463497161865234
1,750133,96.70563507080078,-162.5531768798828,79.47297668457031,54.16804504394531
1,750136,-16.33867645263672,-75.2662353515625,-44.40114212036133,-30.654870986938477
1,750137,-59.0295295715332,-121.44871520996094,-99.74874114990234,-35.44336700439453
1,750140,113.94780731201172,84.8646011352539,75.38871002197266,65.69219970703125
1,750141,69.13333892822266,119.72029876708984,84.9789810180664,73.5126724243164
1,750144,4.058834552764893,46.284183502197266,-21.560474395751953,-57.46650314331055
1,750145,77.32439422607422,95.75607299804688,-14.146953582763672,-46.08884811401367
1,750148,45.74982833862305,-117.5375747680664,-20.903079986572266,-10.670149803161621
1,750149,-77.0964126586914,-60.41240692138672,-52.20223617553711,-27.981149673461914
1,750152,0.9118092656135559,120.6427001953125,55.43804168701172,7.226072788238525
1,750153,129.23866271972656,52.62029266357422,72.00630950927734,-44.415931701660156
1,750156,-134.28614807128906,-105.07247161865234,-118.05361938476562,27.432580947875977
1,750157,-264.4798889160156,-139.5613555908203,-58.1185188293457,142.37240600585938
1,750160,-37.3459358215332,150.6861114501953,54.590511322021484,-109.4037094116211
