Aktueller Finger,timestamp_ms,sensor_0,sensor_1,sensor_2,sensor_3
0,64420,-72.33051300048828,236.60093688964844,74.5654067993164,-63.21357727050781
0,64422,-221.87313842773438,190.33494567871094,51.154850006103516,-30.613670349121094
0,64424,262.1537780761719,-368.0287170410156,-113.81275939941406,70.32647705078125
0,64426,419.05767822265625,-337.74847412109375,-119.14883422851562,71.1763916015625
0,64428,183.13677978515625,58.56483459472656,119.08922576904297,32.54864501953125
0,64430,-35.9539794921875,97.85545349121094,106.20146179199219,-23.104036331176758
0,64433,-217.69593811035156,104.81143951416016,23.98871421813965,-80.77904510498047
0,64434,-116.224365234375,97.52609252929688,7.319272994995117,-60.53897476196289
0,64437,-35.87818908691406,8.543235778808594,-64.82166290283203,68.23035430908203
0,64448,125.86933135986328,-94.12594604492188,-24.90037727355957,44.67796325683594
0,64448,147.5148162841797,-61.41979217529297,48.69438934326172,-39.77314376831055
0,64449,-222.30458068847656,175.09197998046875,19.322294235229492,-15.221132278442383
0,64449,-164.99143981933594,73.39232635498047,-45.52145767211914,-9.845479965209961
0,64449,13.854586601257324,-68.56831359863281,-31.74197769165039,-15.162017822265625
0,64449,18.084346771240234,-7.689451694488525,34.079734802246094,43.37395095825195
0,64450,17.908184051513672,-19.927404403686523,-14.410497665405273,29.336977005004883
0,64452,-22.97566795349121,15.844138145446777,-19.96890640258789,-49.14643096923828
0,64454,-40.16093444824219,42.45780944824219,27.935504913330078,-32.77436065673828
0,64456,-87.37895202636719,54.02882766723633,-13.369412422180176,12.679300308227539
0,64458,-96.57080841064453,152.4640655517578,30.934598922729492,-20.80666732788086
0,64460,-111.580810546875,128.58087158203125,26.295793533325195,-39.1535530090332
0,64463,26.963735580444336,-149.6958770751953,-81.86934661865234,29.535823822021484
0,64464,180.02557373046875,-264.6162109375,-56.902347564697266,36.83662033081055
0,64467,286.0677795410156,-201.71749877929688,18.80938148498535,66.5282974243164
0,64468,246.77244567871094,-35.44306945800781,36.09659957885742,30.182437896728516
0,64471,-165.29623413085938,167.36834716796875,29.924175262451172,-87.71546173095703
0,64472,-198.7131805419922,64.097900390625,4.792914867401123,-10.138033866882324
0,64473,98.50419616699219,-50.368995666503906,50.911041259765625,49.262638092041016
0,64500,-135.66818237304688,175.98101806640625,22.20924949645996,-45.50730895996094
0,64500,-236.18638610839844,185.74758911132812,-81.17996215820312,-59.212646484375
0,64500,126.42013549804688,-121.03301239013672,14.345528602600098,21.776660919189453
0,64500,27.248395919799805,-44.857215881347656,38.232452392578125,19.958833694458008
0,64501,-125.98551940917969,79.7928466796875,-24.889646530151367,-13.14560604095459
0,64501,-7.1070756912231445,-10.912270545959473,-20.95821189880371,-7.132079601287842
0,64501,18.61543846130371,-66.49110412597656,-38.886993408203125,-2.5028975009918213
0,64501,82.26984405517578,-110.85326385498047,-21.358001708984375,24.396928787231445
0,64501,147.44924926757812,-75.01315307617188,6.931060791015625,37.07796859741211
0,64502,118.95489501953125,-64.61115264892578,0.7828678488731384,21.68991470336914
0,64502,68.13395690917969,-72.58201599121094,7.5265302658081055,25.319120407104492
0,64502,22.079391479492188,11.778931617736816,38.625762939453125,19.38072395324707
0,64502,-33.35593032836914,70.88505554199219,14.0967435836792,-15.738826751708984
0,64503,-1.2472376823425293,-2.0751395225524902,-7.352062225341797,-6.821139812469482
0,64503,-4.207091808319092,7.742435932159424,12.717958450317383,-0.7761942744255066
0,64506,88.48092651367188,-4.118768692016602,-27.40818977355957,-20.509336471557617
0,64507,175.9945831298828,-80.31444549560547,7.214774131774902,14.888139724731445
0,64510,-164.9580535888672,132.22377014160156,101.90418243408203,-25.92321014404297
0,64512,-248.7413330078125,143.2322998046875,5.113831996917725,-39.90438461303711
0,64514,-21.284120559692383,-48.60759353637695,-86.03504180908203,40.853431701660156
0,64516,-8.570189476013184,-24.017179489135742,-27.618431091308594,-9.00711727142334
0,64518,-33.09526062011719,91.42823791503906,55.78116226196289,-66.23282623291016
0,64520,-116.05782318115234,143.33995056152344,51.16600799560547,-28.078975677490234
0,64522,-91.23929595947266,-81.59866333007812,-104.61417388916016,36.2578010559082
0,64524,92.01762390136719,-200.1660614013672,-92.61676025390625,41.29408264160156
0,64526,256.5150451660156,-102.12229919433594,34.69392395019531,26.125181198120117
0,64564,-93.01913452148438,139.41448974609375,10.779102325439453,-29.143878936767578
0,64564,-336.86260986328125,195.2769012451172,-6.873986721038818,-68.79586791992188
0,64564,227.03306579589844,-187.35464477539062,-11.33746337890625,52.192317962646484
0,64564,265.1414794921875,-180.679931640625,-10.396653175354004,73.5633316040039
0,64564,-12.249202728271484,0.45560649037361145,21.139453887939453,24.08325958251953
0,64564,56.786903381347656,-21.52330780029297,17.761585235595703,7.443149566650391
0,64565,-7.978038311004639,51.57257080078125,14.959787368774414,-11.382699966430664
0,64565,-93.99673461914062,91.43634033203125,28.81814193725586,-18.110116958618164
0,64565,-78.6561508178711,52.484466552734375,29.052724838256836,-34.898681640625
0,64565,-51.981689453125,29.84278678894043,4.275370121002197,2.1620900630950928
0,64565,-8.337748527526855,15.441485404968262,-4.228524684906006,30.320873260498047
0,64565,63.732444763183594,-18.350929260253906,0.9096920490264893,-0.12584522366523743
0,64566,68.27082061767578,-49.169254302978516,-15.299899101257324,-8.952406883239746
0,64566,47.91481399536133,-62.1679801940918,-4.772985935211182,25.211191177368164
0,64566,57.52616500854492,-19.726667404174805,5.5215044021606445,10.76060962677002
0,64566,17.31031036376953,29.932287216186523,-0.3337496817111969,-35.32555389404297
0,64566,-51.932334899902344,28.31627082824707,21.89101219177246,-22.487316131591797
0,64567,-85.06291198730469,46.697227478027344,16.319669723510742,-32.9416618347168
0,64567,-68.397216796875,69.36835479736328,-11.439146041870117,-16.543415069580078
0,64568,-17.857770919799805,68.24356842041016,27.899879455566406,6.68902587890625
0,64568,-3.8715338706970215,19.906322479248047,23.027759552001953,-27.67477798461914
0,64569,-72.14956665039062,-49.1015510559082,-28.22663688659668,-33.87534713745117
0,64572,-131.5784912109375,39.78693771362305,3.449397325515747,-78.00106048583984
0,64574,-1.4310123920440674,58.15401840209961,18.3450927734375,28.521087646484375
0,64576,65.80197143554688,-31.770750045776367,-18.422405242919922,100.86576080322266
0,64578,-20.590784072875977,11.855369567871094,1.8742458820343018,-80.83016967773438
0,64580,-127.16352844238281,70.08949279785156,-24.567115783691406,-53.314754486083984
0,64582,-125.55857849121094,-72.86376953125,-97.48051452636719,97.91751861572266
0,64584,253.37538146972656,-288.8426513671875,-76.03555297851562,94.04808807373047
0,64586,379.52740478515625,-111.78156280517578,-24.755311965942383,67.76263427734375
0,64588,103.94876861572266,137.55825805664062,83.61085510253906,26.67251205444336
0,64590,-98.62490844726562,23.349672317504883,71.3249282836914,-56.04189682006836
0,64592,-205.67990112304688,-23.397014617919922,18.88884162902832,-41.917381286621094
0,64594,-33.227176666259766,48.02482986450195,33.48122024536133,32.67827606201172
0,64645,177.5557403564453,-119.085693359375,-118.5471420288086,10.261916160583496
0,64645,80.9472885131836,-149.58447265625,-63.25559616088867,10.139732360839844
0,64645,-38.0593147277832,101.44975280761719,118.56258392333984,7.625083923339844
0,64645,-61.64634704589844,146.61605834960938,40.28915786743164,-43.620628356933594
0,64645,-103.6072769165039,56.28000259399414,-4.973400592803955,-50.083499908447266
0,64646,-78.40580749511719,15.884603500366211,10.462089538574219,-27.965797424316406
0,64646,-7.904439926147461,-13.846111297607422,-13.278937339782715,8.159940719604492
0,64646,37.037261962890625,-19.395008087158203,-30.647533416748047,22.21209144592285
0,64646,59.04170227050781,-17.61526870727539,-27.130903244018555,14.799489974975586
0,64646,67.25756072998047,-15.130986213684082,2.9888622760772705,7.79478120803833
0,64647,42.56184387207031,-3.8197290897369385,17.401412963867188,24.857318878173828
0,64647,10.334612846374512,23.598722457885742,33.84368896484375,15.151054382324219
0,64647,-24.118579864501953,37.889625549316406,33.014320373535156,-33.255855560302734
0,64647,-74.09281158447266,28.563562393188477,6.459625720977783,-25.910018920898438
0,64647,-72.25825500488281,44.72584533691406,-8.08080005645752,-12.773232460021973
0,64647,-45.19588851928711,24.69325065612793,2.3455002307891846,-4.229106903076172
0,64648,-24.30729866027832,-23.36369514465332,-18.949302673339844,7.569388389587402
0,64648,9.999505043029785,-16.009733200073242,-42.948238372802734,-10.102971076965332
0,64648,31.811185836791992,-21.114429473876953,5.4996137619018555,5.429144859313965
0,64648,38.259822845458984,-28.567873001098633,23.55937957763672,-5.254126071929932
0,64648,29.452674865722656,-16.723590850830078,-18.901853561401367,-14.295777320861816
0,64648,3.1111438274383545,-11.019431114196777,-4.336180686950684,23.198822021484375
0,64649,-29.363319396972656,18.151302337646484,36.027400970458984,11.509469032287598
0,64649,-27.35633659362793,37.314754486083984,2.051321268081665,-7.546035289764404
0,64649,-30.5736026763916,22.473770141601562,-11.154093742370605,-6.171492099761963
0,64650,-90.3542251586914,49.350162506103516,32.669246673583984,-2.4572103023529053
0,64650,-24.181121826171875,15.540072441101074,-22.491853713989258,19.33005142211914
0,64651,62.63636779785156,-74.75581359863281,-48.60784149169922,20.65801429748535
0,64652,-18.062339782714844,5.033344745635986,25.443506240844727,-4.2698163986206055
0,64655,-41.32994842529297,83.12625122070312,3.1602439880371094,-0.16702759265899658
0,64656,8.681187629699707,-16.69065284729004,-37.602447509765625,-0.22554083168506622
0,64659,-52.83039474487305,51.5686149597168,31.198719024658203,-83.3178482055664
0,64660,-96.80487060546875,86.34294891357422,20.391876220703125,-47.85957336425781
0,64663,97.43411254882812,-201.80824279785156,-86.87760925292969,104.19612884521484
0,64664,247.43118286132812,-249.9029541015625,-56.39633560180664,56.34653854370117
0,64667,256.7799377441406,-103.13053131103516,57.61849594116211,11.087383270263672
0,64668,134.61705017089844,74.57533264160156,101.46858978271484,5.465880870819092
0,64671,-248.27125549316406,210.996337890625,31.6583309173584,-52.96071243286133
0,64672,-231.0582275390625,16.267709732055664,-39.21894454956055,-20.346433639526367
0,64675,41.9881706237793,-69.96788024902344,-36.27116012573242,28.20206069946289
0,64676,27.00530242919922,67.47810363769531,-19.68231201171875,9.961898803710938
0,64679,-65.8436508178711,157.0267333984375,38.74153137207031,-65.92170715332031
0,64741,-147.1060791015625,60.53147506713867,31.17934799194336,-73.04563903808594
0,64741,-26.37637710571289,-102.76795196533203,-48.881534576416016,-13.126201629638672
0,64741,49.348297119140625,-3.951759099960327,-22.14457130432129,28.48929786682129
0,64741,-44.39288330078125,64.12335968017578,24.64716911315918,22.620113372802734
0,64741,-9.823305130004883,-32.8964729309082,-0.7279607653617859,2.715709924697876
0,64742,73.50225067138672,-78.41846466064453,-33.75163650512695,15.903489112854004
0,64742,90.69652557373047,-99.52664184570312,-12.232040405273438,49.42803192138672
0,64742,98.35108947753906,-84.0741195678711,12.876399040222168,43.87455749511719
0,64742,113.24742889404297,-34.43891906738281,-2.24289870262146,8.75784969329834
0,64742,57.07508087158203,-13.13385009765625,3.851989269256592,22.487001419067383
0,64742,-22.0484561920166,16.605106353759766,32.0974235534668,31.751981735229492
0,64743,-41.77276611328125,41.55562210083008,21.267410278320312,-7.007501602172852
0,64743,-57.13143539428711,30.77843475341797,-16.215547561645508,-18.589284896850586
0,64743,-54.747737884521484,37.81224822998047,-8.773387908935547,-13.548788070678711
0,64743,-23.575214385986328,4.653977870941162,0.02662970870733261,-22.809711456298828
0,64743,-13.278109550476074,-26.78679847717285,-16.83100128173828,-13.697839736938477
0,64743,33.97492599487305,1.4570913314819336,-27.624387741088867,-11.360812187194824
0,64744,45.07169723510742,-30.2530517578125,3.5639400482177734,20.247102737426758
0,64744,33.14604568481445,-36.5294075012207,39.0901985168457,37.01695251464844
0,64744,41.917999267578125,2.2335500717163086,8.746418952941895,5.639788627624512
0,64744,4.137272357940674,15.093843460083008,1.7255030870437622,-12.504244804382324
0,64744,-26.992265701293945,32.69367218017578,14.440546035766602,-17.75668716430664
0,64744,-62.956214904785156,10.232664108276367,-8.215229988098145,-10.661747932434082
0,64745,-43.75044250488281,26.995746612548828,-17.642786026000977,-14.09169864654541
0,64745,-1.7350132465362549,35.75928497314453,-5.132381916046143,-3.513307809829712
0,64745,5.999404430389404,-24.774005889892578,14.80074691772461,3.47937273979187
0,64745,51.31569290161133,-5.566486835479736,0.22623303532600403,-30.037731170654297
0,64745,38.954872131347656,-4.771725654602051,-8.238883972167969,16.153038024902344
0,64746,3.5826079845428467,-28.191967010498047,17.31963348388672,41.5532112121582
0,64746,7.983123779296875,12.2240571975708,7.317636489868164,-17.13408851623535
0,64746,-12.013812065124512,13.964550971984863,4.505874156951904,1.5434832572937012
0,64747,39.7169075012207,52.05235290527344,25.579238891601562,19.715251922607422
0,64747,15.174166679382324,76.24156188964844,12.046412467956543,-12.335041046142578
0,64748,-113.977294921875,-9.368072509765625,-14.1455717086792,-26.777578353881836
0,64749,-89.43597412109375,26.060016632080078,-3.632483959197998,-55.87636947631836
0,64750,-77.90229797363281,55.4161491394043,5.986057758331299,-58.21267318725586
0,64751,-86.47222900390625,-26.252710342407227,-15.420544624328613,18.233779907226562
0,64754,-51.37919616699219,-2.2130775451660156,-11.619714736938477,-23.42497444152832
0,64756,-14.088666915893555,-21.112876892089844,-28.84710121154785,-57.87717056274414
0,64758,-28.25084686279297,100.96434020996094,27.304208755493164,72.4595947265625
0,64760,-76.85289001464844,126.320556640625,54.86054229736328,29.698862075805664
0,64762,112.1949691772461,-274.0115051269531,-109.76739501953125,-36.0776252746582
0,64764,233.4932098388672,-292.35101318359375,-101.06906127929688,41.52057647705078
0,64766,242.06468200683594,-66.18862915039062,44.83602523803711,146.46278381347656
0,64768,151.35264587402344,55.89521789550781,77.36251068115234,119.56627655029297
0,64770,-202.62725830078125,241.3511505126953,64.19815826416016,-163.76461791992188
0,64772,-185.42774963378906,78.08755493164062,3.595607280731201,-135.70301818847656
0,64774,27.302703857421875,-76.6092529296875,-50.55613327026367,104.17849731445312
0,64776,23.20530128479004,-9.32481861114502,-27.5968074798584,18.322280883789062
0,64849,229.6815948486328,-154.00669860839844,30.183523178100586,41.803321838378906
0,64849,150.72129821777344,-69.65583038330078,34.44790267944336,82.42475128173828
0,64850,-272.8386535644531,181.23561096191406,-2.118054151535034,-112.66984558105469
0,64850,-188.36183166503906,101.74393463134766,1.5032150745391846,-74.58073425292969
0,64850,-0.642812192440033,-5.789175987243652,-12.405557632446289,15.035574913024902
0,64850,-33.19438171386719,0.9999404549598694,-20.239219665527344,-2.422316789627075
0,64850,-0.9363422393798828,-10.622751235961914,5.227092266082764,24.992464065551758
0,64850,68.59680938720703,-58.18968200683594,-26.693899154663086,10.910991668701172
0,64851,72.53883361816406,-32.134178161621094,-20.816312789916992,-4.285071849822998
0,64851,13.18844985961914,42.71628189086914,18.58422088623047,-5.741121292114258
0,64851,-35.356201171875,5.800069332122803,-8.89586067199707,-5.5644354820251465
0,64851,-73.5482177734375,0.07654279470443726,9.290189743041992,-25.19532012939453
0,64851,-58.3298225402832,61.62031173706055,46.58057403564453,-19.749195098876953
0,64851,-17.34081268310547,31.16425895690918,1.5603842735290527,17.979721069335938
0,64852,-17.452972412109375,-2.1606924533843994,-36.237850189208984,-7.483255863189697
0,64852,7.304591655731201,-11.374068260192871,-3.382420539855957,-9.451919555664062
0,64852,52.89605712890625,-40.93393325805664,13.675503730773926,21.57780647277832
0,64852,54.23783874511719,-48.97418975830078,-11.052308082580566,8.456602096557617
0,64852,26.59156608581543,-24.56875991821289,-12.046553611755371,13.207399368286133
0,64852,25.894428253173828,3.8392677307128906,2.6999924182891846,9.472809791564941
0,64853,4.019580841064453,4.473159313201904,3.884021520614624,-25.2703857421875
0,64853,-52.85723876953125,28.803680419921875,6.121863842010498,-17.944913864135742
0,64853,-25.068998336791992,50.20574188232422,8.502662658691406,6.6812310218811035
0,64853,-6.9995574951171875,11.953387260437012,-2.1386401653289795,-8.283782005310059
0,64853,-26.032995223999023,-39.48371124267578,0.4614303708076477,8.236343383789062
0,64853,16.203990936279297,-21.282562255859375,3.8959462642669678,25.607704162597656
0,64854,20.323348999023438,16.866395950317383,-23.71125030517578,3.2358486652374268
0,64854,12.027665138244629,-16.62891960144043,-14.319476127624512,19.058324813842773
0,64854,34.27915573120117,-35.51124954223633,29.728939056396484,15.731463432312012
0,64854,24.462533950805664,8.550795555114746,-5.6897501945495605,-22.036657333374023
0,64854,1.9515290260314941,13.148021697998047,-21.756582260131836,-10.76833724975586
0,64855,-27.987655639648438,-1.996396780014038,27.477317810058594,18.58620834350586
0,64855,-20.473718643188477,6.701535701751709,4.009796619415283,-15.788854598999023
0,64855,-13.69313907623291,0.39975211024284363,-18.81798553466797,-39.88432312011719
0,64855,-23.2310848236084,18.653667449951172,4.064332008361816,1.9629976749420166
0,64855,19.186767578125,23.31464195251465,11.521142959594727,13.397123336791992
0,64855,19.19963264465332,-26.40888023376465,-9.33319091796875,17.031164169311523
0,64857,-28.07682228088379,-7.110509395599365,-20.72212028503418,7.226957321166992
0,64857,-12.77681827545166,43.765140533447266,25.364688873291016,-8.172656059265137
0,64857,33.253299713134766,12.829652786254883,29.898290634155273,-0.5234757661819458
0,64858,-44.45360565185547,49.08294677734375,0.9241074919700623,-11.572038650512695
0,64860,-115.35055541992188,72.73770904541016,1.1054502725601196,12.070237159729004
0,64862,73.37391662597656,-107.73580932617188,-62.047767639160156,59.6783447265625
0,64864,224.767333984375,-260.6605224609375,-62.53015899658203,49.90717315673828
0,64866,258.31561279296875,-176.6046905517578,35.99177551269531,-67.65031433105469
0,64868,106.48353576660156,106.86286926269531,84.155029296875,-88.12873840332031
0,64870,-307.93914794921875,238.14268493652344,58.752193450927734,53.51665115356445
0,64872,-248.32278442382812,35.984718322753906,-25.25748634338379,105.16343688964844
0,64874,47.970760345458984,-16.986125946044922,-45.4910888671875,-4.89102840423584
0,64876,7.9473876953125,21.12079429626465,0.2853533923625946,-130.9202117919922
0,64878,-118.95893096923828,71.97418975830078,29.878414154052734,-108.00166320800781
0,64880,-134.56808471679688,124.595947265625,-12.005599021911621,10.465474128723145
0,64882,107.13056945800781,-125.83702850341797,-65.7115478515625,39.53843688964844
0,64884,175.74063110351562,-219.88009643554688,-56.20802688598633,1.3259658813476562
0,64886,157.668212890625,-83.96987915039062,46.198699951171875,156.27073669433594
0,64888,119.72673034667969,97.327392578125,93.49785614013672,81.2701416015625
0,64891,-240.3998260498047,201.11497497558594,-15.364755630493164,-131.25711059570312
0,64974,-241.21600341796875,69.49446868896484,-37.94923400878906,-3.3135111331939697
0,64975,98.94892883300781,-58.134830474853516,4.016280174255371,-1.7852426767349243
0,64975,191.42266845703125,-107.5674819946289,10.01350212097168,-8.173738479614258
0,64975,42.88396453857422,-20.052753448486328,8.508769035339355,30.881881713867188
0,64975,-81.8332748413086,48.83666229248047,7.3586530685424805,-8.15933895111084
0,64975,-86.87625885009766,27.84075355529785,21.092031478881836,-7.09398889541626
0,64975,-97.9056396484375,72.04505157470703,18.224727630615234,-16.94490623474121
0,64976,-70.553466796875,65.49684143066406,-13.434391021728516,-22.959096908569336
0,64976,15.739990234375,-27.123519897460938,-40.56668472290039,-28.15142059326172
0,64976,54.35383987426758,-106.92557525634766,-43.30598449707031,13.141651153564453
0,64976,87.5669937133789,-97.175537109375,4.311233997344971,34.253849029541016
0,64976,99.47915649414062,-48.68186569213867,27.129575729370117,11.583060264587402
0,64976,53.431663513183594,-25.419736862182617,-12.538223266601562,3.712237596511841
0,64977,18.759857177734375,12.67850399017334,-3.936171770095825,11.889140129089355
0,64977,-50.28236389160156,42.134193420410156,25.591388702392578,-2.0009171962738037
0,64977,-94.46754455566406,68.16710662841797,26.802242279052734,-20.954662322998047
0,64977,-66.87556457519531,106.11909484863281,0.07143712043762207,-16.163347244262695
0,64977,-41.751625061035156,63.037784576416016,-20.263704299926758,-40.56088638305664
0,64977,-9.550033569335938,-34.02094268798828,-15.112205505371094,-47.66184616088867
0,64978,-1.894544243812561,-52.8316764831543,-11.50355339050293,8.189119338989258
0,64978,25.524614334106445,-19.610280990600586,-0.8737143874168396,20.550233840942383
0,64978,83.9316635131836,-33.70621109008789,-1.1047239303588867,6.191847801208496
0,64978,46.897090911865234,-60.975677490234375,9.333666801452637,24.90867805480957
0,64978,-2.611377477645874,-23.764341354370117,3.482412815093994,9.775270462036133
0,64978,-23.581998825073242,27.36499786376953,-5.711129188537598,7.635456085205078
0,64979,-37.91072463989258,49.390968322753906,18.78416633605957,17.87345314025879
0,64979,-15.490094184875488,16.53257942199707,-0.663398027420044,-11.79609203338623
0,64979,-14.642073631286621,3.7867238521575928,1.328694462776184,-32.993770599365234
0,64979,1.8001519441604614,12.557469367980957,18.080978393554688,-0.6301094889640808
0,64979,15.916072845458984,-65.37594604492188,-30.741331100463867,40.73417663574219
0,64980,18.56939125061035,-59.17329025268555,-30.107131958007812,14.141857147216797
0,64980,58.01128387451172,12.63476848602295,7.398179531097412,-10.096927642822266
0,64980,21.80529022216797,-13.922247886657715,-14.625057220458984,10.5400972366333
0,64980,-19.229997634887695,-47.685447692871094,1.140030860900879,17.58643913269043
0,64980,12.756170272827148,28.148696899414062,20.176218032836914,-13.668420791625977
0,64980,-23.370885848999023,59.378936767578125,-10.576577186584473,-6.818428039550781
0,64981,-57.15115737915039,-17.14226722717285,9.071789741516113,7.517587184906006
0,64981,1.9515280723571777,-0.5492914319038391,-6.5924153327941895,-19.673986434936523
0,64981,18.174001693725586,19.194564819335938,-18.47882652282715,14.13523006439209
0,64981,-1.1658709049224854,-5.817637920379639,22.21690559387207,16.622840881347656
0,64981,33.964542388916016,-8.303868293762207,-9.521427154541016,-16.745861053466797
0,64981,38.68313217163086,-18.089073181152344,-8.819459915161133,2.3323023319244385
0,64983,65.47854614257812,-50.306678771972656,23.519990921020508,15.37824535369873
0,64983,58.43467712402344,-41.153865814208984,2.6941025257110596,33.04665756225586
0,64983,-41.207786560058594,56.96006774902344,-6.18888521194458,20.017343521118164
0,64983,-27.791900634765625,51.82208251953125,-1.843936562538147,-28.926420211791992
0,64984,96.12150573730469,-113.8187255859375,8.069998741149902,12.01773738861084
0,64986,185.31446838378906,-117.6656494140625,30.1536865234375,38.69257354736328
0,64988,-23.59031867980957,147.7659454345703,53.538330078125,-49.958396911621094
0,64990,-237.2509307861328,191.20127868652344,47.376522064208984,-34.332401275634766
0,64993,-161.82952880859375,14.852289199829102,-6.0678229331970215,-27.048059463500977
0,64994,-68.37885284423828,25.08026695251465,-28.750980377197266,-66.73899841308594
0,64997,-10.897894859313965,84.98477172851562,-31.06138801574707,11.422630310058594
0,64998,-63.87810134887695,73.69953918457031,-20.219104766845703,3.0276107788085938
0,65001,-116.95926666259766,-34.89193344116211,-52.22948455810547,-2.049086332321167
0,65002,39.89414596557617,-163.04550170898438,-96.4844970703125,68.01348876953125
0,65003,171.5399627685547,-136.96627807617188,-7.230559349060059,30.161252975463867
0,65006,247.20562744140625,-72.7711181640625,60.74497985839844,27.690738677978516
0,65007,196.71104431152344,35.36533737182617,95.42284393310547,29.175113677978516
0,65010,-198.36341857910156,117.38219451904297,75.79769897460938,-109.55608367919922
0,65011,-254.8077850341797,2.01926851272583,-46.34861373901367,-101.71102142333984
0,65014,19.19317054748535,-65.22091674804688,-86.35990905761719,33.93909454345703
0,65015,70.7386474609375,14.317496299743652,-3.2459583282470703,111.71015930175781
0,65018,-52.77876281738281,136.07171630859375,71.62214660644531,32.81622314453125
0,65019,-138.5045623779297,107.18949127197266,37.451053619384766,-116.64665985107422
0,65116,114.19393157958984,-110.9948501586914,-7.378067493438721,66.07962036132812
0,65116,104.49185180664062,-56.167755126953125,-6.6363372802734375,74.19558715820312
0,65117,-192.09466552734375,149.93316650390625,-28.509355545043945,-139.3776092529297
0,65117,-75.00753784179688,27.52353286743164,-34.16988754272461,-21.640056610107422
0,65117,95.78959655761719,-111.89196014404297,-36.215553283691406,42.06978988647461
0,65117,85.60680389404297,-78.89341735839844,-30.877216339111328,-8.407423973083496
0,65117,79.19747924804688,-61.9963493347168,29.429014205932617,-16.019716262817383
0,65117,72.98651885986328,-9.038102149963379,41.15522003173828,-47.085853576660156
0,65118,23.703689575195312,13.13563060760498,-10.679030418395996,-41.011024475097656
0,65118,-50.43089294433594,5.769005298614502,4.361024379730225,-21.71284294128418
0,65118,-73.26040649414062,54.3846549987793,44.55077362060547,-20.648677825927734
0,65118,-68.02388763427734,47.7445068359375,-7.326451301574707,-55.51163864135742
0,65118,-66.06036376953125,11.19737434387207,-56.89433670043945,-39.84365463256836
0,65119,-22.715757369995117,1.9033186435699463,-18.481679916381836,39.3779296875
0,65119,45.20204162597656,-43.17647171020508,-0.21973107755184174,49.084617614746094
0,65119,49.87032699584961,-82.77569580078125,-10.951600074768066,48.28636932373047
0,65119,57.775535583496094,-33.63334655761719,14.522727966308594,57.17659378051758
0,65119,78.98196411132812,6.189918041229248,10.787616729736328,35.911373138427734
0,65119,30.330860137939453,-8.75763988494873,-0.6990501284599304,32.4512825012207
0,65119,-33.14925765991211,8.207740783691406,6.31968879699707,48.30951690673828
0,65120,-57.63026809692383,25.032140731811523,-3.6572346687316895,74.99427032470703
0,65120,-48.11265182495117,22.962141036987305,-8.865496635437012,54.296634674072266
0,65120,-34.33628463745117,6.310273170471191,-1.9779181480407715,29.497159957885742
0,65120,-5.5644965171813965,1.243161916732788,4.964324474334717,66.0837631225586
0,65120,33.86870574951172,-4.340329170227051,1.5036180019378662,58.11283493041992
0,65121,44.92856979370117,-31.284446716308594,-15.001976013183594,15.97132396697998
0,65121,44.46195602416992,-27.061098098754883,5.4921875,7.471029758453369
0,65121,45.638916015625,-16.597993850708008,16.820363998413086,-17.5648250579834
0,65121,21.98696517944336,2.0203497409820557,-7.201421737670898,-34.586917877197266
0,65121,-20.563133239746094,11.587103843688965,25.75579071044922,-66.42518615722656
0,65121,-33.34877395629883,4.340188026428223,17.420499801635742,-95.12872314453125
0,65122,-31.91314125061035,31.527236938476562,-27.200925827026367,-70.8717041015625
0,65122,-21.824831008911133,40.38500213623047,-8.770821571350098,-60.98431396484375
0,65122,6.96216344833374,-6.133276462554932,-20.256092071533203,-55.1334342956543
0,65122,23.179922103881836,-35.33524703979492,-25.094799041748047,-34.840660095214844
0,65122,16.601533889770508,-12.524785041809082,24.732337951660156,-11.846258163452148
0,65122,7.545577526092529,-1.3814728260040283,30.44231605529785,-3.993499755859375
0,65123,30.695348739624023,-26.87656021118164,3.3856453895568848,-2.6129863262176514
0,65123,33.320152282714844,14.752169609069824,6.800903797149658,18.481325149536133
0,65123,0.787990927696228,39.666202545166016,13.250762939453125,38.98836135864258
0,65123,-33.20100784301758,-22.52851676940918,-2.3167994022369385,28.86680030822754
0,65123,-36.906681060791016,-3.3489668369293213,-3.3268613815307617,23.21853256225586
0,65123,0.6853595972061157,32.22399139404297,5.49200439453125,46.529747009277344
0,65124,13.281740188598633,-2.8146450519561768,-16.305997848510742,36.5260009765625
0,65124,7.389182090759277,-28.566858291625977,-20.526885986328125,-0.8626112341880798
0,65124,9.397211074829102,-18.8509521484375,26.913875579833984,26.15434455871582
0,65124,14.292492866516113,9.043691635131836,19.214736938476562,31.709251403808594
0,65124,1.3851768970489502,14.789860725402832,-15.969425201416016,-10.836095809936523
0,65126,91.4222183227539,-25.105093002319336,30.923912048339844,-4.716137886047363
0,65126,81.31378936767578,-22.248775482177734,46.51980209350586,-26.616453170776367
0,65126,-103.66044616699219,55.04030227661133,-21.721237182617188,-55.758365631103516
0,65126,-78.67829132080078,53.66236114501953,-16.64276885986328,-35.10142517089844
0,65126,-2.208158016204834,4.537776947021484,16.682518005371094,-9.890693664550781
0,65128,-30.64788055419922,6.591165542602539,-6.008986473083496,65.75323486328125
0,65130,-146.4930419921875,84.36060333251953,30.45090103149414,-12.216022491455078
0,65132,-133.79495239257812,153.04298400878906,33.68696212768555,-117.83554077148438
0,65134,62.92721939086914,69.95489501953125,1.1117992401123047,22.100980758666992
0,65136,69.44384765625,-94.97631072998047,9.169000625610352,48.96072006225586
0,65138,-222.7010498046875,10.610541343688965,-64.263427734375,-93.37207794189453
0,65140,-276.524658203125,67.59326171875,-129.08836364746094,-40.25215530395508
0,65142,222.9834442138672,-276.5079650878906,-142.17593383789062,-1.724736213684082
0,65144,421.3473815917969,-279.1831359863281,-49.23223114013672,-129.49122619628906
0,65147,294.4376525878906,-34.934059143066406,103.5080795288086,247.82208251953125
0,65148,40.31204605102539,100.04508972167969,73.26871490478516,425.78057861328125
0,65151,-328.92779541015625,146.41749572753906,132.49411010742188,-108.26248931884766
0,65152,-112.0525131225586,2.3557722568511963,115.43852996826172,-295.0413818359375
0,65155,90.44264221191406,-30.951414108276367,-137.82623291015625,-120.16645812988281
0,65156,-51.47053909301758,63.25133514404297,-79.71900177001953,0.17220868170261383
0,65159,-101.22415161132812,135.48065185546875,79.43518829345703,28.70014190673828
0,65160,-107.50836181640625,61.24148178100586,23.028833389282227,65.35857391357422
0,65163,136.65380859375,-145.89117431640625,-42.332427978515625,91.69659423828125
0,65268,354.7226867675781,-202.6343231201172,32.93840789794922,46.999610900878906
0,65269,52.101924896240234,3.0573408603668213,56.945674896240234,-41.57203674316406
0,65269,-273.8359375,133.72328186035156,-61.402923583984375,-94.35131072998047
0,65269,-61.13163757324219,-23.013874053955078,-77.681640625,-14.258397102355957
0,65269,130.68260192871094,-77.10993194580078,-26.812681198120117,48.63098907470703
0,65269,59.38713836669922,-28.327627182006836,0.5231376886367798,32.403480529785156
0,65269,24.430513381958008,-18.932828903198242,15.480324745178223,16.16448974609375
0,65270,-15.667901992797852,43.21437072753906,27.9611759185791,22.670747756958008
0,65270,-85.2978286743164,71.98194122314453,50.9093017578125,-13.640556335449219
0,65270,-119.5125732421875,84.9419937133789,41.23080062866211,-51.931880950927734
0,65270,-92.85968017578125,72.9241714477539,-8.908085823059082,-53.75333786010742
0,65270,-82.22599029541016,42.33119583129883,-27.57417869567871,-43.66719055175781
0,65270,-38.55409240722656,4.2535247802734375,-20.5915584564209,-31.760412216186523
0,65271,65.95680236816406,-71.72042846679688,-23.369735717773438,-12.971026420593262
0,65271,95.98985290527344,-75.38407897949219,-24.211925506591797,42.13361740112305
0,65271,70.32035064697266,-52.397972106933594,-13.377055168151855,48.96749496459961
0,65271,48.98299026489258,-52.029720306396484,2.704162359237671,36.01798629760742
0,65271,11.230612754821777,-1.5131399631500244,21.935630798339844,35.21930694580078
0,65271,-15.47274398803711,53.458927154541016,35.37051010131836,-16.394344329833984
0,65272,-41.676998138427734,65.1801986694336,18.057405471801758,-36.832271575927734
0,65272,-71.59296417236328,42.9831428527832,1.9387696981430054,-18.530162811279297
0,65272,-42.28240203857422,32.40912628173828,-18.07550811767578,-14.909088134765625
0,65272,12.437623023986816,-2.224097728729248,-29.968603134155273,-1.5422943830490112
0,65272,19.725690841674805,-51.96541213989258,-8.544270515441895,13.432708740234375
0,65272,37.43918991088867,-36.27939987182617,10.573653221130371,40.68446350097656
0,65273,69.23477935791016,-29.573001861572266,-13.870148658752441,16.081947326660156
0,65273,47.06520080566406,-23.80817985534668,0.5965748429298401,-18.846942901611328
0,65273,-5.137237548828125,8.095857620239258,47.15647506713867,33.222476959228516
0,65273,-17.19756507873535,10.244646072387695,22.51641845703125,24.272851943969727
0,65273,-35.61677551269531,22.9677791595459,-5.920080661773682,-0.9610447883605957
0,65273,-58.97828674316406,28.155941009521484,-20.66754722595215,29.653703689575195
0,65274,-13.7105073928833,23.746103286743164,-2.123948812484741,28.669557571411133
0,65274,12.278700828552246,18.04041862487793,1.4798046350479126,43.613929748535156
0,65274,10.45361042022705,-18.355138778686523,-42.237361907958984,28.48695182800293
0,65274,28.552743911743164,-20.818618774414062,-4.5408196449279785,-9.56893539428711
0,65274,30.238788604736328,-4.645139217376709,23.652673721313477,22.148212432861328
0,65275,14.61337661743164,-10.920818328857422,-18.30219841003418,28.890501022338867
0,65275,-8.160151481628418,-9.232705116271973,8.33763599395752,1.9780534505844116
0,65275,-4.675866603851318,12.262702941894531,21.638105392456055,-15.405302047729492
0,65275,2.0321168899536133,17.838623046875,-6.439599514007568,-84.46660614013672
0,65275,-27.675146102905273,-5.32570219039917,-2.637885808944702,-94.3747329711914
0,65275,-32.178436279296875,7.456930637359619,8.848058700561523,-22.683448791503906
0,65276,-10.723739624023438,17.03833770751953,2.7469327449798584,-37.53596115112305
0,65276,13.736065864562988,-20.281118392944336,-24.977962493896484,-31.75551414489746
0,65276,19.049152374267578,-19.75291633605957,16.232669830322266,4.6070027351379395
0,65276,5.9647321701049805,21.147550582885742,11.514176368713379,-39.686058044433594
0,65276,12.980841636657715,-1.2181189060211182,-37.094337463378906,-29.764062881469727
0,65276,-1.9770281314849854,-28.3773136138916,9.909175872802734,-2.0811843872070312
0,65277,-10.70721435546875,17.82502555847168,33.22346878051758,-45.89339828491211
0,65277,-4.25879430770874,10.482831001281738,-0.6381993889808655,-40.30937957763672
0,65277,-39.01187515258789,-4.397981643676758,-8.820269584655762,-2.775783061981201
0,65277,-29.443132400512695,7.166149616241455,-6.4269256591796875,-38.233131408691406
0,65277,-13.55400562286377,-30.43404769897461,-6.627315521240234,-42.118011474609375
0,65279,-104.93440246582031,12.442811965942383,-46.24953842163086,-237.5235595703125
0,65279,-48.25225830078125,16.84417724609375,-49.40793228149414,-200.83641052246094
0,65279,111.30699920654297,-51.76716613769531,43.813934326171875,251.13336181640625
0,65279,55.8626823425293,-22.780914306640625,13.193849563598633,159.77854919433594
0,65279,-27.338605880737305,21.183000564575195,-16.289152145385742,-29.000459671020508
0,65281,51.79642868041992,-3.048374652862549,14.140233993530273,76.05814361572266
0,65282,134.13023376464844,-97.53047180175781,-48.782657623291016,424.2043762207031
0,65285,257.3064880371094,-222.67164611816406,3.17789626121521,785.9379272460938
0,65286,239.7841796875,-123.92274475097656,107.51057434082031,78.64165496826172
0,65289,-142.4878692626953,284.99053955078125,96.8472900390625,-667.3098754882812
0,65290,-265.0771179199219,256.46484375,22.061477661132812,-160.19317626953125
0,65293,-113.47532653808594,-43.34181213378906,-42.708152770996094,214.84970092773438
0,65294,-24.15452003479004,3.415694236755371,-41.36518096923828,-24.7432804107666
0,65295,8.672286987304688,-0.6995710134506226,-37.29120635986328,-120.16474914550781
0,65298,-190.40679931640625,67.70458984375,18.48709487915039,-201.85121154785156
0,65299,-194.5990447998047,163.3948211669922,43.04224395751953,-59.82527542114258
0,65302,128.9434051513672,-84.7159423828125,-76.05656433105469,-66.18695068359375
0,65303,204.0708465576172,-176.95477294921875,-99.14057159423828,-608.7486572265625
0,65306,174.45034790039062,-135.64495849609375,-29.96770477294922,216.31503295898438
0,65307,104.87442779541016,-88.52120971679688,27.61241340637207,1065.10302734375
0,65310,-224.20022583007812,144.13912963867188,108.23623657226562,-461.8984375
0,65311,-166.87979125976562,86.06717681884766,37.657955169677734,-788.76416015625
0,65314,125.65706634521484,-7.833108901977539,-25.907581329345703,662.0859375
0,65315,74.64826202392578,24.934473037719727,18.33759880065918,614.1261596679688
0,65318,-133.8682098388672,52.476036071777344,0.798552930355072,-80.02440643310547
0,65435,-18.60265350341797,-26.91919708251953,16.745983123779297,-489.2914733886719
0,65435,152.19024658203125,-105.84508514404297,10.552142143249512,-462.50048828125
0,65435,-166.0491180419922,127.91339111328125,-22.151153564453125,165.6248321533203
0,65435,-165.41453552246094,90.3977279663086,-6.033697128295898,145.36514282226562
0,65435,70.1912841796875,-68.99777221679688,-9.970670700073242,-43.571475982666016
0,65435,62.15761947631836,-30.112178802490234,-19.05817985534668,83.67839050292969
0,65435,102.64356994628906,-52.52973556518555,-27.6895809173584,37.73432159423828
0,65436,115.34605407714844,-82.95127868652344,-24.42139434814453,10.003365516662598
0,65436,40.50291442871094,-18.665529251098633,-0.6191163659095764,24.36993408203125
0,65436,-26.712474822998047,44.51697540283203,25.453632354736328,2.197042226791382
0,65436,-59.7050895690918,59.383060455322266,29.940092086791992,8.819684028625488
0,65436,-73.23587036132812,76.43024444580078,6.558496952056885,-1.7976279258728027
0,65437,-84.36555480957031,42.12401580810547,-5.10114860534668,-41.5940055847168
0,65437,-71.6761703491211,25.465560913085938,-8.507494926452637,-4.59345817565918
0,65437,-7.724643230438232,18.202045440673828,-5.99897575378418,24.297399520874023
0,65437,55.0217170715332,-47.61128616333008,10.831284523010254,13.20502758026123
0,65437,51.409095764160156,-88.33328247070312,-4.780327320098877,7.2398881912231445
0,65437,54.497344970703125,-72.50927734375,-19.084260940551758,25.085798263549805
0,65438,102.38999938964844,-10.827227592468262,13.070757865905762,-3.2702510356903076
0,65438,7.630737781524658,15.224668502807617,15.392988204956055,-29.464921951293945
0,65438,-95.54589080810547,-16.140647888183594,2.9961934089660645,1.0724399089813232
0,65438,-30.50540542602539,23.73212242126465,-2.618612766265869,-6.714840888977051
0,65438,-7.5022735595703125,40.09116744995117,-26.394262313842773,1.179787278175354
0,65438,-29.95655059814453,-14.465466499328613,-3.7332942485809326,1.6096309423446655
0,65439,17.237703323364258,9.700929641723633,17.140283584594727,-16.637346267700195
0,65439,29.566364288330078,3.02569317817688,-16.389175415039062,1.8963528871536255
0,65439,-2.576725959777832,-79.0847396850586,-23.286014556884766,-13.132115364074707
0,65439,18.01299476623535,-48.672298431396484,-11.841073989868164,-11.036649703979492
0,65439,62.38848114013672,27.733076095581055,-8.005966186523438,23.755094528198242
0,65440,8.43632698059082,-1.1715583801269531,21.84290313720703,-3.68918514251709
0,65440,-32.888248443603516,-19.77546501159668,24.00177764892578,-16.96212387084961
0,65440,-7.57119083404541,40.53184509277344,-9.6588773727417,-3.150097370147705
0,65440,-25.520118713378906,44.16748046875,-10.111115455627441,-7.447275638580322
0,65440,-25.757349014282227,4.937630653381348,9.57921314239502,3.0403645038604736
0,65440,18.4884033203125,-3.035379648208618,13.213789939880371,17.714704513549805
0,65441,56.60018539428711,1.8429145812988281,-8.003560066223145,0.5824171304702759
0,65441,18.134519577026367,-15.9192476272583,-15.047035217285156,-14.955026626586914
0,65441,-5.827111721038818,-34.84126281738281,2.626558542251587,31.089574813842773
0,65441,31.176481246948242,2.518601894378662,9.059748649597168,8.802077293395996
0,65441,9.032760620117188,-2.913090467453003,-0.07760366797447205,-28.326324462890625
0,65441,-32.12724685668945,-7.032520771026611,13.561319351196289,25.790285110473633
0,65442,-21.04706573486328,40.19967269897461,18.77621841430664,18.378231048583984
0,65442,-7.223750591278076,12.189441680908203,-9.63976001739502,0.6183557510375977
0,65442,-8.756857872009277,-10.424261093139648,-0.13792864978313446,8.006767272949219
0,65442,24.47017478942871,-11.50037956237793,9.904178619384766,-6.860988140106201
0,65442,30.614343643188477,-18.207561492919922,-14.858542442321777,-10.007495880126953
0,65442,8.569953918457031,-8.97903823852539,1.7564641237258911,-3.1965994834899902
0,65443,15.913487434387207,7.3019866943359375,13.781818389892578,8.398533821105957
0,65443,19.464523315429688,8.70763874053955,-3.8947291374206543,-23.419477462768555
0,65443,-7.119377613067627,-17.48781394958496,7.263839244842529,-18.55044937133789
0,65443,-23.768522262573242,-2.267958879470825,6.87086296081543,-3.817241668701172
0,65443,-14.711910247802734,1.2148317098617554,-6.385433673858643,-34.93882751464844
0,65443,1.6633708477020264,0.7811537384986877,-8.923968315124512,-6.148716926574707
0,65444,-5.529989719390869,15.151754379272461,-4.452834606170654,23.874971389770508
0,65444,-27.48246955871582,8.97719669342041,4.358672142028809,-0.6723045110702515
0,65444,-1.9214200973510742,10.664259910583496,-7.260993957519531,-34.25944137573242
0,65444,-0.9661344885826111,-5.271214008331299,-12.071181297302246,-5.788898468017578
0,65444,-9.912396430969238,-17.78647804260254,19.208513259887695,43.31834030151367
0,65446,106.31749725341797,-7.024527072906494,26.93030548095703,83.37723541259766
0,65446,66.2361831665039,22.31362533569336,-16.791589736938477,68.47235107421875
0,65446,-103.7925033569336,49.08549118041992,-13.503961563110352,-22.225324630737305
0,65446,-30.74288558959961,12.383855819702148,14.91692066192627,-29.31118392944336
0,65446,14.960954666137695,-6.067781448364258,1.336272954940796,20.60011100769043
0,65446,-20.566476821899414,20.345539093017578,-4.882336139678955,14.831342697143555
0,65448,-23.66753387451172,29.651140213012695,39.6129035949707,28.73355484008789
0,65450,-161.67640686035156,103.66302490234375,13.174715995788574,-19.89775848388672
0,65452,-154.32937622070312,54.02738952636719,-53.15929412841797,-241.0075225830078
0,65454,22.006147384643555,-86.47187805175781,-7.4610466957092285,-194.0360870361328
0,65456,12.020769119262695,-6.14456033706665,-4.898983955383301,81.58850860595703
0,65458,-140.21275329589844,176.92971801757812,14.862250328063965,327.0603942871094
0,65460,-86.00222778320312,98.14869689941406,4.165071487426758,84.27911376953125
0,65462,332.71917724609375,-383.4737548828125,-77.42764282226562,-242.34852600097656
0,65464,370.900390625,-397.2989196777344,-37.15299606323242,144.2002716064453
0,65467,66.07471466064453,145.72036743164062,73.13165283203125,-91.86128997802734
0,65468,-12.086758613586426,218.8114471435547,92.81568145751953,-203.23916625976562
0,65471,-176.96670532226562,5.561470031738281,-15.974776268005371,358.95855712890625
0,65585,-25.963207244873047,-143.75991821289062,-106.2593765258789,88.96343231201172
0,65585,246.36558532714844,-143.01365661621094,-70.98680114746094,-171.10902404785156
0,65585,-26.029401779174805,67.5342788696289,60.954437255859375,-19.25725555419922
0,65585,-144.50982666015625,92.88562774658203,63.229576110839844,-33.55790710449219
0,65585,-21.142683029174805,42.761390686035156,-10.090313911437988,-64.69618225097656
0,65585,-78.07488250732422,63.92049789428711,5.115675449371338,-35.822540283203125
0,65586,-107.53809356689453,49.45983123779297,17.75525665283203,10.895736694335938
0,65586,-28.9465274810791,56.59211349487305,2.2980616092681885,15.379091262817383
0,65586,18.72820472717285,13.059893608093262,1.1836148500442505,38.5586051940918
0,65586,32.64817810058594,-22.221105575561523,15.126372337341309,58.01386642456055
0,65586,47.860103607177734,-7.655426025390625,-11.401138305664062,3.333871603012085
0,65586,26.835800170898438,-39.62529754638672,1.0370374917984009,15.746138572692871
0,65587,14.314289093017578,-39.47207260131836,36.75967788696289,20.49795150756836
0,65587,-11.902222633361816,12.03343677520752,-19.58236312866211,-25.92482566833496
0,65587,-54.862266540527344,22.900224685668945,-16.242563247680664,-13.810216903686523
0,65587,-45.063697814941406,13.019553184509277,22.68375587463379,-9.904387474060059
0,65587,-36.78819274902344,7.8276848793029785,-19.747522354125977,-8.065909385681152
0,65587,-22.9161434173584,1.7197824716567993,-33.72859191894531,6.7721123695373535
0,65588,1.6813199520111084,-6.101123809814453,-18.350770950317383,5.893504619598389
0,65588,16.843639373779297,-5.992588996887207,12.452418327331543,3.552530527114868
0,65588,40.61817932128906,-8.977439880371094,16.86199378967285,-7.328979969024658
0,65588,19.996829986572266,-20.521486282348633,-26.09183692932129,-6.760258674621582
0,65588,4.47589635848999,-20.63719367980957,6.068934917449951,-7.338291645050049
0,65589,8.147642135620117,8.704876899719238,44.69318389892578,1.1930696964263916
0,65589,-4.7390851974487305,45.2276725769043,-15.80077075958252,15.122077941894531
0,65589,-10.123332977294922,9.03735065460205,-25.299198150634766,-21.733749389648438
0,65589,-22.295503616333008,-0.3884347379207611,20.091064453125,12.61014461517334
0,65589,-11.131231307983398,5.971391201019287,-11.134305000305176,34.05936813354492
0,65589,13.756448745727539,-32.110321044921875,-9.885326385498047,-18.33993911743164
0,65590,11.169565200805664,-13.529111862182617,12.278714179992676,-4.768604278564453
0,65590,8.614474296569824,-11.254508018493652,-5.493658542633057,4.666497230529785
0,65590,20.676862716674805,-20.42474365234375,2.5351450443267822,1.2191362380981445
0,65590,17.985694885253906,-1.4407129287719727,7.630527973175049,-7.687863826751709
0,65590,-7.038702487945557,6.820216655731201,4.634282112121582,-8.050963401794434
0,65590,-42.959388732910156,20.129663467407227,-13.112141609191895,-8.33016586303711
0,65591,-10.226359367370605,6.84494686126709,-8.914538383483887,-24.591556549072266
0,65591,28.729869842529297,-8.63988971710205,11.986265182495117,-2.877251148223877
0,65591,-32.19374084472656,-0.33514878153800964,2.9953830242156982,5.182129859924316
0,65591,-20.05106544494629,18.024614334106445,-0.028972461819648743,-0.774033784866333
0,65591,22.302709579467773,5.914760112762451,3.326845169067383,-3.999201536178589
0,65591,15.660985946655273,-15.121160507202148,-3.0700809955596924,-16.770166397094727
0,65592,19.89094352722168,1.476778268814087,-8.831108093261719,-13.943408012390137
0,65592,-1.6444082260131836,5.393709659576416,3.0164358615875244,6.967072010040283
0,65592,-0.9050344824790955,17.761938095092773,-1.1300290822982788,21.493356704711914
0,65592,-0.1297674924135208,8.830862045288086,-7.129631042480469,14.225469589233398
0,65592,-9.129569053649902,-18.769977569580078,18.4864444732666,4.862728595733643
0,65592,0.8041275143623352,14.071410179138184,7.515423774719238,20.10110092163086
0,65593,10.800743103027344,30.457401275634766,-29.338733673095703,34.000518798828125
0,65593,9.686720848083496,-14.958045959472656,11.779398918151855,11.959787368774414
0,65593,-2.189249277114868,-30.6124324798584,17.709522247314453,-0.14767751097679138
0,65593,9.34473991394043,1.8086025714874268,-28.56142807006836,4.01498556137085
0,65593,9.329164505004883,5.427811145782471,8.791741371154785,17.68495750427246
0,65593,10.495122909545898,-3.070335865020752,13.201441764831543,3.8970794677734375
0,65594,9.954035758972168,-3.0499320030212402,-0.20900101959705353,-29.808940887451172
0,65594,-19.376575469970703,0.38404974341392517,7.091315269470215,-14.765652656555176
0,65594,-13.271939277648926,-1.6965137720108032,-36.107364654541016,-15.714566230773926
0,65594,-13.52076530456543,-24.99085807800293,-7.855843544006348,-20.682559967041016
0,65595,-33.58842086791992,18.91744041442871,40.654911041259766,-22.982168197631836
0,65596,4.254594802856445,51.09267044067383,4.580502986907959,-26.50684356689453
0,65596,25.044946670532227,5.149726390838623,-1.9109121561050415,2.387042999267578
0,65596,-0.4370603561401367,-11.115411758422852,2.2064952850341797,-7.492318153381348
0,65596,-15.363015174865723,-12.809863090515137,-4.515917778015137,-16.874284744262695
0,65596,-14.207768440246582,1.9082238674163818,14.343366622924805,2.2640762329101562
0,65598,-76.22679901123047,71.15980529785156,-10.967089653015137,-1.5626566410064697
0,65600,-74.53680419921875,-35.153778076171875,-69.2120361328125,-23.687467575073242
0,65602,138.4226531982422,-196.6027374267578,-34.58121109008789,4.032900333404541
0,65604,354.90252685546875,-204.572509765625,16.17990493774414,121.70755767822266
0,65606,216.36624145507812,-68.05326843261719,30.31910514831543,102.97229766845703
0,65608,-221.2263946533203,221.98329162597656,72.66163635253906,-44.30873107910156
0,65610,-255.3975372314453,178.74600219726562,11.154092788696289,-29.251253128051758
0,65612,-57.008140563964844,-4.38405179977417,-31.187313079833984,-24.488365173339844
0,65614,-27.888076782226562,17.170236587524414,6.412098407745361,-54.998046875
0,65616,-41.2027473449707,83.9364013671875,8.881903648376465,-3.0547714233398438
0,65618,-109.79524993896484,141.47120666503906,21.854028701782227,62.352783203125
0,65620,-22.337642669677734,-81.65177917480469,-50.919532775878906,1.4847121238708496
0,65622,116.93939971923828,-231.04283142089844,-70.02184295654297,-147.73886108398438
0,65624,265.5574951171875,-91.74139404296875,32.08291244506836,24.26348114013672
0,65626,203.7716064453125,-15.967560768127441,50.79771423339844,160.70814514160156
0,65628,-218.95834350585938,116.53945922851562,39.22571563720703,-19.674219131469727
0,65630,-218.96653747558594,148.37777709960938,4.008755207061768,-58.27402877807617
0,65632,6.223611354827881,-18.29500961303711,-62.067684173583984,-2.573375701904297
0,65634,36.44264221191406,-103.20379638671875,-15.776318550109863,-28.1313533782959
0,65758,-64.8921890258789,61.68040084838867,25.989988327026367,-17.17568588256836
0,65758,-128.63499450683594,150.44851684570312,-12.719160079956055,-1.9712741374969482
0,65758,81.2784652709961,-21.53009033203125,23.621734619140625,17.39982795715332
0,65759,8.5183687210083,4.939914226531982,25.174434661865234,6.270029544830322
0,65759,-138.14649963378906,36.346229553222656,-31.894771575927734,-32.04090881347656
0,65759,-37.85182189941406,-25.140920639038086,-9.598916053771973,8.586193084716797
0,65759,45.32221984863281,-34.09019470214844,7.029975891113281,26.470977783203125
0,65759,125.02727508544922,-110.39055633544922,-42.22287368774414,3.4106686115264893
0,65759,136.73770141601562,-117.48039245605469,-35.89706039428711,24.719472885131836
0,65760,115.98124694824219,-45.37198257446289,18.17186164855957,41.28044509887695
0,65760,99.23948669433594,-40.10372543334961,25.266910552978516,4.375822067260742
0,65760,10.201247215270996,-19.682214736938477,20.793657302856445,-1.106886863708496
0,65760,-68.6500473022461,47.483306884765625,20.388193130493164,14.41707706451416
0,65760,-61.329139709472656,77.47480773925781,11.249135971069336,-27.19414710998535
0,65761,-54.49275207519531,74.0124740600586,-10.162114143371582,-39.82871627807617
0,65761,-57.4920654296875,27.49069595336914,-28.30010223388672,-15.805868148803711
0,65761,-32.97290802001953,-24.332979202270508,-16.191665649414062,-5.471839904785156
0,65761,43.721473693847656,-36.28981018066406,9.196808815002441,3.2300310134887695
0,65761,77.14476776123047,-34.73374557495117,0.958217442035675,13.230854034423828
0,65761,43.927066802978516,-65.33869934082031,-0.8355119824409485,12.095490455627441
0,65762,45.73422622680664,-49.787628173828125,13.251856803894043,-0.9417642951011658
0,65762,15.284126281738281,30.28453826904297,8.729823112487793,18.17974090576172
0,65762,-39.99370574951172,41.01449966430664,9.791338920593262,1.2833354473114014
0,65762,-54.3599967956543,35.40822982788086,13.207070350646973,-24.81675148010254
0,65762,-49.470699310302734,47.82308578491211,7.821969032287598,-2.0876529216766357
0,65762,-31.6318359375,18.63228416442871,-20.609506607055664,-0.6746515035629272
0,65763,10.11821460723877,-6.081297874450684,-17.601821899414062,-1.8465657234191895
0,65763,48.38527297973633,-27.735628128051758,4.896289825439453,10.529754638671875
0,65763,44.00629425048828,-46.71681213378906,-14.367426872253418,2.6845462322235107
0,65763,9.785951614379883,-21.860572814941406,4.971119403839111,0.8292648792266846
0,65763,2.8778812885284424,5.593221664428711,15.063858032226562,29.65663719177246
0,65763,18.537120819091797,21.26146697998047,-1.2538220882415771,17.338481903076172
0,65764,-3.523766040802002,40.16987228393555,22.091001510620117,-10.343780517578125
0,65764,-9.248795509338379,16.905380249023438,6.618495464324951,6.785373687744141
0,65764,-30.842708587646484,13.360206604003906,-14.154679298400879,-7.746275901794434
0,65764,-54.40141677856445,18.186010360717773,-8.141244888305664,-40.54866027832031
0,65764,-8.443473815917969,-29.32098388671875,-13.757753372192383,-11.070147514343262
0,65764,5.239572525024414,-20.54921531677246,-2.8298439979553223,20.360675811767578
0,65765,20.941753387451172,3.5657005310058594,-3.8447017669677734,9.651022911071777
0,65765,31.062036514282227,-11.507560729980469,5.952402114868164,-1.7786966562271118
0,65765,-3.7633187770843506,2.2726147174835205,21.420679092407227,-0.27908042073249817
0,65765,-18.794286727905273,14.286645889282227,-1.7035720348358154,-4.20576286315918
0,65765,-19.779523849487305,6.6928911209106445,-5.188472747802734,-0.6971795558929443
0,65765,1.0165575742721558,24.143556594848633,6.577576160430908,0.5429664254188538
0,65766,-20.072587966918945,32.573699951171875,6.726683616638184,-2.255018711090088
0,65766,-50.6428337097168,-6.316071033477783,5.625272750854492,1.9476518630981445
0,65766,5.622706413269043,5.127566337585449,0.7873602509498596,-20.949674606323242
0,65766,17.73735809326172,17.763639450073242,-2.4360523223876953,3.9231631755828857
0,65766,-13.998991012573242,-0.6208509206771851,16.270505905151367,26.252836227416992
0,65766,9.666413307189941,10.907264709472656,1.6508253812789917,-13.321549415588379
0,65767,21.78754234313965,-16.422571182250977,-24.979633331298828,-6.140596389770508
0,65767,-6.30141544342041,-10.589406967163086,9.839550018310547,2.2411553859710693
0,65767,-18.014833450317383,-9.170317649841309,4.232032299041748,-4.770118236541748
0,65767,-7.712008476257324,-8.65093994140625,-10.411948204040527,0.825691819190979
0,65767,-16.422048568725586,25.845720291137695,6.830624103546143,-3.3955307006835938
0,65767,-15.290488243103027,-9.509710311889648,-13.53030014038086,-2.23641037940979
0,65768,14.417571067810059,4.803224563598633,-7.718082904815674,-11.754354476928711
0,65768,17.85305404663086,0.8100109100341797,1.5965588092803955,-1.73466956615448
0,65768,-1.0886422395706177,-34.51690673828125,3.1782195568084717,5.874053955078125
0,65768,-5.94675350189209,2.726703643798828,8.746386528015137,-2.8681271076202393
0,65768,3.4557018280029297,16.48360824584961,-17.348562240600586,-2.395073175430298
0,65769,7.094420909881592,-17.342443466186523,-5.228534698486328,5.700653076171875
0,65770,-65.13477325439453,12.030503273010254,22.11566162109375,2.461866855621338
0,65770,-57.21240997314453,51.140995025634766,-2.080925941467285,-20.950809478759766
0,65770,50.46747970581055,-9.902716636657715,-18.792098999023438,-8.848341941833496
0,65770,22.30415916442871,-19.439956665039062,-7.674100875854492,5.316589832305908
0,65771,-28.041257858276367,-13.590776443481445,-0.7191212177276611,11.399714469909668
0,65771,5.419256687164307,-4.8036909103393555,-0.16293957829475403,21.374109268188477
0,65772,-5.768707275390625,14.895369529724121,-11.521452903747559,-11.876729011535645
0,65773,-5.551424026489258,31.57768440246582,-7.845879077911377,-31.01641845703125
0,65776,11.607995986938477,147.91751098632812,35.747894287109375,11.663984298706055
0,65777,-92.64656066894531,99.91162109375,14.886436462402344,5.584218502044678
0,65780,-57.86222457885742,-215.89224243164062,-82.63236999511719,-44.10517120361328
0,65781,166.31349182128906,-245.0458526611328,-29.70985984802246,13.918709754943848
0,65784,330.37420654296875,-133.87551879882812,27.789236068725586,99.66014862060547
0,65785,208.84568786621094,-87.99142456054688,-7.374327182769775,60.77606964111328
0,65788,-184.10557556152344,226.73736572265625,113.37311553955078,-29.472719192504883
0,65789,-245.12408447265625,201.88385009765625,93.53430938720703,-58.786903381347656
0,65792,-67.91324615478516,-76.1888656616211,-87.64804077148438,-23.122377395629883
0,65793,-9.215054512023926,-11.283995628356934,-50.09343719482422,7.431113243103027
0,65796,3.8728604316711426,112.14490509033203,28.079303741455078,22.70705223083496
0,65797,-111.71968841552734,98.09430694580078,6.739689350128174,-18.667165756225586
0,65800,-78.91248321533203,-75.7715072631836,-45.42231369018555,-66.883056640625
0,65801,131.67816162109375,-141.55108642578125,-61.0079345703125,8.725916862487793
0,65804,259.23468017578125,-116.53507232666016,5.893457412719727,80.60636138916016
0,65805,157.26145935058594,-71.38109588623047,64.1137466430664,28.742862701416016
0,65808,-155.18931579589844,186.9317626953125,71.72057342529297,-41.17101287841797
0,65809,-182.8212890625,146.8301544189453,-4.017903804779053,-37.92153549194336
0,65812,-33.44877243041992,-80.38735961914062,-65.10749053955078,6.74229097366333
0,65814,13.899439811706543,-44.773460388183594,-20.585620880126953,33.20178985595703
0,65948,252.94137573242188,-151.8847198486328,26.60552406311035,43.80116653442383
0,65948,184.41810607910156,-109.73555755615234,33.62103271484375,27.964004516601562
0,65948,-219.71817016601562,197.55209350585938,12.92926025390625,-47.30790710449219
0,65949,-182.98260498046875,148.38226318359375,0.9900030493736267,-63.33810043334961
0,65949,-68.58564758300781,20.858985900878906,-7.9376325607299805,-23.90635871887207
0,65949,-86.55567932128906,37.81734085083008,-27.89533042907715,9.482732772827148
0,65949,7.978341102600098,9.560951232910156,-31.484941482543945,6.511482238769531
0,65949,46.01139450073242,-57.109920501708984,-9.74743938446045,-11.796489715576172
0,65949,33.52696228027344,-107.23371124267578,14.185782432556152,21.396188735961914
0,65950,89.6042251586914,-49.7180061340332,-6.287653923034668,18.434064865112305
0,65950,62.46858215332031,3.0039680004119873,-7.941244125366211,3.7244620323181152
0,65950,-31.924509048461914,21.45029640197754,28.412185668945312,22.310373306274414
0,65950,-49.729713439941406,71.65802001953125,23.415590286254883,8.907675743103027
0,65950,-47.840999603271484,58.16862487792969,-1.8353257179260254,-21.011333465576172
0,65950,-60.65766525268555,7.968461990356445,-8.962005615234375,-0.6988565921783447
0,65951,-26.88149070739746,-7.400475025177002,-1.5797016620635986,5.188015937805176
0,65951,47.835609436035156,-10.017749786376953,-24.76751708984375,-18.185739517211914
0,65951,35.21836853027344,-41.874881744384766,-31.5609130859375,0.3722168505191803
0,65951,19.682754516601562,-67.60440826416016,13.679743766784668,2.494502544403076
0,65951,65.6443099975586,-17.75218963623047,20.900127410888672,-14.244497299194336
0,65951,43.87510299682617,6.672447204589844,-1.7111685276031494,14.638405799865723
0,65952,-39.42229461669922,14.072693824768066,-0.40876924991607666,21.171083450317383
0,65952,-42.96985626220703,45.81643295288086,15.115578651428223,-21.945541381835938
0,65952,-0.9620600938796997,28.542917251586914,8.530332565307617,-10.867777824401855
0,65952,-30.857084274291992,4.646116733551025,5.210691928863525,13.930895805358887
0,65952,-29.84596061706543,1.1640377044677734,-2.2265005111694336,-3.378092050552368
0,65953,9.58100700378418,-4.469674110412598,-23.074983596801758,-2.6178812980651855
0,65953,11.733866691589355,-22.320493698120117,-17.46164894104004,-13.76463794708252
0,65953,26.743148803710938,-41.28339767456055,-4.970048904418945,-5.851073741912842
0,65953,46.51486587524414,-14.00560474395752,15.999937057495117,19.63353157043457
0,65953,23.79151725769043,11.774079322814941,19.586055755615234,0.3055163323879242
0,65953,-14.318717956542969,12.156745910644531,5.10745096206665,6.422452926635742
0,65953,-42.135047912597656,8.176365852355957,-3.7055609226226807,-5.770266056060791
0,65954,-31.541030883789062,23.64520835876465,-7.384268760681152,-26.33382797241211
0,65954,4.419381618499756,16.62495231628418,-1.439196228981018,18.595687866210938
0,65954,8.713126182556152,-6.0643157958984375,-2.5608832836151123,16.02080726623535
0,65954,3.345116376876831,3.001718521118164,-0.9831629991531372,-19.073102951049805
0,65954,11.084504127502441,-18.58650016784668,-4.991840839385986,6.837525844573975
0,65955,13.134682655334473,-19.389251708984375,9.31015682220459,31.334697723388672
0,65955,10.539587020874023,29.81793975830078,20.541833877563477,-3.9646718502044678
0,65955,15.499690055847168,24.324108123779297,-8.00654411315918,-22.11067771911621
0,65955,-3.547464370727539,-17.369064331054688,-6.337333679199219,1.840876579284668
0,65955,-30.248350143432617,28.3012752532959,14.854111671447754,10.409575462341309
0,65955,-13.933783531188965,29.28179359436035,10.945094108581543,-2.751890182495117
0,65956,-6.475052833557129,-13.13427734375,-9.366820335388184,-25.686176300048828
0,65956,-16.036373138427734,12.293804168701172,-23.146257400512695,-14.031122207641602
0,65956,-3.5545616149902344,-18.777170181274414,2.386486291885376,0.1234242171049118
0,65956,-1.6610223054885864,-35.78112030029297,18.39254379272461,3.518378734588623
0,65956,-3.3990366458892822,6.837138652801514,-2.8164150714874268,9.490715026855469
0,65956,2.8855814933776855,-1.49435293674469,-26.333576202392578,-15.288861274719238
0,65957,4.645139217376709,-20.88623809814453,-12.61976432800293,2.923647165298462
0,65957,-4.429482936859131,-1.6079391241073608,17.869104385375977,8.905252456665039
0,65957,-13.664844512939453,-1.3087214231491089,-4.378180503845215,-9.14995288848877
0,65957,-5.806695461273193,-13.117828369140625,-6.948066711425781,16.476184844970703
0,65957,-10.057887077331543,11.220651626586914,19.50319480895996,6.175734996795654
0,65957,13.143147468566895,4.9104084968566895,-9.289867401123047,-9.687457084655762
0,65958,29.88226318359375,-20.32233428955078,-23.421117782592773,5.008228778839111
0,65958,-14.183253288269043,-8.334264755249023,0.4295870065689087,14.658531188964844
0,65958,3.6042749881744385,-13.282541275024414,1.3169833421707153,0.7473832368850708
0,65958,36.31398391723633,-29.255958557128906,-2.1962029933929443,-1.4127485752105713
0,65958,0.376831591129303,1.8765296936035156,-7.588558197021484,5.2916436195373535
0,65958,-3.907336473464966,-0.8158314824104309,2.9925973415374756,-1.6686830520629883
0,65959,16.401174545288086,-27.6247615814209,23.14457893371582,-5.47613000869751
0,65959,17.021696090698242,15.61894416809082,3.4565086364746094,-10.795645713806152
0,65959,0.25914907455444336,22.95187759399414,-9.516423225402832,7.465177059173584
0,65959,-9.672089576721191,1.156022548675537,2.049142360687256,14.703948974609375
0,65959,16.838430404663086,0.16476641595363617,-5.29497766494751,1.4606877565383911
0,65961,63.879486083984375,-49.03923797607422,-15.288415908813477,26.42144775390625
0,65961,43.443416595458984,-40.13411331176758,-3.104677677154541,21.145620346069336
0,65961,-45.97051239013672,24.380908966064453,6.920742034912109,-25.73657989501953
0,65961,-28.546384811401367,12.628569602966309,-1.3555774688720703,-22.632192611694336
0,65961,33.95718765258789,-4.7945098876953125,6.855776786804199,17.25189781188965
0,65961,24.750280380249023,9.053744316101074,14.378082275390625,16.62025260925293
0,65963,73.8602294921875,-62.69559860229492,-22.68074607849121,18.160797119140625
0,65964,162.17611694335938,-115.460205078125,8.577229499816895,32.50399398803711
0,65965,55.86796188354492,61.65794372558594,83.12589263916016,-16.399703979492188
0,65968,-176.5183868408203,185.4367218017578,39.13272476196289,-72.23722076416016
0,65969,-228.09295654296875,93.45939636230469,1.6628509759902954,-56.698822021484375
0,65972,-103.00267028808594,38.235252380371094,-7.7782487869262695,0.44698065519332886
0,65973,-15.741137504577637,46.61848831176758,-30.007606506347656,2.3742802143096924
0,65976,-58.443084716796875,82.89950561523438,-7.052240371704102,-30.6407470703125
0,65977,-126.59542083740234,33.63816833496094,-12.852836608886719,-20.241931915283203
0,65980,-11.330560684204102,-132.38589477539062,-57.81782531738281,2.6537742614746094
0,65981,159.547119140625,-144.00030517578125,-71.60855102539062,15.428281784057617
0,65984,298.94232177734375,-181.08624267578125,-0.5448751449584961,136.81417846679688
0,65985,207.3959503173828,-76.28776550292969,56.82012176513672,102.04131317138672
0,65988,-213.82936096191406,226.9956817626953,58.677284240722656,-125.75590515136719
0,65989,-229.4482879638672,115.20145416259766,32.144447326660156,-79.7219009399414
0,65992,16.98153305053711,-71.84300231933594,-41.381858825683594,65.74998474121094
0,65993,44.67251968383789,-47.684051513671875,-20.982282638549805,28.484729766845703
0,65996,-0.3377474248409271,104.6133804321289,51.645145416259766,-67.34974670410156
0,65997,-127.74628448486328,163.44346618652344,-4.879301071166992,-60.31336975097656
0,66000,-56.29518127441406,-129.61526489257812,-84.2709732055664,35.02070236206055
0,66001,115.54953002929688,-191.67587280273438,-36.10942077636719,74.33988952636719
0,66004,239.61001586914062,-94.24713134765625,30.991783142089844,55.50122833251953
0,66006,172.2195587158203,-2.6895084381103516,22.721675872802734,1.261560082435608
0,66151,-342.1233215332031,260.7405700683594,53.08222198486328,-127.7015151977539
0,66152,-254.75277709960938,76.392578125,26.080814361572266,-87.53716278076172
0,66152,291.2459716796875,-216.91661071777344,-57.28916931152344,105.71321105957031
0,66152,177.56272888183594,-83.84332275390625,-11.242815971374512,81.10891723632812
0,66152,-29.50788688659668,21.43259620666504,25.28907585144043,-14.244139671325684
0,66152,-15.429267883300781,57.59442138671875,14.892112731933594,-24.36048698425293
0,66152,-87.97936248779297,100.34974670410156,23.942428588867188,-36.53604507446289
0,66153,-143.4457244873047,68.0313720703125,8.55666446685791,-18.35963249206543
0,66153,-88.84312438964844,39.45472717285156,-22.512231826782227,-7.835085868835449
0,66153,-18.41104507446289,17.401323318481445,-34.4736213684082,-16.617599487304688
0,66153,29.5571346282959,-33.65457534790039,-24.484235763549805,17.259294509887695
0,66153,80.46331024169922,-77.3618392944336,-18.054597854614258,32.329811096191406
0,66153,97.57881164550781,-79.64258575439453,1.98068368434906,32.03756332397461
0,66154,72.8202133178711,-34.05254364013672,16.32355308532715,26.991207122802734
0,66154,43.519081115722656,18.58716583251953,6.767456531524658,-20.978208541870117
0,66154,-15.113234519958496,10.628324508666992,9.493135452270508,-15.819173812866211
0,66154,-76.35295104980469,18.75978660583496,14.627837181091309,-2.267230272293091
0,66154,-84.31773376464844,78.70354461669922,20.59235382080078,-26.34473991394043
0,66155,-52.328556060791016,58.55559539794922,7.715459823608398,-16.579587936401367
0,66155,-21.23114776611328,-5.790304660797119,-28.678159713745117,-2.4730165004730225
0,66155,-11.353742599487305,-20.16049575805664,-24.186155319213867,11.82767105102539
0,66155,55.192291259765625,-30.262805938720703,-1.6326090097427368,-1.110304594039917
0,66155,81.68707275390625,-33.30741500854492,-2.3371479511260986,-6.813745498657227
0,66155,23.201038360595703,-27.88045310974121,-4.062548637390137,30.346149444580078
0,66156,-2.897242784500122,-13.044622421264648,26.056013107299805,15.45129108428955
0,66156,8.914373397827148,31.511125564575195,43.21928024291992,-17.94162368774414
0,66156,-24.997173309326172,37.29819869995117,7.242950439453125,-12.05732536315918
0,66156,-75.62593078613281,25.122568130493164,-19.33188819885254,1.1583480834960938
0,66156,-44.985008239746094,27.700855255126953,-3.639273166656494,0.3288792669773102
0,66156,5.356309413909912,-10.785888671875,-15.420698165893555,-8.531672477722168
0,66157,12.694754600524902,-50.14132308959961,-18.327716827392578,2.5963995456695557
0,66157,9.57796859741211,-31.536998748779297,-5.669198036193848,17.65320587158203
0,66157,40.69099426269531,-23.205995559692383,-23.788471221923828,5.273128032684326
0,66157,43.2154426574707,-25.084287643432617,3.5659265518188477,12.233064651489258
0,66157,11.607402801513672,-17.98921012878418,20.002893447875977,13.955824851989746
0,66157,-4.581246852874756,6.33656644821167,-4.66275691986084,-23.161060333251953
0,66158,-16.68999481201172,36.700687408447266,3.6102280616760254,-2.4947705268859863
0,66158,-11.303571701049805,5.990288257598877,14.559490203857422,20.245195388793945
0,66158,-22.783430099487305,-1.0548218488693237,-7.012612819671631,-21.389671325683594
0,66158,-11.684754371643066,11.51327133178711,-9.37890338897705,-13.247406005859375
0,66158,33.032108306884766,-26.779348373413086,-26.79124641418457,7.692004203796387
0,66158,0.6115938425064087,-32.25520324707031,-15.176947593688965,7.454296588897705
0,66159,18.02867889404297,-5.289719104766846,28.62798309326172,6.788146018981934
0,66159,55.18532943725586,-3.6964333057403564,4.142290115356445,3.627540349960327
0,66159,-8.742746353149414,-4.997078895568848,-11.50968074798584,16.5334529876709
0,66159,-3.7446129322052,-8.408774375915527,10.664275169372559,5.4219970703125
0,66159,17.7006778717041,19.467906951904297,23.21775245666504,-13.105134963989258
0,66159,-24.305782318115234,38.72145462036133,-10.17656135559082,-9.158002853393555
0,66160,-29.951181411743164,-13.570708274841309,-19.03802490234375,12.455743789672852
0,66160,-4.131242275238037,5.727368354797363,25.924673080444336,-2.3135128021240234
0,66160,27.99956512451172,26.85922622680664,8.758567810058594,-9.043810844421387
0,66160,22.92542266845703,-41.35718536376953,-8.182657241821289,21.76691436767578
0,66160,5.734436988830566,-35.967071533203125,12.87922191619873,5.39729118347168
0,66161,18.340944290161133,0.1269165277481079,-31.82277488708496,-8.378129005432129
0,66161,-1.5355377197265625,-11.01468276977539,-22.657743453979492,-8.023303985595703
0,66161,-7.348529815673828,13.098993301391602,47.826168060302734,-16.579063415527344
0,66161,9.6422758102417,19.538259506225586,7.187447547912598,-7.336127758026123
0,66161,-12.409746170043945,-17.069175720214844,-35.97761535644531,-9.469548225402832
0,66161,-11.013761520385742,-5.80468225479126,-3.0624935626983643,0.3422112762928009
0,66162,-1.74197518825531,14.020359992980957,9.039851188659668,10.870959281921387
0,66162,-0.6003144383430481,-4.003970623016357,-2.1344521045684814,8.352582931518555
0,66162,23.71531105041504,-13.160378456115723,13.74770450592041,4.519515514373779
0,66162,9.55134105682373,-6.609230041503906,15.57386302947998,-10.941004753112793
0,66162,-7.190647602081299,12.4300537109375,-25.614788055419922,-6.285813331604004
0,66162,6.63231897354126,15.921032905578613,-8.624804496765137,18.345211029052734
0,66163,10.679924964904785,-16.079753875732422,32.73868179321289,18.824575424194336
0,66163,-11.317007064819336,19.6273193359375,3.9643986225128174,-20.325428009033203
0,66163,-18.053319931030273,22.96678352355957,-30.24900245666504,-5.820415019989014
0,66163,12.630631446838379,-13.905253410339355,0.1366434246301651,16.518760681152344
0,66163,3.6176295280456543,-3.392387628555298,19.091894149780273,-20.4117431640625
0,66163,-18.90104103088379,-8.290407180786133,-3.4763317108154297,-11.160173416137695
0,66164,2.5452961921691895,17.42536735534668,18.1230525970459,23.560585021972656
0,66164,16.8261775970459,5.286277770996094,9.037186622619629,4.46094274520874
0,66165,50.71730422973633,-8.183916091918945,3.215646505355835,-54.402313232421875
0,66165,8.42959213256836,31.939815521240234,19.569366455078125,-34.0243034362793
0,66165,-77.89862823486328,24.230812072753906,-16.4327335357666,30.262720108032227
0,66165,-35.2286262512207,11.470694541931152,-0.3060958981513977,-3.867190361022949
0,66166,-18.51868438720703,21.559343338012695,16.89763069152832,-17.142017364501953
0,66166,-14.423964500427246,24.8070125579834,5.629924297332764,18.164714813232422
0,66167,-17.741186141967773,45.30988311767578,28.546648025512695,17.080677032470703
0,66168,-77.3150405883789,49.67616271972656,-1.0848736763000488,12.796636581420898
0,66170,-95.57403564453125,-7.8331146240234375,-52.59560012817383,-12.475483894348145
0,66172,-93.32643127441406,13.773534774780273,-16.596235275268555,-22.632404327392578
0,66174,8.800039291381836,4.1304121017456055,4.139442443847656,25.28604507446289
0,66176,-21.718692779541016,68.1843490600586,17.873674392700195,-45.46358871459961
0,66178,-117.87279510498047,105.9389877319336,-4.587990760803223,-49.519527435302734
0,66180,150.73182678222656,-252.56582641601562,-117.44254302978516,116.39965057373047
0,66182,288.6125183105469,-337.0374755859375,-68.29350280761719,75.69366455078125
0,66185,269.563232421875,-91.63356018066406,86.30982208251953,12.274938583374023
0,66186,168.55186462402344,96.56041717529297,102.18478393554688,6.240275859832764
0,66189,-258.3754577636719,220.35655212402344,18.308940887451172,-82.1849594116211
0,66190,-244.25657653808594,41.015541076660156,-14.411788940429688,-83.31192779541016
0,66193,28.59063720703125,-51.32938003540039,-4.368013381958008,12.017146110534668
0,66194,11.467350959777832,52.33869552612305,-24.071380615234375,91.50878143310547
0,66197,-69.5235366821289,90.08194732666016,0.01515976618975401,-22.14961814880371
0,66198,-135.88079833984375,54.43943405151367,35.604705810546875,-93.30038452148438
0,66199,-22.634546279907227,-135.64442443847656,-33.61606979370117,15.305625915527344
0,66202,198.4262237548828,-163.73594665527344,-73.88545989990234,97.90587615966797
0,66203,262.5324401855469,-70.83578491210938,-12.498666763305664,104.6661376953125
0,66206,82.30218505859375,17.51071548461914,51.61897659301758,-61.88483810424805
0,66207,-128.0001678466797,165.65614318847656,66.01012420654297,-108.84196472167969
0,66210,-202.08030700683594,62.87317657470703,-7.893648147583008,2.923421621322632
0,66211,-44.956783294677734,-104.00260162353516,-43.24519348144531,5.959146976470947
0,66366,346.6021728515625,-183.03607177734375,-7.351179122924805,58.683807373046875
0,66366,258.30322265625,-107.84060668945312,16.568941116333008,61.67958450317383
0,66366,-229.64410400390625,186.17724609375,51.338951110839844,-52.90074920654297
0,66366,-207.5789031982422,190.4635772705078,33.19620895385742,-59.0232048034668
0,66366,-77.02017211914062,50.91967010498047,-16.015825271606445,-34.23102569580078
0,66366,-118.1288833618164,44.49856948852539,-25.001996994018555,-6.456711769104004
0,66367,-59.8950309753418,9.088808059692383,-12.588727951049805,11.313961029052734
0,66367,7.039855003356934,-20.675098419189453,-18.118532180786133,10.791417121887207
0,66367,66.37825012207031,-54.89763641357422,-31.621164321899414,42.24116516113281
0,66367,82.82627868652344,-62.852046966552734,-6.98316764831543,18.52153778076172
0,66367,36.866939544677734,-24.901151657104492,2.6394927501678467,-15.46309757232666
0,66367,-5.728170871734619,1.5955333709716797,16.41740608215332,-8.956351280212402
0,66368,-26.33626937866211,17.27068519592285,36.76790237426758,9.060407638549805
0,66368,-58.998783111572266,17.683475494384766,-4.603631496429443,-6.528563022613525
0,66368,-60.09181594848633,37.06019592285156,-20.772457122802734,-26.497011184692383
0,66368,-39.560028076171875,39.00117492675781,0.7206111550331116,-9.381551742553711
0,66368,-2.763313055038452,-16.950990676879883,-11.713296890258789,0.6823827624320984
0,66368,33.477134704589844,-37.97783660888672,-2.945399761199951,8.839520454406738
0,66369,57.837154388427734,-18.900789260864258,-6.350823402404785,25.116596221923828
0,66369,49.3017463684082,-15.497247695922852,-13.905412673950195,17.986175537109375
0,66369,0.10503490269184113,-34.92274856567383,9.940286636352539,8.763859748840332
0,66369,11.850221633911133,-11.985529899597168,14.036393165588379,11.812088966369629
0,66369,16.282896041870117,38.31959533691406,12.711075782775879,-7.302231311798096
0,66369,-35.49201202392578,44.638160705566406,6.47674560546875,-39.99474334716797
0,66370,-39.60152816772461,16.7238712310791,-1.6831399202346802,-3.874573230743408
0,66370,-27.060199737548828,-4.631498336791992,-11.426356315612793,4.228061199188232
0,66370,-4.265427589416504,-3.7076871395111084,-10.786040306091309,-33.31189727783203
0,66370,29.383325576782227,-16.989620208740234,-0.08516279608011246,21.363296508789062
0,66370,31.748729705810547,-27.775068283081055,5.771760940551758,44.77580642700195
0,66371,25.305110931396484,-2.465909242630005,-3.200155735015869,-7.715886116027832
0,66371,13.763460159301758,1.415847897529602,-20.63796615600586,-28.486406326293945
0,66371,11.00918197631836,9.563188552856445,8.319811820983887,5.285506248474121
0,66371,15.28867244720459,25.18450164794922,23.937484741210938,16.79056167602539
0,66371,-26.99525260925293,-2.423632860183716,13.552711486816406,-9.34449577331543
0,66371,-43.685970306396484,9.32747745513916,11.435956001281738,-8.92955493927002
0,66372,9.125383377075195,23.07499885559082,-10.340362548828125,-0.6971240043640137
0,66372,0.29077717661857605,-10.02126693725586,-6.299768447875977,-12.141921043395996
0,66372,-21.83724021911621,-29.697463989257812,5.571572303771973,-13.962898254394531
0,66372,30.628341674804688,-9.246241569519043,-10.822253227233887,-6.750132083892822
0,66372,46.1024284362793,-15.862907409667969,-34.247013092041016,-2.1327455043792725
0,66372,-10.015645027160645,-29.52851104736328,12.365959167480469,31.765954971313477
0,66373,-22.518394470214844,27.778114318847656,35.46804428100586,14.057397842407227
0,66373,5.624218940734863,13.544466018676758,-11.413288116455078,-18.87296485900879
0,66373,-3.045271873474121,-6.424387454986572,10.306534767150879,9.89664363861084
0,66373,-17.208820343017578,22.900117874145508,-6.319604873657227,5.444447994232178
0,66373,-3.5559961795806885,-0.959246814250946,-24.987106323242188,-22.962890625
0,66373,-1.6599647998809814,-15.880942344665527,13.138891220092773,-6.280303001403809
0,66374,-2.8531765937805176,-13.886883735656738,1.3599705696105957,36.95878982543945
0,66374,19.35483169555664,11.261615753173828,-12.720674514770508,9.572294235229492
0,66374,30.748079299926758,4.1228437423706055,4.289914131164551,-19.603137969970703
0,66374,1.7342751026153564,-8.716571807861328,27.370044708251953,3.153820276260376
0,66374,-3.475970506668091,40.7778205871582,14.636300086975098,-2.786313056945801
0,66374,-3.2778537273406982,18.32836151123047,-22.80323600769043,-16.588390350341797
0,66375,-32.511558532714844,-13.785604476928711,-15.721514701843262,-3.215186357498169
0,66375,-7.910080432891846,28.35151481628418,11.016548156738281,-2.483189582824707
0,66375,0.866881251335144,6.606437683105469,5.171815395355225,-13.693882942199707
0,66375,-33.611961364746094,-17.728525161743164,-8.633770942687988,7.419694900512695
0,66375,-20.37059783935547,3.3293395042419434,3.148517370223999,11.648249626159668
0,66376,9.934858322143555,-6.475942134857178,6.269233226776123,-4.2156195640563965
0,66376,5.134166717529297,-24.583959579467773,-13.777045249938965,-6.0531206130981445
0,66376,-3.094806432723999,-26.491641998291016,-7.3322272300720215,3.80851149559021
0,66376,0.27761220932006836,-9.288602828979492,-1.5545560121536255,7.655762672424316
0,66376,-6.432255268096924,-4.539247989654541,-12.161441802978516,8.73630142211914
0,66376,0.5549254417419434,4.413740158081055,10.105853080749512,-3.5967912673950195
0,66376,10.712867736816406,-1.7025372982025146,12.345438003540039,-9.536243438720703
0,66377,-3.4579100608825684,-32.627418518066406,-11.374393463134766,3.0240707397460938
0,66377,7.0716986656188965,-20.310293197631836,-7.112575054168701,3.0287840366363525
0,66377,13.063446044921875,13.759746551513672,9.501701354980469,16.65321922302246
0,66377,4.7131547927856445,22.439067840576172,3.797342300415039,5.140405178070068
0,66377,10.883392333984375,3.8786964416503906,-18.861337661743164,-9.925727844238281
0,66377,3.3901095390319824,-4.663073539733887,-6.277027606964111,-3.305644989013672
0,66378,8.867018699645996,-12.017486572265625,8.538485527038574,-8.053792953491211
0,66378,16.22897720336914,-6.472965240478516,9.156804084777832,11.446854591369629
0,66378,8.717094421386719,27.03765106201172,4.671445369720459,10.132783889770508
0,66378,1.577389121055603,8.461673736572266,-9.40504264831543,-11.186256408691406
0,66378,-7.581849575042725,-27.416316986083984,-9.596420288085938,19.61956214904785
0,66379,-5.467879295349121,-3.5594723224639893,18.128536224365234,15.3514404296875
0,66380,75.06965637207031,-41.3095588684082,-2.0736470222473145,8.067109107971191
0,66380,80.19766235351562,-43.59000015258789,-32.814056396484375,32.46318817138672
0,66380,-34.23400115966797,48.968894958496094,17.40299415588379,-19.809030532836914
0,66380,-29.4068546295166,14.921808242797852,19.286348342895508,-25.791292190551758
0,66381,-9.035836219787598,-26.83463478088379,-13.529176712036133,6.401476860046387
0,66381,-17.744895935058594,-3.3675310611724854,-14.713974952697754,9.092774391174316
0,66381,16.800630569458008,11.712699890136719,6.089003086090088,-1.9949020147323608
0,66382,109.47611236572266,-81.6673812866211,19.384363174438477,30.20475196838379
0,66384,163.65248107910156,-120.4933090209961,2.354414939880371,25.27678108215332
0,66386,16.781747817993164,154.8199462890625,60.81142044067383,-80.6803207397461
0,66388,-161.78260803222656,178.06805419921875,63.98848342895508,-35.72224807739258
0,66390,-232.79049682617188,-7.627664089202881,-39.20730972290039,-19.433696746826172
0,66392,-119.27456665039062,68.10204315185547,-30.356882095336914,-23.492408752441406
0,66394,26.86966323852539,77.94049072265625,-0.23870640993118286,33.78526306152344
0,66396,-61.45412063598633,69.34528350830078,-0.45098522305488586,-30.00501251220703
0,66398,-137.46282958984375,-9.357072830200195,-12.450636863708496,-34.87487030029297
0,66400,41.730628967285156,-171.9462890625,-60.385597229003906,51.3346061706543
0,66402,324.87762451171875,-240.84390258789062,-64.78413391113281,98.15474700927734
0,66404,265.9761047363281,-155.06439208984375,4.8517560958862305,45.03122329711914
0,66406,-99.63530731201172,186.78616333007812,102.94923400878906,-42.23819351196289
0,66408,-192.13746643066406,186.49755859375,54.46923828125,-41.2598991394043
0,66410,-108.07866668701172,-49.035701751708984,-50.09813690185547,-35.2162971496582
0,66412,-30.920730590820312,-12.162731170654297,-28.762056350708008,-18.963001251220703
0,66415,102.1327133178711,124.13672637939453,28.464149475097656,36.88850402832031
0,66416,8.929844856262207,55.27531051635742,18.05913734436035,-37.36566162109375
0,66419,-182.54263305664062,-136.74351501464844,-38.878929138183594,-33.657936096191406
0,66420,-35.06427764892578,-54.71285629272461,-48.20092010498047,66.8115005493164
0,66423,263.44293212890625,-108.9413833618164,-25.36012840270996,26.022226333618164
0,66424,211.3780059814453,-123.72032928466797,11.711359024047852,10.911027908325195
0,66427,-101.33387756347656,191.30072021484375,73.40082550048828,-12.194891929626465
0,66428,-155.55003356933594,152.4364471435547,46.07526779174805,-22.561614990234375
0,66429,-11.021308898925781,-86.41129302978516,-41.72925567626953,-0.4604274034500122
1,67304,223.8654327392578,-235.59933471679688,-72.11893463134766,37.428565979003906
1,67306,159.28460693359375,-58.165626525878906,34.420631408691406,48.01845169067383
1,67308,-220.517578125,261.91595458984375,91.2370834350586,-57.94183349609375
1,67310,-212.04702758789062,102.81034088134766,-13.416759490966797,-48.78874588012695
1,67312,-99.0563735961914,53.87120819091797,1.55754554271698,-18.580791473388672
1,67314,-142.17823791503906,237.96646118164062,33.59728240966797,-50.05314636230469
1,67316,-176.33697509765625,83.16088104248047,-42.45477294921875,-30.687232971191406
1,67325,327.9631652832031,-402.5628662109375,-83.25946807861328,76.52848815917969
1,67326,455.1674499511719,-337.47314453125,-15.699699401855469,117.95036315917969
1,67326,-217.80538940429688,178.57012939453125,30.504135131835938,-30.639360427856445
1,67326,-82.99931335449219,58.17218017578125,-16.615604400634766,-35.52305221557617
1,67326,187.56564331054688,-128.77496337890625,-4.427031993865967,37.23158645629883
1,67327,-22.8250789642334,20.03898048400879,40.515865325927734,8.12081527709961
1,67330,-130.16917419433594,94.71308135986328,21.059770584106445,-6.034173965454102
1,67332,-109.057861328125,70.28870391845703,-18.121408462524414,-61.57710266113281
1,67334,-90.01599884033203,188.5782470703125,17.26742935180664,-65.67436218261719
1,67336,-190.4615936279297,199.17234802246094,23.269052505493164,-5.692744731903076
1,67338,-40.976802825927734,-189.71656799316406,-89.85296630859375,39.78388595581055
1,67340,215.44296264648438,-289.0517272949219,-88.90918731689453,77.82328033447266
1,67342,341.63262939453125,-161.28172302246094,44.82313919067383,60.129581451416016
1,67344,237.55618286132812,-36.51942825317383,86.09989929199219,12.84205436706543
1,67346,-187.248291015625,223.85910034179688,44.613162994384766,-81.25401306152344
1,67348,-201.0469970703125,129.41233825683594,7.577816009521484,-58.25046157836914
1,67370,40.84672927856445,-105.0131607055664,-10.354777336120605,55.857852935791016
1,67371,29.791048049926758,-72.4069595336914,-13.22935676574707,28.22179412841797
1,67371,20.795305252075195,30.900848388671875,-8.132630348205566,-29.333982467651367
1,67371,-62.29930114746094,77.74970245361328,9.992780685424805,-37.90713882446289
1,67371,-135.1878662109375,67.53398132324219,7.771369457244873,-23.23761558532715
1,67371,-87.57420349121094,44.255165100097656,-21.340473175048828,-8.460991859436035
1,67371,-39.092281341552734,31.867794036865234,-12.317902565002441,-5.4093732833862305
1,67372,23.857236862182617,-20.57940673828125,-1.2046799659729004,6.52311897277832
1,67372,66.68456268310547,-90.92668151855469,-9.340575218200684,32.44950485229492
1,67372,91.35264587402344,-69.96227264404297,-1.9127240180969238,32.98743438720703
1,67372,110.4081802368164,-19.914339065551758,-4.874073505401611,-0.38005849719047546
1,67373,34.295841217041016,68.10230255126953,37.74921798706055,-2.8281195163726807
1,67374,-50.66230392456055,109.43817901611328,45.89728927612305,-0.9981056451797485
1,67376,-162.62075805664062,-8.073820114135742,-70.70747375488281,-29.308256149291992
1,67378,-137.7620849609375,-86.29032135009766,-89.23185729980469,-16.469907760620117
1,67380,256.5061340332031,-194.6030731201172,-8.472857475280762,53.83926773071289
1,67382,299.7821960449219,-144.15159606933594,40.88934326171875,57.3057746887207
1,67384,-2.2435710430145264,126.33143615722656,81.05602264404297,-12.289817810058594
1,67386,-88.17562103271484,165.0982666015625,47.138938903808594,-81.53706359863281
1,67388,-182.49325561523438,70.95731353759766,-31.218429565429688,-41.629966735839844
1,67390,-106.0463638305664,-61.636573791503906,-51.72925567626953,72.83763885498047
1,67392,77.63617706298828,-52.0257568359375,-4.259466171264648,24.646575927734375
1,67394,-26.658782958984375,153.5028533935547,55.44695281982422,-65.59272003173828
1,67396,-182.9317169189453,106.19725799560547,9.96216106414795,-18.640872955322266
1,67431,71.91577911376953,-144.61019897460938,-20.79479217529297,32.05668258666992
1,67431,170.0394287109375,-105.84408569335938,27.75187110900879,-2.3105993270874023
1,67431,-189.09828186035156,150.16534423828125,-21.558717727661133,-18.932723999023438
1,67431,-91.66357421875,65.83197021484375,-45.01364517211914,4.952334403991699
1,67432,117.06200408935547,-124.3851318359375,-7.803056240081787,17.405521392822266
1,67432,79.51607513427734,-94.90579986572266,-11.66253662109375,23.552215576171875
1,67432,103.54832458496094,-56.384605407714844,-0.7815824151039124,20.5257625579834
1,67432,89.64002227783203,-24.753684997558594,7.298024654388428,13.162249565124512
1,67432,27.73265266418457,27.88132667541504,25.306238174438477,-13.761899948120117
1,67432,-44.34705352783203,48.49885559082031,23.2120304107666,-25.846220016479492
1,67433,-95.99467468261719,97.72441864013672,10.599689483642578,-1.1057517528533936
1,67433,-96.05310821533203,113.23541259765625,16.06021499633789,-16.34551239013672
1,67433,-60.168487548828125,32.31243133544922,-14.609954833984375,-40.182533264160156
1,67433,-31.078060150146484,-19.258913040161133,-28.502790451049805,12.402498245239258
1,67433,28.092374801635742,-55.70945358276367,-8.544538497924805,30.87345314025879
1,67434,53.74894714355469,-55.48591995239258,3.6373414993286133,-4.367851257324219
1,67434,47.95722198486328,-29.930713653564453,-0.7071883082389832,6.496233940124512
1,67435,0.6190993785858154,0.3962908685207367,-6.280640125274658,-2.625643491744995
1,67435,-47.88262176513672,10.955628395080566,5.38539457321167,-11.52232837677002
1,67436,4.194447994232178,-7.333194732666016,-10.465283393859863,31.395668029785156
1,67438,43.7595100402832,-59.05418014526367,-40.889068603515625,44.01393508911133
1,67440,155.02003479003906,-312.06451416015625,-65.03768157958984,37.77070236206055
1,67442,199.21690368652344,-195.39479064941406,-26.58839225769043,21.649019241333008
1,67445,-1.2658110857009888,298.79241943359375,133.2871551513672,-61.04375076293945
1,67446,-142.69894409179688,234.5234375,112.02743530273438,-62.2198371887207
1,67449,-168.8573455810547,-13.831424713134766,-57.35341262817383,16.574026107788086
1,67450,-60.12432098388672,6.4736409187316895,-53.657737731933594,2.9982399940490723
1,67451,84.09417724609375,-7.007505893707275,11.284089088439941,-25.89554786682129
1,67454,-70.14714813232422,105.90522003173828,36.551029205322266,-13.756637573242188
1,67455,-197.21694946289062,175.96249389648438,31.3645076751709,-8.497272491455078
1,67458,-10.414411544799805,-90.95518493652344,-50.980628967285156,-5.098961353302002
1,67459,129.42178344726562,-168.42909240722656,-71.74046325683594,21.370817184448242
1,67507,144.97412109375,-27.743589401245117,79.94525909423828,24.176538467407227
1,67507,48.18842697143555,20.365333557128906,61.6566276550293,-9.973493576049805
1,67507,-105.4597396850586,8.46138858795166,-89.77796936035156,5.511625289916992
1,67508,-5.192349433898926,-63.79591369628906,-34.656009674072266,29.972702026367188
1,67508,138.8798065185547,-76.9402847290039,11.397911071777344,13.313394546508789
1,67508,86.23587799072266,-59.814117431640625,-4.676932334899902,-3.1532626152038574
1,67508,9.39282512664795,-11.391745567321777,30.983745574951172,-16.758581161499023
1,67508,-55.631046295166016,93.67699432373047,28.616214752197266,-1.7491847276687622
1,67508,-100.54054260253906,133.11813354492188,18.88287925720215,-12.327239990234375
1,67509,-111.14649963378906,93.84796142578125,-3.7433390617370605,-46.85896301269531
1,67509,-110.75660705566406,37.562015533447266,-26.940200805664062,-9.908565521240234
1,67509,-45.989410400390625,-3.324105978012085,-20.011981964111328,34.18580627441406
1,67509,27.188440322875977,-27.90433692932129,-26.438396453857422,6.160556793212891
1,67509,63.289398193359375,-64.60467529296875,-11.273056030273438,-7.70077657699585
1,67509,92.5439453125,-73.02076721191406,12.36169147491455,0.74409019947052
1,67510,70.98724365234375,-49.919952392578125,0.3299865126609802,1.570321798324585
1,67510,18.35900115966797,-17.454360961914062,7.734918117523193,30.280109405517578
1,67510,-6.062932968139648,44.9195671081543,34.920623779296875,4.905003070831299
1,67510,-40.47565841674805,57.58717727661133,13.80747127532959,-26.833362579345703
1,67510,-63.64808654785156,35.83906173706055,-9.000285148620605,-11.026379585266113
1,67511,-61.2650146484375,27.3487606048584,-4.242664337158203,0.07668917626142502
1,67511,-16.922897338867188,5.423525333404541,-2.9218688011169434,10.082132339477539
1,67511,46.448726654052734,-28.387615203857422,-18.212461471557617,-5.628390312194824
1,67512,21.586320877075195,-12.371134757995605,-9.127532958984375,7.73119592666626
1,67512,37.77210998535156,9.29428768157959,21.247833251953125,36.7200813293457
1,67512,67.09002685546875,-35.25254440307617,1.5443601608276367,-10.477109909057617
1,67514,-56.114315032958984,79.55152893066406,13.140915870666504,-42.498661041259766
1,67517,-169.29623413085938,49.46924591064453,-33.3734245300293,-22.65801239013672
1,67518,-0.39242783188819885,-205.81497192382812,-91.3860855102539,33.2098274230957
1,67519,226.9877166748047,-119.27830505371094,12.228891372680664,63.634403228759766
1,67522,275.0674133300781,-73.43256378173828,48.58012008666992,58.28654098510742
1,67523,124.20870208740234,-10.944846153259277,37.019569396972656,-1.4375860691070557
1,67526,-255.12957763671875,219.6986083984375,38.75639343261719,-123.9048080444336
1,67527,-242.98544311523438,78.88638305664062,1.670364260673523,-40.10572052001953
1,67530,23.069589614868164,-65.37997436523438,-6.769924163818359,58.666595458984375
1,67531,11.804375648498535,-0.10356444120407104,-10.904040336608887,8.001130104064941
1,67534,-51.20419692993164,104.97256469726562,14.804911613464355,-38.62675476074219
1,67535,-115.39956665039062,150.37307739257812,15.396758079528809,-61.88676834106445
1,67538,-28.07695770263672,-113.91325378417969,-62.7760009765625,43.183475494384766
1,67539,134.47100830078125,-208.11590576171875,-41.17131042480469,104.25975799560547
1,67599,-36.03281021118164,109.489990234375,40.53468704223633,-46.301849365234375
1,67599,-147.1226348876953,142.16722106933594,3.3631999492645264,-97.97569274902344
1,67599,81.83877563476562,-92.8585205078125,-44.292572021484375,43.80617904663086
1,67599,135.84146118164062,-126.2095718383789,-18.69135284423828,74.3483657836914
1,67599,93.35270690917969,-91.6246337890625,21.91807746887207,10.717386245727539
1,67599,112.8775405883789,-54.86265182495117,10.976442337036133,5.331925392150879
1,67600,54.54541015625,-2.850041389465332,5.0785698890686035,6.974021911621094
1,67600,7.450204849243164,21.803226470947266,20.536073684692383,-12.826687812805176
1,67600,-33.90900421142578,81.08379364013672,26.913881301879883,-0.6845628023147583
1,67600,-73.75308227539062,103.7957992553711,23.64238739013672,-17.744524002075195
1,67600,-54.917381286621094,47.75592803955078,-3.8016321659088135,-33.43614196777344
1,67601,-35.70700454711914,-6.047848224639893,-9.26524829864502,4.309810161590576
1,67601,-34.702232360839844,-16.307327270507812,-7.433151721954346,16.217805862426758
1,67601,31.800884246826172,-39.392372131347656,-11.282235145568848,17.92677116394043
1,67601,87.42437744140625,-56.95005416870117,-14.377668380737305,17.417207717895508
1,67601,53.49598693847656,-30.442157745361328,-7.516709804534912,7.192573070526123
1,67601,2.004922389984131,-1.9431365728378296,9.393478393554688,-10.226150512695312
1,67602,-25.706039428710938,32.318145751953125,24.21416664123535,-16.482954025268555
1,67602,-33.49066162109375,47.555702209472656,22.515756607055664,-21.768037796020508
1,67602,-47.47526168823242,24.993032455444336,4.068230152130127,-19.6621150970459
1,67602,-47.76567077636719,18.158979415893555,-5.476236343383789,17.331209182739258
1,67602,-38.51758575439453,41.875850677490234,-3.957643985748291,14.791399002075195
1,67602,4.275658130645752,4.516547203063965,-19.56070327758789,-22.53891944885254
1,67603,41.79402160644531,-48.40727615356445,-12.670510292053223,-8.960556030273438
1,67603,5.626867771148682,-20.79239273071289,8.846667289733887,3.118272542953491
1,67603,11.586255073547363,3.7840213775634766,0.29965972900390625,1.2132604122161865
1,67603,14.968257904052734,1.1758769750595093,16.778614044189453,15.535493850708008
1,67603,-17.91401481628418,18.196895599365234,18.553997039794922,-11.616472244262695
1,67604,-22.734468460083008,40.753299713134766,-5.326085090637207,-33.61991882324219
1,67605,-74.93013000488281,45.193824768066406,12.376666069030762,-9.095069885253906
1,67605,-71.07785034179688,29.974618911743164,1.0399835109710693,12.608743667602539
1,67605,13.213460922241211,-19.69489097595215,-26.19886589050293,13.494612693786621
1,67607,-47.45274353027344,-25.713584899902344,2.8981807231903076,-20.058391571044922
1,67608,-80.00855255126953,9.739313125610352,-3.759552478790283,-17.845760345458984
1,67611,-20.24598503112793,10.122554779052734,-45.11095428466797,-2.612545967102051
1,67612,12.639968872070312,-22.196645736694336,-23.767532348632812,-11.107744216918945
1,67613,48.97176742553711,72.39866638183594,51.474632263183594,4.763723373413086
1,67616,-88.48526763916016,134.57362365722656,19.691055297851562,-2.3926563262939453
1,67617,-54.90292739868164,-136.12294006347656,-80.49095153808594,33.52399444580078
1,67620,327.14990234375,-358.50042724609375,-72.79562377929688,49.0916633605957
1,67621,345.5019226074219,-162.83221435546875,-4.3145432472229,55.24393844604492
1,67624,49.6581916809082,166.08529663085938,110.45404815673828,56.29403305053711
1,67625,-135.34132385253906,155.9229278564453,113.01587677001953,-51.422916412353516
1,67628,-230.6798858642578,60.3566780090332,-40.919429779052734,-69.8095703125
1,67629,-65.36476135253906,24.993009567260742,-46.975276947021484,-7.122929573059082
1,67632,80.37022399902344,-42.18291091918945,30.797279357910156,16.495359420776367
1,67633,-33.45014572143555,104.98018646240234,13.137264251708984,-28.025501251220703
1,67636,-141.85694885253906,81.24317169189453,-37.53213119506836,-47.92835235595703
1,67707,160.35916137695312,-241.04637145996094,25.71663475036621,53.117881774902344
1,67707,258.30950927734375,-115.16307830810547,59.117149353027344,46.29073715209961
1,67707,-256.98516845703125,215.36880493164062,-50.711849212646484,-59.82343292236328
1,67707,-193.13970947265625,61.31493377685547,-50.132911682128906,-30.348121643066406
1,67708,108.57740020751953,-85.45507049560547,-3.27289080619812,12.27353286743164
1,67708,73.29962158203125,-37.08021926879883,-4.227004051208496,14.245284080505371
1,67708,74.466796875,-69.71195983886719,-3.871959686279297,30.102991104125977
1,67708,41.30347442626953,-59.67512893676758,-2.529104232788086,3.152562379837036
1,67708,-4.253604888916016,20.05029296875,1.0918959379196167,-22.989887237548828
1,67708,-44.054359436035156,35.648780822753906,-6.067205905914307,-3.3657143115997314
1,67709,-96.06631469726562,51.259029388427734,2.754676580429077,7.182357311248779
1,67709,-81.64580535888672,101.7800064086914,19.395278930664062,-30.8441219329834
1,67709,-33.78386306762695,36.394901275634766,0.4553316533565521,-12.959861755371094
1,67709,-19.468015670776367,-14.575531005859375,-24.553600311279297,33.38082504272461
1,67709,35.682796478271484,-13.249068260192871,-20.431255340576172,5.648708820343018
1,67709,73.00691223144531,-57.63924789428711,-0.7073201537132263,10.401268005371094
1,67710,43.81791687011719,-51.56301498413086,11.658884048461914,53.093631744384766
1,67710,50.041748046875,-6.347871780395508,21.54680061340332,41.797969818115234
1,67710,44.35858154296875,3.1178228855133057,26.22300910949707,6.59212589263916
1,67710,-21.04114532470703,7.0225510597229,-11.930267333984375,-27.67320442199707
1,67710,-46.41493606567383,44.881404876708984,-7.109108924865723,-12.532076835632324
1,67710,-44.48220443725586,67.83695220947266,28.459630966186523,14.573395729064941
1,67711,-26.291366577148438,28.617813110351562,-4.077189922332764,-36.91154098510742
1,67711,-1.806704044342041,-29.22968864440918,-27.02583885192871,-45.18571853637695
1,67711,4.288334369659424,-29.770694732666016,8.941243171691895,15.905591011047363
1,67711,50.690181732177734,-3.306523561477661,5.785240650177002,15.901487350463867
1,67711,50.122718811035156,-20.952880859375,-15.811813354492188,5.596071243286133
1,67712,4.42023229598999,-39.55406951904297,2.7517595291137695,13.75885009765625
1,67712,9.992271423339844,0.9714810252189636,-7.85624885559082,-14.86552906036377
1,67712,-9.147408485412598,28.26028060913086,6.251408100128174,-18.38046646118164
1,67712,-38.41514205932617,22.93169593811035,24.982887268066406,10.927347183227539
1,67712,-22.742589950561523,21.174596786499023,-15.134627342224121,-20.800500869750977
1,67712,-33.2996940612793,11.47900104522705,-17.355876922607422,-24.858741760253906
1,67713,-22.870433807373047,12.257092475891113,13.926055908203125,8.677574157714844
1,67713,29.911922454833984,-23.670007705688477,1.7223353385925293,4.382310390472412
1,67714,-48.06325149536133,19.411808013916016,-8.94005298614502,-35.28015899658203
1,67714,-60.91294860839844,38.715553283691406,17.822298049926758,-29.408750534057617
1,67714,65.23511505126953,-66.21855926513672,2.6314876079559326,53.44062423706055
1,67714,38.0013427734375,-42.766563415527344,-4.638479232788086,11.932897567749023
1,67716,-71.97486114501953,-3.5899147987365723,2.582557201385498,-14.592503547668457
1,67719,56.95071792602539,-152.0668182373047,-26.95166015625,54.33357238769531
1,67720,261.22821044921875,-207.87693786621094,-19.824037551879883,43.80906295776367
1,67721,165.71006774902344,-4.1918134689331055,18.133481979370117,13.382387161254883
1,67724,33.071617126464844,149.94480895996094,70.16585540771484,-8.020825386047363
1,67725,-107.60682678222656,147.27658081054688,46.79771423339844,-48.50688552856445
1,67728,-269.21539306640625,42.66178894042969,-46.87466049194336,-39.37457275390625
1,67729,-96.65794372558594,-23.86940574645996,-29.680055618286133,11.667072296142578
1,67732,50.420875549316406,60.60059356689453,3.331127166748047,32.519500732421875
1,67733,-64.35662841796875,167.4516143798828,12.657161712646484,-36.67192840576172
1,67736,-163.46372985839844,77.53170013427734,-14.397007942199707,-101.25218963623047
1,67737,-72.10260009765625,-114.71222686767578,-74.84165954589844,4.063579082489014
1,67740,275.3107604980469,-238.2611083984375,-41.772647857666016,150.8223419189453
1,67741,290.1236267089844,-162.18862915039062,16.034788131713867,85.9797592163086
1,67744,-43.04443359375,148.04025268554688,95.87284851074219,-116.90129089355469
1,67745,-151.26947021484375,170.3480682373047,71.4150390625,-72.65847778320312
1,67748,-135.7215576171875,-16.682544708251953,-63.3582878112793,52.337120056152344
1,67832,-56.541175842285156,-24.68981170654297,-68.61088562011719,11.113851547241211
1,67832,112.12583923339844,-30.510604858398438,17.865732192993164,12.718368530273438
1,67832,134.55943298339844,-28.8077335357666,51.43465805053711,-2.1251485347747803
1,67832,-20.574705123901367,68.5088119506836,11.492829322814941,-35.51593017578125
1,67832,-118.53012084960938,91.95938873291016,2.7336015701293945,-21.882904052734375
1,67832,-129.41323852539062,63.377403259277344,9.788780212402344,-20.95965576171875
1,67833,-76.47945404052734,44.56270980834961,-28.284374237060547,-4.7955193519592285
1,67833,-0.7728409767150879,-14.59262466430664,-38.029632568359375,1.0080267190933228
1,67833,43.7989501953125,-70.77791595458984,-4.906239986419678,28.23514175415039
1,67833,92.01244354248047,-99.68155670166016,11.288207054138184,39.34016799926758
1,67833,110.12354278564453,-71.9432373046875,-14.3905029296875,-15.31675910949707
1,67833,75.61888122558594,-38.73337173461914,1.723441243171692,6.463266849517822
1,67834,16.76127815246582,-13.321528434753418,25.321775436401367,31.161670684814453
1,67834,-48.2249755859375,66.11767578125,4.928835868835449,-23.538410186767578
1,67834,-85.41656494140625,77.5999526977539,8.070243835449219,-44.26852035522461
1,67834,-75.62674713134766,16.998376846313477,2.056575298309326,-13.462942123413086
1,67834,-56.60735321044922,6.324581623077393,-13.88547134399414,32.237518310546875
1,67835,-0.7205690741539001,2.746633768081665,-9.171786308288574,22.952428817749023
1,67835,49.19290542602539,-49.4054069519043,-14.945228576660156,-3.441835880279541
1,67835,54.861610412597656,-87.91553497314453,-17.97088050842285,24.959890365600586
1,67835,68.68785858154297,-40.22107696533203,-4.216783046722412,27.85166358947754
1,67835,57.5344123840332,9.854801177978516,-4.177999019622803,-4.283736705780029
1,67835,23.57202911376953,-11.873685836791992,18.930830001831055,15.755825996398926
1,67836,-20.262483596801758,13.162210464477539,30.578472137451172,22.544994354248047
1,67836,-44.32865905761719,58.870418548583984,-10.067938804626465,-34.83827209472656
1,67836,-38.24658966064453,9.252918243408203,-8.413677215576172,-35.57190704345703
1,67836,-25.435440063476562,12.962148666381836,-6.7902374267578125,-0.7826253175735474
1,67836,-14.120933532714844,16.18859100341797,-25.200923919677734,-7.962808132171631
1,67836,3.754737377166748,-30.362913131713867,9.866135597229004,7.395969390869141
1,67837,70.30108642578125,-22.34564971923828,19.589645385742188,24.653156280517578
1,67837,71.55052185058594,-19.165218353271484,-8.008671760559082,-3.8288352489471436
1,67837,-10.836835861206055,-12.287014961242676,-0.6505166888237,-11.85045051574707
1,67837,-4.491750717163086,-3.387956380844116,30.171754837036133,0.8799108266830444
1,67837,26.10892677307129,17.930084228515625,12.102422714233398,-2.5348472595214844
1,67837,-30.269912719726562,44.7427978515625,-15.237405776977539,-8.67546558380127
1,67838,-40.72967529296875,0.55610191822052,19.79557228088379,-16.156753540039062
1,67838,-0.9600794315338135,-42.518795013427734,0.6222835183143616,1.4401017427444458
1,67838,-24.269424438476562,-13.345917701721191,-20.590518951416016,17.07151985168457
1,67838,-4.602786540985107,4.749228477478027,2.9527320861816406,4.516545295715332
1,67838,57.453670501708984,-10.667510032653809,-25.29361915588379,7.793757915496826
1,67838,46.699546813964844,-32.39085006713867,-21.320466995239258,8.943018913269043
1,67839,-6.381346702575684,-34.39511489868164,13.3858642578125,-4.980231285095215
1,67840,82.19792938232422,-94.58485412597656,34.939453125,43.369991302490234
1,67840,100.65263366699219,-70.46468353271484,-0.9706608653068542,52.7489128112793
1,67840,-101.20379638671875,113.59722137451172,-12.770761489868164,-42.85506820678711
1,67840,-67.54562377929688,87.02140808105469,43.43289566040039,-29.435733795166016
1,67842,98.65747833251953,-33.04262161254883,20.45880889892578,27.713783264160156
1,67844,25.044113159179688,167.3246307373047,77.78985595703125,-86.38211059570312
1,67846,-150.0218048095703,179.45155334472656,81.39490509033203,-78.5284194946289
1,67848,-200.62835693359375,-123.54215240478516,-96.03819274902344,36.27689743041992
1,67850,-93.53593444824219,-17.606008529663086,-109.08080291748047,-54.44772720336914
1,67853,-6.897223472595215,162.52716064453125,3.6068689823150635,-4.651037693023682
1,67854,-63.90302658081055,124.82621002197266,-0.14990325272083282,30.036230087280273
1,67857,-58.567474365234375,-44.822303771972656,-21.321277618408203,-17.839099884033203
1,67858,70.18984985351562,-214.12171936035156,-20.609546661376953,55.6406135559082
1,67861,334.8572998046875,-276.2823181152344,-54.778594970703125,85.9609603881836
1,67862,318.5689392089844,-178.9108428955078,21.22247314453125,118.46737670898438
1,67865,-165.2100830078125,149.73829650878906,64.24625396728516,-99.79451751708984
1,67866,-269.1848449707031,203.21876525878906,-14.492557525634766,-203.74290466308594
1,67867,-19.72365379333496,15.339136123657227,-31.964746475219727,29.374309539794922
1,67870,108.76359558105469,-52.173439025878906,-13.737662315368652,166.61477661132812
1,67871,48.414215087890625,-7.210590362548828,28.984575271606445,94.8526611328125
1,67874,-175.97164916992188,178.63906860351562,111.7865982055664,-169.741943359375
1,67875,-196.0690155029297,189.48507690429688,49.213172912597656,-132.42176818847656
1,67971,170.1453094482422,-223.6785888671875,-66.12059020996094,97.71060943603516
1,67971,170.841796875,-202.1082763671875,-40.108089447021484,55.469635009765625
1,67971,-200.44415283203125,180.5479736328125,-14.12667179107666,-21.535938262939453
1,67971,-52.598899841308594,40.69306945800781,-6.6896653175354,13.401444435119629
1,67972,131.65316772460938,-116.3331527709961,8.21550464630127,37.62929153442383
1,67972,78.4660873413086,-31.532567977905273,-3.9424736499786377,8.379193305969238
1,67972,86.64273071289062,-34.58618927001953,-10.677264213562012,-15.032318115234375
1,67972,53.39851379394531,-24.23938751220703,17.737350463867188,-6.83906888961792
1,67972,4.238988876342773,42.54942321777344,19.439857482910156,-4.4188618659973145
1,67972,-69.38615417480469,61.216949462890625,-19.541501998901367,-33.16386795043945
1,67973,-108.95152282714844,50.142818450927734,-3.656256675720215,-29.034229278564453
1,67973,-94.01449584960938,57.694236755371094,-0.6258828639984131,3.5666260719299316
1,67973,-58.666507720947266,35.27172088623047,-27.956201553344727,0.633027195930481
1,67973,5.957330703735352,-24.891357421875,8.80831241607666,8.270977973937988
1,67973,45.92460632324219,-49.573307037353516,14.963624954223633,18.891427993774414
1,67973,54.82624435424805,-58.896080017089844,-17.5030574798584,19.268497467041016
1,67974,55.27437210083008,-64.01483917236328,-0.4974663257598877,16.051212310791016
1,67974,40.6812744140625,-52.02933120727539,17.6752872467041,8.72498893737793
1,67974,1.4879387617111206,-5.234385967254639,17.64723014831543,23.83296775817871
1,67974,-26.368206024169922,53.351165771484375,-7.918652057647705,7.840719699859619
1,67974,-24.787317276000977,55.5905647277832,-11.611839294433594,-18.02393913269043
1,67974,-30.514692306518555,40.98358917236328,13.792800903320312,-23.109506607055664
1,67975,-25.445884704589844,14.960403442382812,-12.89404296875,-4.120250225067139
1,67975,2.053481340408325,-13.782838821411133,-31.323196411132812,28.9481258392334
1,67975,11.652053833007812,-40.14497375488281,-2.6912293434143066,-0.7481316924095154
1,67975,36.382102966308594,-43.87724304199219,13.7385892868042,-26.966472625732422
1,67975,41.949249267578125,-38.14725875854492,-0.7235919237136841,5.8866868019104
1,67976,-1.6074930429458618,-46.607887268066406,-6.8816070556640625,4.075375080108643
1,67976,-4.544485569000244,4.09951114654541,-14.797112464904785,-24.020158767700195
1,67976,4.8167877197265625,37.78759765625,-15.402444839477539,-7.70543098449707
1,67976,-17.888614654541016,13.729151725769043,-4.105454921722412,16.085201263427734
1,67976,-31.742265701293945,7.187891006469727,6.675604343414307,-13.001612663269043
1,67976,-4.560197353363037,17.869857788085938,16.936553955078125,-15.596453666687012
1,67977,16.862503051757812,4.184900760650635,-9.020024299621582,34.457069396972656
1,67977,37.74303436279297,2.0785531997680664,-8.855154991149902,7.249818325042725
1,67977,45.355690002441406,8.571269035339355,26.753660202026367,-27.15606117248535
1,67977,4.059239864349365,-46.17179870605469,16.153352737426758,13.494115829467773
1,67977,4.095621585845947,-17.122556686401367,-10.160565376281738,20.5235652923584
1,67977,23.071495056152344,42.004066467285156,-1.5600097179412842,-17.372756958007812
1,67978,-2.005493640899658,9.204349517822266,9.452665328979492,-10.755021095275879
1,67978,-25.912914276123047,11.976118087768555,8.585592269897461,0.9377032518386841
1,67978,-15.361587524414062,17.434799194335938,-5.188009738922119,-17.760906219482422
1,67978,-28.88681983947754,-10.24241828918457,-9.000296592712402,-12.25623893737793
1,67978,-38.83973693847656,-19.384164810180664,-6.733394622802734,-4.116646766662598
1,67978,13.223361015319824,-7.419015884399414,6.046219825744629,3.1911067962646484
1,67979,34.6561279296875,-1.9759992361068726,1.525023341178894,0.5898769497871399
1,67979,10.780229568481445,-30.48418426513672,-27.679262161254883,6.10114860534668
1,67980,117.70122528076172,-137.3858642578125,-16.85585594177246,98.97998809814453
1,67980,128.9775390625,-78.45631408691406,26.053442001342773,78.39881134033203
1,67980,-89.55915069580078,108.19829559326172,44.90641784667969,-63.00130844116211
1,67980,-53.0805778503418,64.51370239257812,-10.496914863586426,-35.42072296142578
1,67981,18.14962387084961,6.181506156921387,-6.15749454498291,13.239330291748047
1,67982,28.995630264282227,12.155868530273438,52.547279357910156,23.812753677368164
1,67983,71.00094604492188,46.311676025390625,49.04823684692383,-2.716521739959717
1,67986,-193.22312927246094,134.54367065429688,24.98582649230957,-120.06427001953125
1,67987,-241.6000518798828,109.67218017578125,22.176828384399414,-66.55216979980469
1,67990,-18.20693588256836,5.173497676849365,-23.536346435546875,8.911214828491211
1,67991,3.460545063018799,-11.885734558105469,-62.11946487426758,6.114686965942383
1,67994,-126.48628234863281,137.98146057128906,21.913177490234375,-6.170716762542725
1,67995,-141.74322509765625,35.99338912963867,-8.154012680053711,-78.83941650390625
1,67998,166.97933959960938,-285.2409973144531,-95.52332305908203,41.77010726928711
1,67999,342.0673828125,-202.55252075195312,-42.20813751220703,218.27731323242188
1,68002,308.3037414550781,-88.5383529663086,33.83216094970703,139.1902618408203
1,68003,34.167015075683594,-20.620513916015625,47.93399429321289,-66.68529510498047
1,68006,-402.1180725097656,172.873046875,-31.431407928466797,-218.7302703857422
1,68007,-186.34397888183594,82.96292877197266,-61.30720138549805,-128.40457153320312
1,68010,180.59059143066406,6.3069071769714355,-10.347381591796875,137.93138122558594
1,68011,78.68699645996094,-4.21018648147583,19.723773956298828,160.4178924560547
1,68014,-157.78323364257812,34.07712936401367,54.130855560302734,-96.49381256103516
1,68015,-212.82174682617188,121.04275512695312,57.55473327636719,-154.91188049316406
1,68122,453.1371154785156,-316.3666076660156,-120.38523864746094,229.0826873779297
1,68122,451.0621643066406,-273.9877014160156,-139.0260467529297,188.55029296875
1,68122,-455.2560119628906,322.8014831542969,119.1832275390625,-225.2463836669922
1,68122,-218.15003967285156,128.9337921142578,94.1036605834961,-76.73515319824219
1,68122,205.4835968017578,-134.90911865234375,-37.202003479003906,73.07697296142578
1,68122,41.78520584106445,-56.29315185546875,-4.344478130340576,7.424194812774658
1,68123,38.81839370727539,-24.525774002075195,30.20778465270996,27.624975204467773
1,68123,46.3421745300293,25.187992095947266,33.27092742919922,-9.432503700256348
1,68123,-35.74355697631836,36.31547927856445,27.069110870361328,-50.78462600708008
1,68123,-122.20995330810547,59.65638732910156,3.1782922744750977,-70.75650024414062
1,68123,-150.95794677734375,94.15028381347656,-22.00333023071289,-49.119972229003906
1,68123,-129.2412109375,73.93505859375,7.71834135055542,10.192143440246582
1,68124,-55.0972900390625,26.58812713623047,11.15675163269043,-0.35803720355033875
1,68124,26.004796981811523,-3.885434627532959,-17.137042999267578,15.55870246887207
1,68124,53.02220916748047,-45.22895050048828,-29.25580596923828,62.72090148925781
1,68124,86.78179931640625,-70.38130187988281,-2.184105634689331,38.92478942871094
1,68124,85.78274536132812,-34.28828811645508,24.516685485839844,3.122326135635376
1,68125,18.768747329711914,-20.268001556396484,0.17493094503879547,-7.368106365203857
1,68125,-4.928753852844238,9.715333938598633,2.0046889781951904,-25.996347427368164
1,68125,-31.15850067138672,37.32978820800781,9.399514198303223,-36.074729919433594
1,68125,-84.24066925048828,23.987789154052734,14.655245780944824,-14.560781478881836
1,68125,-59.171688079833984,54.89170837402344,7.862604141235352,-25.774751663208008
1,68125,-12.351890563964844,0.3192521631717682,-15.605960845947266,-3.023477077484131
1,68126,-1.5906606912612915,-50.3690185546875,5.135976314544678,37.30517578125
1,68126,50.13386917114258,-2.5526070594787598,-3.576104164123535,20.215120315551758
1,68126,85.9482421875,-24.477006912231445,-16.691835403442383,25.555946350097656
1,68126,52.62281036376953,-42.69139099121094,-15.986262321472168,13.720806121826172
1,68126,13.193883895874023,-19.272756576538086,-14.700364112854004,-25.011226654052734
1,68126,-23.159223556518555,7.416163444519043,21.35603904724121,-6.398960113525391
1,68127,-30.179523468017578,41.460411071777344,14.438413619995117,-11.035472869873047
1,68127,-10.93424129486084,45.45452117919922,-2.459948778152466,-48.719818115234375
1,68127,-38.15972137451172,3.555755376815796,17.456483840942383,-10.279179573059082
1,68127,-44.60383987426758,-15.440084457397461,3.873396635055542,20.17074966430664
1,68127,14.052637100219727,18.994617462158203,-27.821413040161133,1.3387501239776611
1,68127,45.918243408203125,-14.541210174560547,-25.268657684326172,19.342302322387695
1,68128,33.743560791015625,-69.8333740234375,-1.4752146005630493,45.839027404785156
1,68128,28.69574737548828,-9.036524772644043,9.765067100524902,22.639253616333008
1,68128,21.30025291442871,36.82987594604492,12.963549613952637,-3.5474493503570557
1,68128,-14.779763221740723,2.0550153255462646,-5.966399192810059,-8.312461853027344
1,68128,-28.15829849243164,15.763899803161621,-12.610318183898926,4.3012590408325195
1,68128,-28.746570587158203,41.88485336303711,14.012847900390625,-6.167351245880127
1,68129,-7.135695457458496,8.309640884399414,-4.79166316986084,-23.601957321166992
1,68129,-1.5781620740890503,-16.0284423828125,-3.011317014694214,10.291321754455566
1,68129,-16.231611251831055,-11.461474418640137,24.87750816345215,14.466093063354492
1,68129,12.426850318908691,-14.841314315795898,-0.9296752214431763,-6.505374431610107
1,68129,27.22842025756836,-36.37218475341797,-40.92815399169922,-3.044726848602295
1,68130,31.094045639038086,-41.9840087890625,-13.40168285369873,5.2727155685424805
1,68130,8.759760856628418,-1.620835542678833,23.385601043701172,2.4639883041381836
1,68130,2.5006089210510254,18.98017120361328,-5.770403861999512,5.0539870262146
1,68130,-3.6390469074249268,-22.124370574951172,-10.2730073928833,-10.455446243286133
1,68130,-36.96080780029297,-5.841921806335449,15.28891372680664,-2.2121543884277344
1,68130,4.446176052093506,53.29440689086914,10.442132949829102,21.771692276000977
1,68131,3.411943197250366,14.491846084594727,-12.112878799438477,-23.303245544433594
1,68132,-48.1252326965332,65.07947540283203,1.3198450803756714,-33.66938018798828
1,68132,-2.7170400619506836,100.85029602050781,8.392231941223145,0.2022399604320526
1,68132,35.984859466552734,-41.934364318847656,7.768725395202637,11.445307731628418
1,68132,11.341686248779297,-60.55999755859375,8.02396011352539,-6.889004230499268
