Aktueller Finger,timestamp_ms,sensor_0,sensor_1,sensor_2,sensor_3
0,1146375,-45.202667236328125,-48.78892517089844,-11.73520565032959,-58.704811096191406
0,1146375,-7.702253341674805,-19.895814895629883,-30.721567153930664,-111.33161926269531
0,1146376,59.6243896484375,98.34596252441406,36.09635925292969,139.87135314941406
0,1146379,19.931535720825195,-4.85384464263916,26.007822036743164,40.18421936035156
0,1146380,-55.56007766723633,-89.64611053466797,-36.730140686035156,-97.99381256103516
0,1146383,9.344331741333008,18.275781631469727,3.6456682682037354,13.30276870727539
0,1146384,42.38237380981445,37.08726119995117,11.162353515625,50.09315490722656
0,1146387,-39.359622955322266,-20.08722496032715,-13.45804214477539,-65.17443084716797
0,1146388,-12.624274253845215,-8.292577743530273,2.997344493865967,-12.074504852294922
0,1146391,33.08534622192383,39.578182220458984,21.264240264892578,80.0360336303711
0,1146392,-8.916116714477539,17.69743537902832,25.232778549194336,-33.744171142578125
0,1146395,-37.35853958129883,-37.24838638305664,-37.94144821166992,-67.36669921875
0,1146396,1.8526184558868408,-9.976067543029785,-14.447932243347168,58.381568908691406
0,1146399,32.32716369628906,27.53685188293457,26.57358741760254,66.58370971679688
0,1146400,-10.00112533569336,-18.71207618713379,-33.78761291503906,-49.12639617919922
0,1146403,-22.536808013916016,-15.964212417602539,12.80506420135498,-43.79616928100586
0,1146404,13.75882339477539,24.31159782409668,25.48073387145996,37.55373764038086
0,1146407,7.170836925506592,-15.869355201721191,-40.55795669555664,5.025430202484131
0,1146408,-26.4841251373291,-20.131017684936523,14.482696533203125,-81.4715805053711
0,1146411,30.607385635375977,35.55772399902344,23.24807357788086,10.423998832702637
0,1146412,34.45246505737305,20.84078025817871,-2.681798219680786,84.9106674194336
0,1146415,-36.9016227722168,-33.23814010620117,0.23138390481472015,-11.079829216003418
0,1146416,-10.607185363769531,-4.712379455566406,-22.62075424194336,-34.1394157409668
0,1146419,-4.896094799041748,19.043054580688477,1.7654495239257812,-3.4409067630767822
0,1146420,-11.731903076171875,-31.36545753479004,-0.6387713551521301,-19.99382209777832
0,1146423,34.27696990966797,3.8288094997406006,2.8057734966278076,17.84501838684082
0,1146424,23.397457122802734,27.220483779907227,11.202845573425293,37.51643753051758
0,1146427,-36.18441390991211,-16.35563850402832,-11.105390548706055,-31.836986541748047
0,1146428,-13.966644287109375,0.9906954765319824,-2.132749557495117,4.874734878540039
0,1146431,22.238061904907227,21.537677764892578,12.186568260192871,56.87338638305664
0,1146432,6.459035396575928,7.538179874420166,15.249054908752441,-18.150453567504883
0,1146435,-8.671731948852539,-33.58315658569336,-32.75520706176758,-58.41120529174805
0,1146436,-12.571920394897461,-6.934244632720947,-13.046477317810059,11.184041023254395
0,1146439,12.211708068847656,4.294996738433838,30.777719497680664,-15.141412734985352
0,1146440,-1.9316656589508057,-23.20829963684082,-4.228276252746582,-58.03647994995117
0,1146443,4.643501281738281,63.05301284790039,19.426841735839844,86.65119934082031
0,1146444,17.74710464477539,24.82594108581543,-6.30116605758667,71.98693084716797
0,1146447,-20.883752822875977,-89.09918212890625,-41.332218170166016,-32.130027770996094
0,1146448,-23.928058624267578,1.848799705505371,7.272115230560303,-24.68071937561035
0,1146451,14.332277297973633,78.76158142089844,36.89424133300781,-47.266754150390625
0,1146452,38.32740783691406,-24.897396087646484,-2.875544548034668,12.158721923828125
0,1146455,-12.983882904052734,-56.704734802246094,-22.297359466552734,50.34238815307617
0,1146456,-33.797340393066406,30.493240356445312,11.18683910369873,-8.776972770690918
0,1146459,5.316635608673096,17.87649154663086,2.932032346725464,-4.302774429321289
0,1146460,14.935611724853516,-19.346370697021484,-13.987934112548828,-8.018767356872559
0,1146463,27.966388702392578,30.81833267211914,11.573390007019043,-18.2620906829834
0,1146464,-6.94310188293457,-0.8107220530509949,-2.9430387020111084,-9.072404861450195
0,1146467,-52.32878875732422,-63.92447280883789,-39.90397262573242,-17.50297737121582
0,1146468,-2.121835947036743,10.434196472167969,28.654233932495117,2.7121682167053223
0,1146471,43.77821731567383,52.66896438598633,43.54411697387695,37.69801712036133
0,1146472,10.780224800109863,5.084150791168213,-14.284719467163086,10.68012523651123
0,1146475,-32.805267333984375,-36.513671875,-26.516746520996094,-22.8754825592041
0,1146476,-12.658309936523438,-9.760981559753418,-19.87131690979004,41.513465881347656
0,1146479,14.147359848022461,22.50433349609375,16.947925567626953,-22.04279899597168
0,1146480,11.329999923706055,-5.23114538192749,16.780458450317383,-52.750465393066406
0,1146483,0.30841758847236633,12.508659362792969,-3.6772830486297607,48.74689483642578
0,1146484,-11.390198707580566,9.118968963623047,7.2021965980529785,-13.986918449401855
0,1146487,-11.80095100402832,-40.047767639160156,-9.36862850189209,-17.554105758666992
0,1146488,10.032628059387207,-6.870899677276611,-5.559876441955566,49.84719467163086
0,1146491,31.985321044921875,41.923614501953125,14.461605072021484,-6.5926923751831055
0,1146492,-12.751521110534668,12.820677757263184,3.11757755279541,-34.837890625
0,1146495,-20.079614639282227,-33.504913330078125,-30.91463279724121,-2.5128040313720703
0,1146496,13.137472152709961,-14.46894359588623,-2.983112096786499,29.86288833618164
0,1146499,-2.1780006885528564,19.940519332885742,54.24972915649414,-5.003347396850586
0,1146500,-17.73903465270996,-14.828408241271973,-16.27206039428711,-61.01140213012695
0,1146503,16.519575119018555,15.784873008728027,-25.784282684326172,70.76907348632812
0,1146504,16.123023986816406,32.56401443481445,10.417872428894043,44.491336822509766
0,1146507,-47.11600875854492,-44.56367492675781,-20.10650634765625,-100.01856994628906
0,1146508,-2.962155818939209,-15.076250076293945,17.319311141967773,21.64488410949707
0,1146511,57.47123336791992,22.12032127380371,1.616895079612732,17.975645065307617
0,1146512,2.400269031524658,1.5926399230957031,-12.115171432495117,-42.260738372802734
0,1146515,-43.08461380004883,-12.881243705749512,27.876184463500977,63.914344787597656
0,1146516,14.546634674072266,14.144392967224121,-6.05790901184082,55.7308235168457
0,1146519,32.9552116394043,20.75969123840332,-22.168811798095703,-80.82557678222656
0,1146520,-41.467864990234375,-37.93033981323242,-10.512866020202637,-77.51481628417969
0,1146523,-5.385548114776611,24.664119720458984,24.12894058227539,87.35836791992188
0,1146524,47.940528869628906,34.86638641357422,36.7335319519043,55.653282165527344
0,1146527,-24.942014694213867,-50.39311599731445,-41.722572326660156,-86.50750732421875
0,1146528,-30.636005401611328,6.732452392578125,-42.6287841796875,-11.869026184082031
0,1146531,36.57780456542969,31.098066329956055,47.083251953125,67.22623443603516
0,1146532,8.930474281311035,-18.643234252929688,61.261837005615234,-39.2286376953125
0,1146535,-25.590343475341797,-6.716288089752197,-39.85862350463867,-25.481922149658203
0,1146536,9.095705032348633,14.190085411071777,-62.286434173583984,83.63451385498047
0,1146539,12.421992301940918,-4.682619571685791,28.894657135009766,-19.36288833618164
0,1146540,-33.211917877197266,-36.78053665161133,9.972073554992676,-55.91640090942383
0,1146543,-2.0325822830200195,17.348196029663086,-5.934591770172119,39.88844299316406
0,1146544,33.518314361572266,29.597238540649414,11.88997745513916,-14.58484172821045
0,1146547,-15.351210594177246,-33.44772720336914,-1.7506359815597534,-52.39718246459961
0,1146548,-18.538978576660156,6.402858257293701,3.638812303543091,46.7746696472168
0,1146551,16.41708755493164,25.031814575195312,-5.959110736846924,34.841617584228516
0,1146552,16.930213928222656,-1.531606674194336,8.481803894042969,-32.2663688659668
0,1146555,-12.828311920166016,-22.459442138671875,1.3558629751205444,-18.344520568847656
0,1146556,-10.205144882202148,-28.274864196777344,-13.214498519897461,33.63902282714844
0,1146559,2.347134828567505,18.63173484802246,-0.3357275128364563,13.008293151855469
0,1146560,5.006669521331787,1.8608176708221436,-17.041486740112305,-63.89456558227539
0,1146563,6.817241668701172,7.985745906829834,9.268173217773438,-10.563905715942383
0,1146564,-2.016962766647339,43.13157653808594,34.820655822753906,38.86125946044922
0,1146567,4.9368462562561035,-51.087215423583984,-21.528032302856445,5.711060523986816
0,1146568,-11.447017669677734,-44.91628646850586,-28.863595962524414,3.5514979362487793
0,1146571,-0.3900299370288849,68.60240173339844,12.286005020141602,28.940425872802734
0,1146572,9.958399772644043,10.968301773071289,1.525128722190857,22.577119827270508
0,1146575,-22.257572174072266,-53.68295669555664,6.368367671966553,-36.515323638916016
0,1146576,2.8679959774017334,28.394506454467773,16.512575149536133,-20.887514114379883
0,1146579,9.37128734588623,38.391380310058594,1.8138582706451416,14.883779525756836
0,1146580,-16.939157485961914,-38.16675567626953,2.0258679389953613,-37.62460708618164
0,1146835,12.081316947937012,-0.7329705357551575,14.44460391998291,3.069728374481201
0,1146837,1.026399850845337,6.071554660797119,-36.29356002807617,-8.498645782470703
0,1146839,-38.71827697753906,-77.6277084350586,-61.55836486816406,-77.01641845703125
0,1146841,8.314144134521484,-27.802417755126953,8.787604331970215,1.3281419277191162
0,1146843,45.21060562133789,63.13808822631836,32.78057861328125,72.29914093017578
0,1146845,29.223920822143555,68.08483123779297,49.162208557128906,68.21427917480469
0,1146847,7.432708263397217,33.7087516784668,34.94411087036133,35.29477310180664
0,1146849,-9.044368743896484,17.24921989440918,-3.249225616455078,47.999755859375
0,1146851,20.129201889038086,15.119589805603027,2.6555981636047363,29.68566131591797
0,1324753,-4.481886863708496,-14.054010391235352,1.9515618085861206,-67.96988677978516
0,1324753,-55.54600524902344,-49.68561553955078,-40.06311798095703,-74.70147705078125
0,1324754,-27.824445724487305,-68.53833770751953,-47.80127716064453,-56.00729751586914
0,1324757,-8.419220924377441,-64.41280364990234,-10.512516975402832,-63.14777755737305
0,1324758,-0.46812233328819275,-8.621395111083984,-5.812220573425293,14.291114807128906
0,1324761,28.264280319213867,77.0434341430664,23.136995315551758,75.40176391601562
0,1324762,4.554973602294922,57.0989875793457,13.703770637512207,49.719154357910156
0,1324765,4.520551681518555,7.968659400939941,6.963201999664307,34.708518981933594
0,1324766,40.22685623168945,22.96700668334961,42.05301284790039,22.042545318603516
0,1324769,-4.300868034362793,-2.6858057975769043,-0.5782902240753174,-3.8830909729003906
0,1324770,-40.44835662841797,-28.573652267456055,-24.077817916870117,-26.37099266052246
0,1324773,-16.255481719970703,-23.808053970336914,-20.3651065826416,-52.62049102783203
0,1324774,4.310904026031494,-25.874799728393555,-20.239255905151367,-32.514034271240234
0,1324777,0.15312039852142334,-25.137542724609375,-9.709922790527344,-4.6132588386535645
0,1324778,3.4654314517974854,2.6496264934539795,-12.10824966430664,-12.13399600982666
0,1324781,9.360638618469238,31.683218002319336,21.426944732666016,8.659639358520508
0,1324782,25.34242057800293,18.695205688476562,46.32041549682617,46.20467758178711
0,1324785,-0.9129605293273926,37.47704315185547,20.907468795776367,13.055293083190918
0,1324786,-21.747323989868164,27.022356033325195,-21.55746841430664,6.278373718261719
0,1324789,19.65787124633789,-15.955911636352539,-15.657332420349121,34.02375793457031
0,1324790,5.05816125869751,-19.43579864501953,23.183887481689453,-29.351686477661133
0,1324793,-14.915482521057129,-33.350765228271484,-9.143654823303223,-42.88457107543945
0,1324794,-13.668106079101562,-33.45425796508789,-33.671241760253906,2.7644498348236084
0,1324797,-10.426959991455078,-2.954399824142456,6.257105827331543,-13.640002250671387
0,1324798,10.213635444641113,14.720608711242676,11.96557903289795,-16.502710342407227
0,1324801,-0.9872727990150452,-10.166178703308105,-15.203877449035645,16.994441986083984
0,1324802,4.646695137023926,16.026620864868164,-5.752439498901367,23.22985076904297
0,1324805,4.970086097717285,36.01921081542969,16.967018127441406,16.637117385864258
0,1324806,-6.946342468261719,-20.412822723388672,-5.011448860168457,15.641439437866211
0,1324809,11.428004264831543,-7.70963716506958,4.380212783813477,2.6499924659729004
0,1324810,-3.5662927627563477,54.39860153198242,15.822402000427246,-6.516507148742676
0,1324813,-0.37714827060699463,0.26007217168807983,0.5948466658592224,-10.691414833068848
0,1324814,-7.130307197570801,-59.00624465942383,1.9191186428070068,-18.96805763244629
0,1324817,-19.679746627807617,-24.644594192504883,-31.823434829711914,-3.229973077774048
0,1324818,7.234678745269775,1.7827601432800293,-16.089900970458984,1.3208839893341064
0,1324821,29.290550231933594,44.394474029541016,39.30317306518555,-12.433796882629395
0,1324822,9.714275360107422,18.21293830871582,18.444643020629883,-3.6089587211608887
0,1324825,-25.561725616455078,-20.385047912597656,-13.56418228149414,28.844999313354492
0,1324826,-3.0119378566741943,-7.778356552124023,-13.638778686523438,31.787778854370117
0,1324829,7.4745988845825195,8.58914852142334,-3.7535736560821533,-33.66046905517578
0,1324830,11.266124725341797,11.591571807861328,0.4646252691745758,-11.566584587097168
0,1324833,11.795886993408203,-27.505373001098633,-19.100502014160156,15.20722484588623
0,1324834,-21.42034912109375,-0.9663404226303101,7.557488441467285,-39.58906173706055
0,1324837,-15.410313606262207,-0.9075241088867188,18.842586517333984,5.035788059234619
0,1324838,28.433685302734375,-10.121768951416016,-22.382091522216797,32.56161117553711
0,1324841,13.244494438171387,13.08291244506836,11.94513988494873,6.6918110847473145
0,1324842,-22.40137481689453,9.908556938171387,22.475534439086914,1.921504020690918
0,1324845,2.948733329772949,22.361263275146484,-11.153538703918457,-0.9357050657272339
0,1324846,-4.387392997741699,-21.0869197845459,-0.24527910351753235,9.71069622039795
0,1324849,-8.760038375854492,-3.9178829193115234,3.805992364883423,-9.69951343536377
0,1324850,17.287038803100586,27.84393310546875,6.128780364990234,-7.3288774490356445
0,1324853,-18.404497146606445,-28.837825775146484,-10.697320938110352,-7.6561713218688965
0,1324854,-23.16862678527832,-6.270925521850586,-2.060786247253418,-12.504220008850098
0,1324857,23.445871353149414,29.3021240234375,-4.559460163116455,10.670417785644531
0,1324858,10.457108497619629,4.2196736335754395,-2.8387293815612793,-1.5971025228500366
0,1324861,-6.412463665008545,-10.522919654846191,34.40119552612305,-12.596870422363281
0,1324862,4.814186096191406,1.0117791891098022,-23.10634994506836,5.676779270172119
0,1324865,-17.506723403930664,-32.01893997192383,-39.98123550415039,10.85226058959961
0,1324866,-5.969364166259766,-26.596372604370117,22.847522735595703,-1.0510352849960327
0,1324869,18.03074073791504,41.40884017944336,35.696895599365234,25.710880279541016
0,1324870,11.850028991699219,11.186309814453125,-12.80241584777832,22.48322296142578
0,1324873,-1.0423390865325928,-26.53397560119629,-32.54410171508789,-55.24803924560547
0,1324874,-23.235536575317383,-9.719064712524414,19.118682861328125,-17.131542205810547
0,1324877,4.154477119445801,13.261123657226562,23.411237716674805,42.794315338134766
0,1324878,24.509618759155273,40.89060974121094,-13.577204704284668,-16.15459442138672
0,1324881,-5.6316704750061035,-5.713853359222412,-20.25718116760254,0.9433960914611816
0,1324882,-15.125383377075195,-26.164270401000977,9.262495040893555,16.566205978393555
0,1324885,8.12071418762207,38.35651397705078,22.955509185791016,-21.327892303466797
0,1324886,15.842872619628906,12.352663040161133,-0.026764273643493652,5.7215471267700195
0,1324889,-9.913545608520508,-32.85261917114258,-13.864073753356934,9.853734970092773
0,1324890,-23.80341339111328,-25.218624114990234,-18.00179672241211,-15.915080070495605
0,1324893,11.34253215789795,-7.053747653961182,-0.14559142291545868,-19.47905921936035
0,1324894,12.809444427490234,4.988376140594482,-1.156358242034912,-18.26388931274414
0,1324897,-6.4265007972717285,2.664937734603882,6.980332374572754,12.534538269042969
0,1324898,4.181993007659912,11.905937194824219,21.658370971679688,37.149234771728516
0,1324901,4.4163713455200195,-13.151126861572266,-15.805035591125488,13.707219123840332
0,1324902,-10.847344398498535,-18.35888671875,-20.542890548706055,-22.280025482177734
0,1324905,-3.6382083892822266,17.579261779785156,17.111352920532227,4.016915321350098
0,1324906,10.281736373901367,33.00706481933594,38.356101989746094,20.878490447998047
0,1324909,-2.485412836074829,5.652640342712402,-9.273161888122559,-23.027490615844727
0,1324910,0.7662171721458435,-36.1082763671875,-41.985530853271484,12.146810531616211
0,1324913,-22.633787155151367,3.596341848373413,15.47668170928955,-23.563419342041016
0,1324914,-1.891653060913086,24.79034423828125,19.329072952270508,-47.912498474121094
0,1324917,32.22684097290039,-20.1334228515625,-22.22968864440918,58.717037200927734
0,1324918,-8.981673240661621,-12.844243049621582,-14.771625518798828,30.839813232421875
0,1324921,-14.625244140625,33.324066162109375,13.759265899658203,-12.440991401672363
0,1324922,11.863306999206543,5.558274269104004,10.418834686279297,-7.331223011016846
0,1324925,0.09743048995733261,-43.8116340637207,-7.540511608123779,0.3368324041366577
0,1324926,-1.0810368061065674,9.865605354309082,1.5242406129837036,3.1548497676849365
0,1324929,10.882719993591309,25.331382751464844,1.0573415756225586,-28.94178581237793
0,1324930,-2.5384204387664795,-9.76717472076416,-3.273627996444702,-1.6762311458587646
0,1324933,2.720931053161621,6.115109920501709,-5.203028202056885,15.15946102142334
0,1324935,-6.4318366050720215,-5.640138626098633,7.548640727996826,10.344231605529785
0,1324937,-20.516033172607422,-9.819536209106445,25.213098526000977,-1.314070463180542
0,1324939,9.052159309387207,9.899353981018066,-10.301368713378906,-6.669466972351074
0,1324941,-1.2092519998550415,-34.801918029785156,-29.52302360534668,-11.680828094482422
0,1324943,-9.06777572631836,-30.948226928710938,-14.672545433044434,-12.5050687789917
0,1324945,29.645259857177734,65.08610534667969,21.511070251464844,22.41712760925293
0,1324947,6.533490180969238,44.991756439208984,42.500244140625,13.144237518310547
0,1324949,-22.643924713134766,-42.6240119934082,-7.949434757232666,-6.73464298248291
0,1324951,9.433009147644043,-2.7471275329589844,-23.275257110595703,-11.238125801086426
0,1324953,8.161812782287598,15.928356170654297,-5.253225326538086,9.06631851196289
0,1324955,-19.237659454345703,-34.26105880737305,5.376154899597168,35.52902603149414
0,1324957,4.670440673828125,6.609971046447754,9.609009742736816,0.9213701486587524
0,1324959,-3.1305665969848633,27.11297035217285,-7.836253643035889,-50.376991271972656
0,1324961,-13.113665580749512,-8.484979629516602,-2.5157837867736816,-41.69609451293945
0,1324963,27.089031219482422,-3.2797820568084717,5.219135761260986,3.137202262878418
0,1324965,23.925933837890625,-0.8884756565093994,-2.906717300415039,27.75701141357422
0,1324967,-21.793638229370117,7.192825794219971,-2.0601868629455566,-18.908042907714844
0,1324970,5.829981803894043,-32.289119720458984,-22.675146102905273,-38.46543502807617
0,1324971,14.783935546875,-51.54290008544922,-10.743868827819824,121.60726928710938
0,1324974,-48.18720245361328,37.98772048950195,34.77499008178711,50.665924072265625
0,1324975,-25.484210968017578,59.13471603393555,3.5778605937957764,-132.3781280517578
0,1324978,16.80030632019043,-12.781569480895996,-13.096576690673828,88.18374633789062
0,1324979,23.917434692382812,-24.2662353515625,24.230926513671875,157.53311157226562
0,1324982,10.043929100036621,29.289241790771484,-5.694516181945801,-111.56462860107422
0,1324983,-21.418386459350586,-9.068676948547363,-22.223979949951172,-206.84901428222656
0,1324984,-12.188360214233398,-30.495641708374023,20.29108428955078,-1.084455966949463
0,1324987,22.238117218017578,34.264122009277344,1.8145471811294556,4.62891149520874
0,1324991,2.24290132522583,11.406682968139648,-29.309783935546875,93.22266387939453
0,1324991,-9.225966453552246,-9.76777458190918,-1.4532921314239502,277.1152648925781
0,1324993,26.083988189697266,1.4814931154251099,16.449539184570312,-173.54515075683594
0,1324995,13.689364433288574,-21.10469627380371,18.26803207397461,-271.33575439453125
0,1324997,-23.74656867980957,-14.926568031311035,0.30165109038352966,74.88819885253906
0,1324999,-11.226031303405762,10.294127464294434,-35.94532012939453,114.2564468383789
0,1325001,23.477542877197266,-4.576433181762695,7.09763765335083,32.501243591308594
0,1325003,-1.0589936971664429,6.065311431884766,32.529144287109375,-31.313079833984375
0,1325005,-42.14921951293945,15.972597122192383,-20.060302734375,18.254369735717773
0,1325007,11.462028503417969,-21.946014404296875,-13.09013557434082,-1.6896716356277466
0,1325009,35.17123031616211,2.9823098182678223,19.95952606201172,-128.27520751953125
0,1325011,-26.01589012145996,18.65791130065918,-1.4816763401031494,38.66862869262695
0,1325013,-18.722637176513672,-12.252837181091309,-0.2730048596858978,111.13504028320312
0,1325015,24.8922119140625,13.122519493103027,7.863889694213867,-23.621349334716797
0,1325017,7.513161659240723,16.65790557861328,-25.64155387878418,21.461702346801758
0,1325019,-8.605103492736816,-32.673927307128906,-1.499631643295288,-112.55323028564453
0,1325021,-3.4058547019958496,-4.775696754455566,24.59412956237793,-122.46669006347656
0,1325023,-7.489776134490967,28.999279022216797,-6.783865451812744,39.8004150390625
0,1325025,-7.926246643066406,-18.58544921875,-8.130300521850586,260.69696044921875
0,1325027,-6.434164524078369,-33.246891021728516,0.5288732051849365,188.5130157470703
0,1325029,36.49329376220703,18.34804916381836,7.98187255859375,-238.62091064453125
0,1325031,17.083227157592773,35.00774002075195,9.15241813659668,-223.06704711914062
0,1325033,-32.50539016723633,-11.644377708435059,-27.893400192260742,16.22770881652832
0,1325035,-22.69355010986328,-12.699843406677246,13.33634090423584,220.17401123046875
0,1325037,2.5457677841186523,22.275463104248047,50.16908264160156,157.05844116210938
0,1325039,25.419475555419922,-7.798239707946777,-32.774105072021484,35.8525276184082
0,1325041,25.79326057434082,0.06455657631158829,-10.055347442626953,7.2454304695129395
0,1325043,4.418971538543701,31.190113067626953,21.087223052978516,-278.74542236328125
0,1325045,-13.524295806884766,-15.675573348999023,-41.78501892089844,-660.0138549804688
0,1325047,-2.6240954399108887,-39.684932708740234,-34.976600646972656,238.53163146972656
0,1325049,-24.901432037353516,-20.96632194519043,-4.773194313049316,994.271484375
0,1325051,-41.37203598022461,16.47313117980957,11.626343727111816,-359.6772155761719
0,1325053,2.163496494293213,9.983114242553711,20.844568252563477,-344.9585876464844
0,1325055,43.06187057495117,-27.770339965820312,38.5579833984375,103.22051239013672
0,1325057,29.919382095336914,16.23466682434082,26.611610412597656,-427.3749084472656
0,1325059,6.690395832061768,49.47099685668945,-30.60853385925293,400.361328125
0,1325061,-24.134246826171875,-9.256569862365723,-12.99457836151123,497.60504150390625
0,1325063,-25.83762550354004,-22.347471237182617,40.16947555541992,-221.6597900390625
0,1325065,24.07958221435547,26.801549911499023,8.407058715820312,-132.57080078125
0,1325067,1.4655065536499023,-5.410566806793213,-17.12936019897461,-70.61478424072266
0,1325069,-11.478679656982422,-31.015262603759766,-5.945491790771484,-86.58454895019531
0,1325071,23.148845672607422,12.487692832946777,-11.809078216552734,-76.26234436035156
0,1325073,5.910770416259766,19.127941131591797,-10.77265739440918,-49.900856018066406
0,1325075,-19.652000427246094,-21.74788475036621,-23.458803176879883,108.46985626220703
0,1325077,-37.7963981628418,-36.515830993652344,-18.584701538085938,147.3162384033203
0,1325079,7.45712423324585,-4.214808464050293,13.852624893188477,43.96712112426758
0,1325081,50.04547119140625,19.965686798095703,3.7102324962615967,-269.3061828613281
0,1325083,-50.709564208984375,41.441017150878906,-3.909054756164551,228.2057647705078
0,1325085,-51.2530632019043,1.368822693824768,10.419665336608887,89.9310531616211
0,1325087,85.44109344482422,-40.26494598388672,-0.9646756052970886,-378.83111572265625
0,1325089,48.532405853271484,31.841657638549805,-2.940152645111084,282.9513854980469
0,1325091,-38.818302154541016,24.248687744140625,25.180448532104492,-194.83795166015625
0,1325093,17.300695419311523,-30.035959243774414,16.910219192504883,6.405389308929443
0,1325095,-14.954513549804688,-30.080312728881836,-36.73466491699219,213.41232299804688
0,1325097,-46.83189392089844,-21.33924674987793,-15.743558883666992,98.14291381835938
0,1325099,8.987287521362305,42.732784271240234,39.415428161621094,66.27651977539062
0,1325101,10.27560806274414,52.117645263671875,28.432117462158203,-616.7115478515625
0,1325103,32.44797134399414,1.3889597654342651,16.01711082458496,70.20812225341797
0,1325105,-12.50284481048584,-19.959218978881836,-6.4631547927856445,510.70697021484375
0,1325107,-47.35874557495117,-50.80342102050781,-65.98820495605469,248.49082946777344
0,1325109,-25.090715408325195,-61.48906326293945,-88.17645263671875,-706.3408203125
0,1325111,10.579140663146973,43.250823974609375,45.400543212890625,-180.23275756835938
0,1325113,75.80554962158203,108.61865234375,184.6387176513672,1083.3359375
0,1325115,17.932762145996094,11.795197486877441,-8.402387619018555,-352.9423522949219
0,1325117,-51.63015365600586,-40.36161422729492,-147.6750030517578,-532.4078369140625
0,1325119,7.560812473297119,-42.90284729003906,-14.912195205688477,271.59112548828125
0,1325121,26.53070640563965,-36.962608337402344,34.5500602722168,36.605377197265625
0,1325123,-5.724316596984863,-10.185151100158691,23.326400756835938,9.135668754577637
0,1325125,-14.83145809173584,2.925008773803711,-0.22698891162872314,-123.91964721679688
0,1325127,-29.250965118408203,51.870845794677734,-0.272090345621109,-37.605873107910156
0,1325129,18.784292221069336,34.9309196472168,20.241840362548828,66.38175201416016
0,1325131,32.687782287597656,-22.852914810180664,-26.12793731689453,92.82191467285156
0,1325133,-38.72213363647461,-35.55557632446289,-46.765846252441406,-359.30560302734375
0,1325135,-33.28377914428711,-13.187896728515625,4.598635196685791,-176.36990356445312
0,1325137,29.161836624145508,49.87022018432617,44.964111328125,831.6025390625
0,1325139,8.86719799041748,10.6979341506958,-23.092594146728516,-215.3921661376953
0,1325141,-20.904924392700195,-57.1578254699707,-63.340694427490234,-508.01336669921875
0,1325143,4.503979206085205,-62.42036819458008,32.81722640991211,550.6249389648438
0,1325145,4.523102283477783,-17.718416213989258,43.813987731933594,-302.83941650390625
0,1325147,15.598799705505371,100.0145034790039,8.498625755310059,-418.05560302734375
0,1325149,30.177289962768555,73.07135009765625,16.410850524902344,639.1408081054688
0,1325151,-8.136903762817383,-0.6403607726097107,53.769683837890625,172.69320678710938
0,1325153,-0.6727198958396912,-3.0862631797790527,25.854869842529297,-82.2127456665039
0,1325155,14.789210319519043,-35.6068229675293,-83.76754760742188,-33.322086334228516
0,1325157,-15.614825248718262,-5.167473793029785,-36.97495651245117,-671.230224609375
0,1325159,-25.354480743408203,4.082687854766846,-3.352916955947876,378.40411376953125
0,1325161,-38.58365249633789,-17.729135513305664,-8.59223747253418,828.3316040039062
0,1325163,13.300161361694336,-14.03349781036377,38.6917724609375,-705.9140625
0,1325165,46.62723159790039,-50.534332275390625,-5.715390205383301,-183.7240753173828
0,1325167,-11.179513931274414,-19.758466720581055,-5.995652675628662,564.0455322265625
0,1325169,-21.872140884399414,74.28024291992188,31.841428756713867,-102.3572769165039
0,1325171,8.016131401062012,46.93446731567383,-5.396971225738525,-293.49774169921875
0,1325173,2.3113746643066406,-34.07722854614258,-30.343650817871094,-252.95831298828125
0,1325175,16.19657325744629,-16.58964729309082,-3.150228261947632,-388.4949035644531
0,1325177,20.983789443969727,-0.12486983835697174,-16.15340232849121,50.24648666381836
0,1325179,-33.87566375732422,-7.507853984832764,-29.76629066467285,1030.305419921875
0,1325181,-10.475475311279297,27.065141677856445,58.77908706665039,-123.34684753417969
0,1325183,64.59326171875,29.347192764282227,65.4655990600586,-682.8204956054688
0,1325185,-15.632189750671387,-15.607526779174805,-29.3225040435791,532.1552124023438
0,1325188,-55.69670104980469,-14.33969783782959,-27.84646224975586,264.72222900390625
0,1325189,49.50098419189453,22.436187744140625,12.91007137298584,44.973331451416016
0,1325192,7.443675994873047,-24.376535415649414,-26.26907730102539,-987.5410766601562
0,1325193,-47.28736114501953,-67.44768524169922,-50.493492126464844,-852.3525390625
0,1325196,-38.06024932861328,-0.625910222530365,-9.151049613952637,1691.7593994140625
0,1325197,-15.274252891540527,57.90913391113281,46.07225799560547,684.3589477539062
0,1325200,73.12158966064453,15.753373146057129,70.29996490478516,-989.2003784179688
0,1325201,38.60642623901367,-30.38709831237793,-0.44861525297164917,-112.02728271484375
0,1325202,-54.071712493896484,14.02574348449707,-36.490074157714844,125.03652954101562
0,1325205,-15.851183891296387,37.95370101928711,-26.910995483398438,-141.78607177734375
0,1325206,30.733800888061523,-16.634000778198242,-8.474137306213379,-150.3770751953125
0,1325209,-3.466392755508423,-47.65834426879883,13.373528480529785,274.7668151855469
0,1325210,-20.175413131713867,-41.04252624511719,-1.1296018362045288,313.91766357421875
0,1325213,39.11951446533203,42.50597381591797,52.10957336425781,129.96359252929688
0,1325214,34.59483337402344,93.44482421875,10.323479652404785,-133.69268798828125
0,1325217,-56.49549865722656,-37.31388854980469,-90.56602478027344,-564.8737182617188
0,1325218,-66.77667236328125,-52.11745834350586,-26.200590133666992,-23.62259864807129
0,1325221,51.51966857910156,47.95436477661133,48.88460922241211,201.00961303710938
0,1325222,71.87541198730469,16.0434627532959,27.87502670288086,-222.81617736816406
0,1325225,-46.533592224121094,-31.258100509643555,-24.180702209472656,168.94007873535156
0,1325226,-43.53956985473633,-16.520675659179688,-7.790853023529053,419.6341857910156
0,1325229,-1.7124369144439697,-6.510978698730469,17.021440505981445,-103.10357666015625
0,1325230,21.941415786743164,10.805402755737305,17.315603256225586,-220.32044982910156
0,1325233,26.702163696289062,-22.010700225830078,4.226233005523682,-68.73725128173828
0,1325234,-26.268739700317383,-22.537946701049805,-33.77398681640625,80.05770874023438
0,1325240,0.7384276986122131,36.29523849487305,-3.880683183670044,137.37574768066406
0,1325240,20.669240951538086,5.34064245223999,8.418102264404297,-60.72771072387695
0,1325241,-7.24263334274292,-10.864533424377441,-6.209590911865234,-125.10494232177734
0,1325243,10.305047988891602,33.15354537963867,47.10375213623047,-79.0125732421875
0,1325245,-23.32063102722168,28.529144287109375,13.903799057006836,-153.00997924804688
0,1325247,-19.692407608032227,-21.607532501220703,-61.34999465942383,172.38479614257812
0,1325249,33.814945220947266,-23.084096908569336,-22.421916961669922,460.8663330078125
0,1325251,-8.723159790039062,-45.33920669555664,-15.179078102111816,-289.9273986816406
0,1325253,-16.152877807617188,-31.840595245361328,20.039209365844727,-327.07818603515625
0,1325255,18.175697326660156,20.789772033691406,32.79043197631836,403.5047302246094
0,1325257,25.7515869140625,49.75978088378906,9.32875919342041,127.53563690185547
0,1325259,-11.363508224487305,52.47209930419922,24.02505111694336,-260.2169189453125
0,1325261,-16.887943267822266,-20.873741149902344,-27.379413604736328,-127.65843200683594
0,1325263,21.963424682617188,-29.998939514160156,-11.229490280151367,56.62776184082031
0,1325265,-14.877884864807129,16.004426956176758,16.015169143676758,39.292171478271484
0,1325267,-16.655179977416992,28.422616958618164,-9.454594612121582,-39.25914001464844
0,1325269,9.546984672546387,-6.026631832122803,-3.6228058338165283,155.77635192871094
0,1325271,-4.156018257141113,-19.906415939331055,24.327245712280273,88.63960266113281
0,1325273,3.487501859664917,-11.996260643005371,11.923754692077637,-107.10591888427734
0,1325275,17.18216323852539,-9.854060173034668,-23.541982650756836,152.09608459472656
0,1325277,-7.041712284088135,-11.772680282592773,-25.040979385375977,56.995845794677734
0,1325279,-17.458602905273438,-23.699506759643555,-9.649164199829102,-882.6782836914062
0,1325281,2.6776387691497803,26.955463409423828,28.394948959350586,-694.3927001953125
0,1325283,19.919742584228516,37.770389556884766,4.8336262702941895,1545.5294189453125
0,1325285,1.3062310218811035,-28.07138442993164,-35.20766830444336,702.042724609375
0,1325287,-14.314149856567383,-26.142292022705078,7.773430824279785,-1111.7730712890625
0,1325289,0.9872177839279175,28.795576095581055,9.871500968933105,177.07968139648438
0,1325291,10.969141960144043,42.8859977722168,12.140612602233887,109.3577880859375
0,1325293,6.026813983917236,2.8699841499328613,34.573612213134766,-213.51487731933594
0,1325295,1.6278390884399414,-76.43206024169922,-39.04032897949219,271.80279541015625
0,1325297,1.5964908599853516,-46.63752365112305,-43.71255874633789,44.42859649658203
0,1325299,-37.342071533203125,56.92620849609375,24.344482421875,-337.91119384765625
0,1325301,1.1084007024765015,58.79131317138672,32.087646484375,-23.062137603759766
0,1325303,40.78962326049805,4.906867027282715,17.163658142089844,474.5606994628906
0,1325305,-9.236710548400879,-25.886211395263672,-12.781140327453613,-158.81539916992188
0,1325307,-18.44538116455078,-16.237773895263672,-25.390085220336914,-382.5808410644531
0,1325309,-11.846635818481445,-17.464113235473633,-25.259014129638672,34.969871520996094
0,1325311,-24.975725173950195,-11.951666831970215,7.009117126464844,134.37852478027344
0,1325313,40.8454704284668,40.058040618896484,64.2981948852539,191.7677764892578
0,1325315,45.666114807128906,54.2169303894043,20.56622886657715,13.094231605529785
0,1325317,-34.44206237792969,-12.296311378479004,-39.11875915527344,-215.78167724609375
0,1325319,-15.88282585144043,-71.154296875,-74.01768493652344,-383.73260498046875
0,1325321,-51.090694427490234,-35.69846725463867,-49.214378356933594,118.6998519897461
0,1325323,6.012151718139648,20.133155822753906,105.12973022460938,701.2711791992188
0,1325325,94.8174057006836,-8.014870643615723,60.4356575012207,-80.57530975341797
0,1325327,-27.347003936767578,9.622199058532715,-70.8348388671875,-390.3515930175781
0,1325329,-31.540647506713867,48.427467346191406,5.708102703094482,8.397106170654297
0,1325331,24.790945053100586,16.558420181274414,20.979022979736328,6.299344062805176
0,1325333,-17.658525466918945,4.31809139251709,-16.112064361572266,41.7310791015625
0,1325335,7.150055408477783,-0.08893851190805435,31.13425064086914,77.96476745605469
0,1325337,32.23530578613281,-15.7600679397583,2.2457222938537598,41.07634735107422
0,1325339,-7.894964218139648,-39.22358703613281,-42.632266998291016,0.27703699469566345
0,1325341,-14.847783088684082,-11.894577026367188,7.088719367980957,-7.96438455581665
0,1325343,-15.913262367248535,38.498008728027344,17.524776458740234,-20.991657257080078
0,1325345,-7.999967575073242,2.90152907371521,-20.401803970336914,-97.98900604248047
0,1325347,16.08734703063965,-29.680740356445312,-17.95671844482422,-50.76812744140625
0,1325349,-8.54361343383789,-0.3004087209701538,-2.9836463928222656,37.80708312988281
0,1325351,-0.4641464352607727,10.075758934020996,14.001239776611328,-68.06195831298828
0,1325353,20.475492477416992,17.494525909423828,3.09232497215271,48.924198150634766
0,1325355,-27.88756561279297,-4.368524074554443,-30.313806533813477,260.36077880859375
0,1325357,-12.644148826599121,-3.2739417552948,42.76793670654297,13.73121452331543
0,1325359,40.045082092285156,15.632847785949707,39.11024856567383,-474.24176025390625
0,1325361,-1.7541954517364502,-17.884761810302734,-50.52735900878906,-33.159786224365234
0,1325363,1.3251299858093262,12.636556625366211,-1.0521365404129028,573.2444458007812
0,1325365,12.427667617797852,-6.689034938812256,19.252696990966797,-50.06978988647461
0,1325367,-27.35541534423828,-17.58195686340332,-10.627378463745117,-302.9214782714844
0,1325369,-13.537151336669922,46.43724060058594,1.424556851387024,21.943588256835938
0,1325371,27.98551368713379,-11.389760971069336,-1.427280306816101,24.703107833862305
0,1325373,-1.1560684442520142,-39.06494140625,-12.281664848327637,13.450541496276855
0,1325375,-31.53840446472168,10.017226219177246,20.70990753173828,71.64312744140625
0,1325377,5.901378631591797,-0.6873867511749268,24.052465438842773,25.887622833251953
0,1325379,21.151578903198242,31.10196876525879,-21.077701568603516,-141.8207244873047
0,1325381,13.081672668457031,11.55847454071045,-3.6735358238220215,-97.53791046142578
0,1325383,-16.836402893066406,-55.46241760253906,-16.692014694213867,313.10546875
0,1325385,-8.330041885375977,-23.856433868408203,-30.380184173583984,192.1792755126953
0,1325387,-19.52865219116211,-38.1108512878418,-0.5458031892776489,-493.7148132324219
0,1325389,-27.74259376525879,6.334995746612549,10.487650871276855,-220.51841735839844
0,1325391,49.927120208740234,112.75779724121094,48.14592742919922,318.66168212890625
0,1325393,53.27312469482422,53.59809494018555,32.60822677612305,152.7806854248047
0,1325395,-30.63047981262207,-55.81660079956055,-27.241151809692383,21.567140579223633
0,1325397,-44.76017761230469,-50.39408874511719,-30.703731536865234,14.556533813476562
0,1325399,32.938453674316406,10.994058609008789,-3.177560329437256,-166.7958221435547
0,1325401,23.828113555908203,29.486825942993164,12.23861026763916,-154.92300415039062
0,1325403,-32.55326843261719,-3.518458366394043,0.39145559072494507,246.111083984375
0,1325405,3.04482364654541,-15.54601001739502,-2.965404510498047,143.3972930908203
0,1325407,22.11591339111328,-11.403521537780762,-17.428579330444336,-265.345947265625
0,1325409,-33.20586395263672,-22.61956024169922,-12.888822555541992,-61.78864669799805
0,1325411,-4.898640155792236,16.057266235351562,30.874591827392578,103.45049285888672
0,1325413,43.08079147338867,22.985340118408203,19.925392150878906,-1.3580822944641113
0,1325415,-21.213594436645508,-20.166353225708008,-8.356395721435547,33.684757232666016
0,1325417,-13.222318649291992,-5.681737899780273,-6.860374450683594,-6.27134370803833
0,1325419,4.546889781951904,5.02023983001709,-24.085872650146484,-76.8855972290039
0,1325421,-31.404674530029297,1.6315481662750244,-10.02127742767334,55.593048095703125
0,1325423,21.277843475341797,27.767728805541992,38.19535446166992,100.65232849121094
0,1325425,14.782933235168457,8.737906455993652,4.632678985595703,19.231311798095703
0,1325427,-11.19890308380127,1.8014575242996216,-6.973135471343994,-6.382463455200195
0,1325429,16.88416862487793,13.451690673828125,5.483240127563477,-145.88365173339844
0,1325431,1.3353207111358643,-74.77033996582031,-28.108688354492188,-74.59746551513672
0,1325433,-1.6990617513656616,-38.77607345581055,-8.608558654785156,116.14459991455078
0,1325435,-14.643434524536133,64.72077178955078,15.485469818115234,14.172281265258789
0,1325437,-4.732480525970459,0.7683984041213989,17.755767822265625,-6.190341472625732
0,1325439,7.501764297485352,6.8422770500183105,6.587769985198975,79.43546295166016
0,1325441,-0.6853395700454712,49.64665985107422,5.838376045227051,-2.1221718788146973
0,1325443,19.981477737426758,4.559957504272461,2.631317615509033,-67.30039978027344
0,1325445,0.6255374550819397,-15.345022201538086,-28.49592399597168,-54.60322570800781
0,1325447,-6.369481086730957,-49.95197296142578,-23.917320251464844,-60.6888542175293
0,1325449,-12.327653884887695,-41.18803024291992,-6.501601219177246,10.45150375366211
0,1325451,-18.28517723083496,35.777244567871094,33.837093353271484,118.98448181152344
0,1325453,36.184757232666016,57.22255325317383,16.838586807250977,97.62358856201172
0,1325455,9.591150283813477,-31.83049774169922,-33.92546463012695,-64.78279876708984
0,1325457,-51.913841247558594,-84.743896484375,-15.2913236618042,-94.5368423461914
0,1325459,-4.042813301086426,19.25383758544922,17.846904754638672,28.284164428710938
0,1325461,24.444570541381836,21.593233108520508,12.708969116210938,-17.55718421936035
0,1325463,9.300985336303711,35.57362365722656,17.09697723388672,15.00218677520752
0,1325465,16.254226684570312,74.39417266845703,47.420101165771484,46.901512145996094
0,1325467,-9.675467491149902,-44.548866271972656,-13.390458106994629,-81.00209045410156
0,1325469,-20.032657623291016,-43.5891227722168,-52.62517547607422,48.09003448486328
0,1325471,-4.4099321365356445,57.239990234375,5.159933090209961,86.17900848388672
0,1325473,14.421008110046387,6.387453079223633,-10.529057502746582,-73.96874237060547
0,1325475,18.883655548095703,-47.02994918823242,-18.4096736907959,-43.42953872680664
0,1325477,-11.447846412658691,-12.513498306274414,27.489315032958984,36.35593795776367
0,1325480,-29.698917388916016,-55.85564422607422,-19.045772552490234,19.32572364807129
0,1325481,-11.744484901428223,-22.88772201538086,-17.725072860717773,-55.341339111328125
0,1325484,17.060049057006836,60.53166961669922,25.783205032348633,-7.410208225250244
0,1325485,30.12588119506836,39.91886901855469,-0.6331642270088196,46.02501678466797
0,1325488,0.5110037326812744,-5.637540817260742,3.1984853744506836,-8.049332618713379
0,1325489,-25.734737396240234,-29.997238159179688,12.173931121826172,6.109796047210693
0,1325492,23.115747451782227,35.42564010620117,32.59052658081055,-2.850618839263916
0,1325493,-3.395644187927246,44.371421813964844,13.776582717895508,-33.076820373535156
0,1325494,-43.64122772216797,-35.56766891479492,-47.51815414428711,23.716062545776367
0,1325498,28.63178062438965,-19.710906982421875,-19.381277084350586,-79.27268981933594
0,1325499,22.92490577697754,9.684540748596191,-7.1489667892456055,-16.63567352294922
0,1325501,-7.027303695678711,16.053468704223633,9.757521629333496,240.9857940673828
0,1325503,31.388473510742188,13.57486343383789,44.434906005859375,22.827510833740234
0,1325505,6.111671447753906,-38.509239196777344,-10.36838436126709,-188.85220336914062
0,1325507,-47.45763397216797,-90.26744842529297,-69.36951446533203,-145.79310607910156
0,1325509,-18.43382453918457,-27.2513427734375,-17.64402961730957,55.87862014770508
0,1325511,17.961410522460938,129.69500732421875,98.19298553466797,205.1352081298828
0,1325513,3.0066277980804443,71.47756958007812,50.60995101928711,35.17841339111328
0,1325515,1.4622673988342285,-83.39945220947266,-65.56786346435547,-46.6942024230957
0,1325517,-9.12486457824707,-13.766043663024902,-22.139528274536133,-115.2970199584961
0,1325519,-11.30402946472168,41.50104904174805,28.79927635192871,-11.81257152557373
0,1325521,19.599618911743164,-10.812685012817383,-21.688695907592773,141.7910919189453
0,1325523,-4.832900047302246,-43.097225189208984,-32.369014739990234,-16.45166015625
0,1325525,-13.680949211120605,-6.934653282165527,27.746463775634766,-52.79043960571289
0,1325527,13.121795654296875,55.96612548828125,0.5605269074440002,-31.45844841003418
0,1325529,-7.654911041259766,-14.553954124450684,-27.17829132080078,-64.09999084472656
0,1325531,16.648927688598633,-19.847917556762695,25.103801727294922,-12.142511367797852
0,1325533,21.731813430786133,-3.912282943725586,-22.630769729614258,48.848812103271484
0,1325535,-19.973812103271484,-36.686561584472656,-3.444925546646118,27.379261016845703
0,1325537,-7.808365345001221,19.672595977783203,55.040611267089844,-15.979523658752441
0,1325539,6.644662857055664,50.734352111816406,-10.18352222442627,-1.0733295679092407
0,1325541,6.564689636230469,55.17678451538086,21.360027313232422,17.657941818237305
0,1325543,4.520980358123779,-27.723453521728516,10.078461647033691,72.85070037841797
0,1325545,3.049633026123047,-68.20679473876953,-56.21311569213867,24.305871963500977
0,1325547,-39.32941818237305,-50.8575325012207,-34.56366729736328,-107.46615600585938
0,1325549,-35.83861541748047,-20.798736572265625,-1.8805392980575562,-68.52902221679688
0,1325551,41.971981048583984,92.60624694824219,55.48381423950195,49.85082244873047
0,1325553,23.61254119873047,57.084957122802734,29.856792449951172,24.65376091003418
0,1325555,-15.75626277923584,-25.336360931396484,-24.866111755371094,9.217161178588867
0,1325557,1.2666772603988647,-10.190755844116211,-25.483152389526367,43.80475616455078
0,1325559,8.712389945983887,-16.714330673217773,-2.1401431560516357,28.948644638061523
0,1325561,7.402101039886475,7.018489360809326,32.46384811401367,-7.345434188842773
0,1325563,-12.729162216186523,6.207024574279785,-14.728577613830566,-104.98157501220703
0,1325565,-24.45779800415039,-47.12168502807617,-24.420106887817383,-73.70429992675781
0,1325567,26.906206130981445,6.187557697296143,22.49770736694336,77.06072235107422
0,1325569,19.11672019958496,37.41871643066406,14.037737846374512,38.64856719970703
0,1325571,-42.041263580322266,-34.21550750732422,-29.197948455810547,-45.742671966552734
0,1325573,-3.4815382957458496,-26.1175594329834,-29.762887954711914,60.25468826293945
0,1325575,25.30194664001465,36.92961883544922,46.874454498291016,65.3955078125
0,1325577,2.6703708171844482,21.707748413085938,29.34092140197754,-40.212379455566406
0,1325579,11.231597900390625,-30.799283981323242,-46.21769332885742,-32.05253219604492
0,1325581,0.050788938999176025,11.329610824584961,16.161380767822266,-18.28178596496582
0,1325583,-4.08808708190918,47.62965393066406,47.28838348388672,-6.6002397537231445
0,1325585,0.41797032952308655,5.908416748046875,-28.456071853637695,2.6364259719848633
0,1325587,-7.605576515197754,-27.097200393676758,-12.99864673614502,7.658178329467773
0,1325589,4.1543426513671875,-29.366762161254883,6.699548721313477,41.482662200927734
0,1325591,-3.1025280952453613,-0.674595296382904,-27.090112686157227,12.957828521728516
0,1325593,15.155570030212402,-12.95995044708252,-30.846694946289062,-42.73075866699219
0,1325595,-22.462745666503906,-26.770313262939453,6.952561378479004,-37.6502571105957
0,1325597,-38.83869552612305,35.304691314697266,33.36122131347656,-0.8447010517120361
0,1325599,34.88335418701172,12.532515525817871,24.49501609802246,8.59354019165039
0,1325601,9.65982723236084,-26.115795135498047,14.431594848632812,-12.590337753295898
0,1325603,-20.422998428344727,31.28447151184082,-30.4532470703125,57.149715423583984
0,1325605,5.036678791046143,32.561851501464844,-18.702186584472656,63.837364196777344
0,1325607,33.430023193359375,25.550310134887695,28.09804344177246,-17.354705810546875
0,1325609,15.697941780090332,-16.006927490234375,3.6179895401000977,-9.527580261230469
0,1325611,-26.2268009185791,-43.76185989379883,-19.916946411132812,-141.13417053222656
0,1325613,-14.994959831237793,-10.26215934753418,-16.536836624145508,-202.2455291748047
0,1325615,1.022373080253601,-37.129295349121094,-20.867769241333008,169.5010528564453
0,1325617,-8.375738143920898,-37.839473724365234,-10.67090129852295,264.2554016113281
0,1325619,1.8604869842529297,0.4141308069229126,3.865172863006592,-98.53903198242188
0,1325621,-1.791707158088684,24.94441032409668,14.546103477478027,-117.37942504882812
0,1325623,-12.842900276184082,96.21646118164062,50.95536422729492,93.74060821533203
0,1325625,23.894567489624023,45.631351470947266,30.54677391052246,54.17786407470703
0,1325627,4.7310028076171875,-76.9491958618164,-28.94275665283203,-60.15284729003906
0,1325629,-4.405429840087891,-13.575713157653809,-14.418853759765625,18.78057861328125
0,1325631,12.099552154541016,26.944190979003906,-6.471637725830078,28.344064712524414
0,1325633,-24.52236557006836,-11.009263038635254,9.439669609069824,-33.78868865966797
0,1325635,2.1927297115325928,12.121905326843262,17.854570388793945,18.761445999145508
0,1325637,22.25339126586914,31.621017456054688,-17.66705894470215,0.3776511549949646
0,1325639,10.631715774536133,-27.658660888671875,-6.986439228057861,-20.13704490661621
0,1325641,20.421220779418945,-51.051910400390625,-11.885477066040039,-46.493289947509766
0,1325643,-45.59916687011719,-32.27469253540039,-39.961952209472656,-119.81790924072266
0,1325645,-32.560035705566406,13.403017044067383,6.194391250610352,-5.450842380523682
0,1325647,27.554201126098633,31.902297973632812,56.77589416503906,109.99298095703125
0,1325649,-18.91197967529297,-33.57293701171875,-0.7008246183395386,47.10075759887695
0,1325651,22.8264102935791,44.065914154052734,-14.691767692565918,18.35501480102539
0,1325653,43.05686569213867,70.43064880371094,29.609712600708008,17.45566177368164
0,1325655,-25.784425735473633,-42.79555892944336,-3.3477888107299805,-9.505293846130371
0,1325657,-30.090164184570312,-48.932552337646484,-44.18751907348633,-37.25813674926758
0,1325659,-5.189321041107178,7.532967567443848,2.047046422958374,1.2338567972183228
0,1325661,22.498992919921875,49.658355712890625,36.85133361816406,9.09206485748291
0,1325663,16.57624626159668,4.203703880310059,-9.26924991607666,-53.3558464050293
0,1325665,5.463744640350342,-40.17626190185547,-17.621477127075195,-15.041321754455566
0,1325667,-19.397401809692383,-23.65384292602539,-10.87999439239502,61.182220458984375
0,1325669,-39.32557678222656,-44.305206298828125,-1.8694957494735718,43.51012420654297
0,1325671,11.100387573242188,39.37514114379883,13.241464614868164,-103.2981185913086
0,1325673,37.90995788574219,85.01823425292969,3.770115613937378,-59.75838088989258
0,1325675,8.029582977294922,-26.33906364440918,6.031367778778076,152.74200439453125
0,1325677,-7.24545955657959,-33.851402282714844,6.320652008056641,43.93070983886719
0,1325679,-17.584617614746094,-13.930499076843262,-13.683728218078613,-90.69768524169922
0,1325681,-22.123844146728516,5.973495960235596,-1.3019201755523682,-5.444790363311768
0,1325683,22.557950973510742,36.96926498413086,27.481042861938477,33.702571868896484
0,1325685,15.684971809387207,-9.45632266998291,-8.388009071350098,-0.4631309509277344
0,1325687,-17.492572784423828,-11.755924224853516,-10.184998512268066,0.9049904346466064
0,1325689,4.166586399078369,-2.2015931606292725,13.049607276916504,42.39603805541992
0,1325691,3.3990683555603027,-24.435834884643555,-25.25835609436035,-33.58539581298828
0,1325693,-12.344806671142578,-24.9810848236084,-29.885862350463867,-118.88500213623047
0,1325695,-0.2237555980682373,13.48675537109375,29.613704681396484,3.610569953918457
0,1325697,11.749310493469238,62.19602584838867,34.51524353027344,87.95645904541016
0,1325699,5.769076824188232,8.634116172790527,-19.873462677001953,5.792565822601318
0,1325701,16.462818145751953,-32.445133209228516,-15.48185920715332,-16.758583068847656
0,1325703,-5.040280342102051,-36.70851135253906,-8.872386932373047,13.780311584472656
0,1325705,-18.130420684814453,8.894810676574707,-5.861547946929932,-20.679039001464844
0,1325707,1.7128275632858276,63.83604431152344,22.724441528320312,-7.3184003829956055
0,1325709,-11.60507583618164,-13.830645561218262,6.071165084838867,45.42707061767578
0,1325711,8.811308860778809,-28.61992645263672,-11.32279109954834,12.037569046020508
0,1325713,18.878122329711914,-5.70500373840332,1.9555851221084595,-37.23735809326172
0,1325715,-6.647558689117432,-9.389565467834473,7.512442111968994,-47.832942962646484
0,1325717,-23.613021850585938,-2.0683863162994385,7.583147048950195,1.6610888242721558
0,1325719,-26.352031707763672,18.34172821044922,10.644036293029785,61.244102478027344
0,1325721,22.58348274230957,20.091819763183594,-15.614309310913086,19.255172729492188
0,1325723,20.42176055908203,-7.481318950653076,-5.750702381134033,-37.22182846069336
0,1325725,-12.461409568786621,0.13132908940315247,24.97281837463379,-7.571171283721924
0,1325727,13.690521240234375,7.31431245803833,-0.1571742743253708,2.176666259765625
0,1325729,9.925883293151855,-12.791011810302734,-30.377273559570312,14.935689926147461
0,1325731,-9.643345832824707,-12.043275833129883,-10.183197975158691,20.79290008544922
0,1325733,-7.8842010498046875,36.814552307128906,20.003578186035156,-3.0046801567077637
0,1325736,-0.7061926126480103,0.8958574533462524,-7.984371662139893,13.57370376586914
0,1325737,7.9186110496521,-37.04029083251953,-13.696111679077148,-24.72161293029785
0,1325740,7.429248809814453,-13.516188621520996,16.638248443603516,-34.35915756225586
0,1325741,-8.187555313110352,-48.33470153808594,-12.559555053710938,2.447406530380249
0,1325744,-23.004798889160156,-14.350919723510742,-39.382850646972656,-24.15013313293457
0,1325745,1.8279858827590942,75.62663269042969,45.22138595581055,3.844895124435425
0,1325748,20.176082611083984,2.639880657196045,38.315574645996094,31.60822296142578
0,1325749,-11.302050590515137,-31.900623321533203,-28.163776397705078,25.24986457824707
0,1325750,2.671943187713623,69.30382537841797,9.927067756652832,45.1346549987793
0,1325753,18.567106246948242,35.29718780517578,-0.8361972570419312,-27.123933792114258
0,1325754,-24.179340362548828,-54.67234802246094,-16.550884246826172,-90.42811584472656
0,1325757,11.457416534423828,-20.167137145996094,12.466504096984863,39.71842956542969
0,1325758,29.601598739624023,12.470484733581543,-8.635335922241211,64.75576782226562
0,1325764,-41.22103500366211,8.553983688354492,-5.0848917961120605,-34.16878890991211
0,1325764,-6.553846836090088,30.927642822265625,23.21722412109375,3.235313892364502
0,1325766,37.7691764831543,-31.657278060913086,-14.597455978393555,-50.13671112060547
0,1325767,-2.195568799972534,-24.6630916595459,0.6684091687202454,-32.71323776245117
0,1325768,-27.16206932067871,14.355963706970215,7.220472812652588,85.28965759277344
0,1325771,-4.3622260093688965,-33.72114562988281,-21.22087287902832,26.94321632385254
0,1325772,12.772284507751465,-1.4338492155075073,-4.304696083068848,-29.681550979614258
0,1325775,-9.198922157287598,44.81890106201172,-0.5528544187545776,-23.95736312866211
0,1325776,-9.593921661376953,8.465754508972168,24.943939208984375,-9.77785587310791
0,1325779,39.077117919921875,-19.708829879760742,27.379169464111328,13.97631549835205
0,1325780,40.212982177734375,8.382375717163086,-14.805295944213867,-1.679551601409912
0,1325783,-49.65580368041992,-27.993026733398438,-38.48749923706055,-50.57524871826172
0,1325784,-60.026405334472656,-39.772117614746094,-1.8365767002105713,-1.2083102464675903
0,1325787,19.897968292236328,41.96573257446289,13.602095603942871,58.621334075927734
0,1325788,33.326995849609375,40.253787994384766,-8.924359321594238,10.112221717834473
0,1325791,-3.711393356323242,-27.49686050415039,2.622105836868286,-10.13603401184082
0,1325792,-6.478063106536865,-8.033991813659668,-2.0683631896972656,-14.53229808807373
0,1325795,-4.769230365753174,5.327610969543457,5.972202777862549,11.474241256713867
0,1325796,6.9221882820129395,-3.743263006210327,13.62700080871582,24.80634880065918
0,1325799,9.883668899536133,29.823930740356445,8.500564575195312,-26.096845626831055
0,1325800,-9.305168151855469,1.9192053079605103,8.062074661254883,-14.433171272277832
0,1325803,6.848499298095703,-23.295984268188477,-18.937118530273438,20.69332504272461
0,1325804,1.776228427886963,-19.918880462646484,-37.2198600769043,-11.947258949279785
0,1325807,6.313073635101318,30.583541870117188,32.30850601196289,-8.445558547973633
0,1325808,10.8590669631958,66.22371673583984,61.03495407104492,51.43924331665039
0,1325811,-28.33182144165039,-24.097454071044922,-39.70079803466797,-8.69686222076416
0,1325812,1.3360662460327148,-73.73147583007812,-42.15850067138672,-44.95191955566406
0,1325815,3.4424033164978027,-54.059871673583984,3.4795734882354736,-14.979981422424316
0,1325816,-15.345784187316895,22.01645851135254,-9.32856559753418,-7.899433612823486
0,1325819,6.947291851043701,57.73967742919922,2.3226418495178223,35.44917297363281
0,1325820,13.444609642028809,13.874944686889648,23.95237922668457,10.817749977111816
0,1325823,2.8177692890167236,-1.1331344842910767,13.355751037597656,-1.8825050592422485
0,1325824,-22.681011199951172,1.6175130605697632,-24.230104446411133,22.772567749023438
0,1325827,25.44992446899414,-3.1650986671447754,1.2042572498321533,0.6185678243637085
0,1325828,15.029272079467773,-38.783042907714844,30.698535919189453,-15.75554370880127
0,1325831,-28.745107650756836,-8.538925170898438,-6.561861038208008,-18.230051040649414
0,1325832,14.567688941955566,34.67048645019531,-12.56888484954834,-1.2728352546691895
0,1325835,-2.1075642108917236,24.789398193359375,9.777373313903809,-0.597511351108551
0,1325836,-19.75501251220703,-7.7037506103515625,3.8869001865386963,-0.5335316061973572
0,1325839,2.981783390045166,-26.44261932373047,-9.628849983215332,3.3493847846984863
0,1325840,5.434230327606201,-10.117027282714844,-20.09439468383789,-18.931873321533203
0,1325843,6.035361289978027,-8.324320793151855,-15.588456153869629,10.171900749206543
0,1325844,4.371247291564941,18.517261505126953,21.85245132446289,29.259021759033203
0,1325847,-0.19570347666740417,23.254985809326172,29.028064727783203,1.9822622537612915
0,1325848,-30.314096450805664,-30.932924270629883,-8.76472282409668,9.583586692810059
0,1325851,-1.5591694116592407,-9.898350715637207,-6.360650062561035,-13.771493911743164
0,1325852,38.530723571777344,30.494752883911133,3.010659694671631,-35.72064208984375
0,1325855,1.0571403503417969,-11.156841278076172,-7.038416385650635,-5.475888252258301
0,1325856,-7.8918137550354,8.078777313232422,8.956332206726074,24.78604507446289
0,1325859,-15.278383255004883,7.514684200286865,-13.52867317199707,35.89167022705078
0,1325860,-12.87329387664795,-47.236690521240234,-32.60830307006836,-15.656785011291504
0,1325863,26.36670684814453,37.11296844482422,33.9144401550293,-30.820096969604492
0,1325864,8.636526107788086,60.30314254760742,35.99585723876953,10.489612579345703
0,1325867,-8.990788459777832,-43.38200759887695,-32.001075744628906,8.728034973144531
0,1325868,17.153684616088867,-38.725013732910156,-24.024351119995117,-16.302900314331055
0,1325871,-11.09547233581543,6.189416408538818,1.4727652072906494,-18.652788162231445
0,1325872,-22.220552444458008,19.522531509399414,16.370569229125977,3.599106788635254
0,1325875,14.031542778015137,-5.222785949707031,7.47909688949585,20.822093963623047
0,1325876,3.561110496520996,1.798129916191101,-13.497725486755371,-3.104891777038574
0,1325879,-26.04473876953125,17.764131546020508,12.957865715026855,-4.167341232299805
0,1325880,-9.065046310424805,-20.833396911621094,17.10060691833496,56.12588119506836
0,1325883,42.79876708984375,8.228275299072266,-3.421816110610962,0.23661598563194275
0,1325884,10.078189849853516,-0.669678807258606,-10.318950653076172,-59.329280853271484
0,1325887,-40.514892578125,-42.688323974609375,-13.752156257629395,-7.730694770812988
0,1325888,-5.75336217880249,3.1264429092407227,-2.117859125137329,-10.483532905578613
0,1325891,22.28241729736328,21.976987838745117,4.74638557434082,8.971850395202637
0,1325892,-3.3481364250183105,-4.540562152862549,9.141134262084961,46.99319076538086
0,1325895,-23.536287307739258,14.622318267822266,8.98514175415039,-1.239842414855957
0,1325896,23.10816764831543,13.582961082458496,-20.31494140625,-5.6084160804748535
0,1325899,42.955318450927734,-0.796036958694458,16.220172882080078,18.206083297729492
0,1325900,-4.368919849395752,11.357439994812012,21.424612045288086,-31.509843826293945
0,1325903,-29.67710304260254,-9.903472900390625,-20.95225715637207,-11.621541976928711
0,1325904,1.8555829524993896,-15.26822566986084,-6.694637775421143,31.556299209594727
0,1325907,-11.641083717346191,-25.985815048217773,-26.9544734954834,-50.57204818725586
0,1325908,-21.35692596435547,4.752963542938232,-7.126429080963135,-24.9102783203125
0,1325911,37.92824935913086,64.30644989013672,30.088468551635742,65.88054656982422
0,1325912,13.56217098236084,18.02570152282715,-2.0678887367248535,9.212785720825195
0,1325915,-30.98902702331543,-62.8421630859375,-3.627110004425049,-34.26204299926758
0,1325916,-0.666517972946167,-47.56462097167969,17.387861251831055,-10.300554275512695
0,1325919,6.866498947143555,44.126441955566406,-4.690147399902344,-4.809952259063721
0,1325920,-17.493928909301758,33.9996337890625,-6.173155784606934,-7.494921684265137
0,1325923,-12.832884788513184,-28.64606475830078,0.8922309279441833,40.87562942504883
0,1325924,7.326446056365967,-0.8669668436050415,0.8657182455062866,35.45627975463867
0,1325927,30.695140838623047,29.447620391845703,26.67850112915039,-29.537111282348633
0,1325928,21.01641273498535,-28.954750061035156,-6.363865852355957,-18.655609130859375
0,1325931,-16.64983367919922,-16.151046752929688,-19.835020065307617,11.909893035888672
0,1325932,-27.10382080078125,37.22093200683594,13.959623336791992,-10.690413475036621
0,1325935,-11.43545150756836,-31.139921188354492,-14.535340309143066,-16.91566276550293
0,1325936,19.754533767700195,-21.125932693481445,-16.9012451171875,21.311973571777344
0,1325939,9.056977272033691,22.196990966796875,9.003870010375977,21.345504760742188
0,1325940,-2.1682095527648926,12.68169116973877,14.120858192443848,2.818366527557373
0,1325943,-1.3625566959381104,15.04898738861084,-19.249794006347656,-19.22452735900879
0,1325944,-11.72143268585205,-8.845500946044922,-25.762802124023438,-13.850752830505371
0,1325947,13.80127239227295,-14.824621200561523,37.855838775634766,-8.919757843017578
0,1325948,3.2479729652404785,7.738814830780029,11.381659507751465,-12.735479354858398
0,1325951,4.274698257446289,26.2073917388916,-13.635068893432617,17.382465362548828
0,1325952,14.350235939025879,-5.690251350402832,14.23958969116211,25.447999954223633
0,1325955,-25.786584854125977,-23.639894485473633,-7.296716690063477,20.768190383911133
0,1325956,-17.933364868164062,-10.56045150756836,-11.011299133300781,-3.6387314796447754
0,1325959,24.439096450805664,-6.572082042694092,1.2098689079284668,-36.18315124511719
0,1325960,15.605548858642578,0.2751791179180145,-5.002459526062012,-13.397908210754395
0,1325963,-17.020843505859375,7.944269180297852,-4.707882881164551,10.576583862304688
0,1325964,-15.563492774963379,29.97869300842285,23.40109634399414,11.108965873718262
0,1325967,8.149643898010254,13.622591972351074,16.295209884643555,32.01235580444336
0,1325968,8.439576148986816,-25.413227081298828,-25.728656768798828,6.832603931427002
0,1325971,-21.800535202026367,-38.1107292175293,-1.5750318765640259,-74.34290313720703
0,1325972,7.808382987976074,11.592066764831543,15.069756507873535,-36.757511138916016
0,1325975,26.458051681518555,60.697593688964844,-14.170150756835938,89.20560455322266
0,1325976,-3.332549810409546,-14.639182090759277,0.5762097239494324,27.27450180053711
0,1325979,-5.3086090087890625,-53.128299713134766,8.365254402160645,-40.21775817871094
0,1325980,-2.309896469116211,11.13751220703125,-15.600432395935059,-5.967490196228027
0,1325983,-7.308038711547852,7.560423851013184,15.747401237487793,-3.3669259548187256
0,1325984,-11.792798042297363,-5.680091381072998,12.530570030212402,17.07496452331543
0,1325987,11.701457023620605,18.159801483154297,-35.65592956542969,-8.496331214904785
0,1325988,-10.900792121887207,6.036636829376221,-0.6351742744445801,-27.790266036987305
0,1325991,-2.722182512283325,-2.3345603942871094,22.2948055267334,37.732887268066406
0,1325992,27.8544921875,-9.561901092529297,-12.699458122253418,10.49851131439209
0,1325995,-8.024259567260742,3.1102499961853027,2.2967352867126465,-45.339012145996094
0,1325997,-3.2031140327453613,14.730915069580078,4.238877296447754,18.030054092407227
0,1325999,3.8114380836486816,0.2504969835281372,-8.884164810180664,10.271615982055664
0,1326001,-0.3910476267337799,-22.773494720458984,17.79279327392578,-20.607341766357422
0,1326003,-20.4901065826416,-41.1226921081543,-2.289785861968994,-31.662559509277344
0,1326005,-7.413333892822266,28.19141960144043,-14.395331382751465,-10.672797203063965
0,1326007,43.09648132324219,50.62322998046875,10.008347511291504,66.81089782714844
0,1326009,7.906774044036865,-26.961179733276367,9.228766441345215,24.669918060302734
0,1326011,-17.85478401184082,-11.417566299438477,-10.111577033996582,-19.5454158782959
0,1326013,-1.3743696212768555,11.463709831237793,-8.997956275939941,-1.0522379875183105
0,1326015,-2.3554694652557373,-15.96159553527832,15.09018611907959,-26.137882232666016
0,1326017,-6.665650844573975,14.652800559997559,-1.8693255186080933,-0.1743796169757843
0,1326019,-10.043543815612793,22.99468421936035,-8.164904594421387,37.7999382019043
0,1326021,1.263753056526184,-15.124351501464844,8.667984962463379,10.844773292541504
0,1326023,20.182939529418945,-4.439884185791016,2.86712908744812,-44.096702575683594
0,1326025,3.65535306930542,29.134864807128906,8.82679271697998,-53.80447006225586
0,1326029,-23.72345542907715,-28.012189865112305,-14.08800983428955,51.109500885009766
0,1326029,-2.2772059440612793,-51.49217224121094,-16.533079147338867,64.8721923828125
0,1326031,10.833636283874512,24.636335372924805,7.18925142288208,-26.504087448120117
0,1326033,1.0286458730697632,18.540958404541016,5.289988994598389,-41.745033264160156
0,1326035,3.4096274375915527,-7.863319396972656,-3.283630609512329,-24.13257598876953
0,1326037,8.547696113586426,6.300044059753418,-12.359485626220703,5.670312881469727
0,1326039,-19.547578811645508,-22.921262741088867,8.574626922607422,10.079957962036133
0,1326041,-24.449588775634766,7.983765125274658,8.427730560302734,17.58608627319336
0,1326043,34.72614288330078,32.78304672241211,-9.049885749816895,1.284395694732666
0,1326045,29.36414909362793,6.856698989868164,11.852052688598633,9.239583969116211
0,1326047,-18.273706436157227,26.813539505004883,29.815650939941406,66.06253814697266
0,1326049,-16.02193260192871,-29.428255081176758,-2.1023166179656982,-46.488277435302734
0,1326051,-13.518387794494629,-79.90340423583984,-56.541072845458984,-98.3087158203125
0,1326053,-12.370445251464844,13.927175521850586,-8.484733581542969,10.924042701721191
0,1326055,-2.288689136505127,55.285587310791016,48.7120475769043,31.24130630493164
0,1326057,26.92329216003418,-12.88643741607666,-17.645952224731445,33.924312591552734
0,1326059,40.2099494934082,11.199743270874023,-7.745208740234375,35.79689025878906
0,1326061,-27.958396911621094,24.018142700195312,42.95748519897461,-10.028613090515137
0,1326063,-15.048009872436523,-29.67799949645996,-16.822757720947266,-18.547199249267578
0,1326065,11.428640365600586,-9.743444442749023,-52.91751480102539,-24.639057159423828
0,1326067,-5.544235706329346,17.67833709716797,11.309483528137207,2.4356353282928467
0,1326069,16.429183959960938,-1.2949559688568115,39.64179611206055,44.37278366088867
0,1326071,-8.967379570007324,-11.20351505279541,-0.3369826376438141,-14.351951599121094
0,1326073,-19.990522384643555,12.850689888000488,-6.425632953643799,-36.440650939941406
0,1326075,1.0081737041473389,4.863434314727783,6.134425640106201,9.735831260681152
0,1326077,7.867944717407227,-24.200761795043945,-17.48790740966797,22.74444580078125
0,1326079,3.597337245941162,-11.93090534210205,-11.999146461486816,-12.225090026855469
0,1326081,-0.8035444617271423,5.586341857910156,17.277463912963867,-20.509916305541992
0,1326083,-28.435455322265625,-13.32933235168457,-21.68025779724121,4.992056846618652
0,1326085,-1.3033864498138428,15.747904777526855,2.438460111618042,-5.771915912628174
0,1326087,52.39280319213867,47.82424545288086,43.65021514892578,17.77727508544922
0,1326089,-0.0848211944103241,-18.308496475219727,-10.270776748657227,14.03243637084961
0,1326091,-28.564472198486328,-47.32988739013672,-31.158924102783203,-26.23786735534668
0,1326093,6.529242992401123,14.398204803466797,8.310190200805664,-8.421090126037598
0,1326095,-2.2947797775268555,48.196041107177734,20.695255279541016,32.30497741699219
0,1326097,10.233837127685547,-9.024986267089844,-8.942180633544922,5.111649990081787
0,1326099,16.67320442199707,-17.860206604003906,-3.117520332336426,-23.878520965576172
0,1326101,-21.815156936645508,22.626270294189453,19.839757919311523,17.909528732299805
0,1326103,-12.40230941772461,-18.786630630493164,-1.94013512134552,0.5929110646247864
0,1326105,2.6729753017425537,-47.25967025756836,-24.97239112854004,-30.77689552307129
0,1326107,-4.748123645782471,-6.416691780090332,-19.373079299926758,6.521666526794434
0,1326109,11.069549560546875,39.147552490234375,18.42571449279785,18.815706253051758
0,1326111,18.15315055847168,33.41062545776367,27.67997932434082,-0.04074648395180702
0,1326113,-34.3426628112793,-45.05363845825195,-29.11322021484375,-18.050477981567383
0,1326115,-0.7038752436637878,-32.41313552856445,-14.033169746398926,0.5047250986099243
0,1326117,36.8536376953125,70.5163345336914,39.5374641418457,25.73440933227539
0,1326119,-19.158729553222656,27.593093872070312,-0.45195886492729187,4.4842848777771
0,1326121,-12.343466758728027,-24.781076431274414,-25.6334285736084,-0.4576525390148163
0,1326123,12.3175687789917,3.107093095779419,16.49295997619629,-12.634119033813477
0,1326125,10.1475248336792,-10.257678985595703,4.070413589477539,-43.17119598388672
0,1326127,3.1538567543029785,-11.26602554321289,-16.04012680053711,20.11037254333496
0,1326129,0.3899455964565277,4.646434783935547,9.303196907043457,48.77289581298828
0,1326131,-39.370338439941406,-2.700944423675537,3.465294122695923,-25.907190322875977
0,1326133,-4.339946746826172,-41.57738494873047,-25.480653762817383,-14.199175834655762
0,1326135,55.01850128173828,-43.76708984375,-16.6849365234375,-8.198379516601562
0,1326137,-9.47669792175293,35.97282791137695,18.452999114990234,-27.45629119873047
0,1326139,-13.363643646240234,61.13722229003906,18.764554977416992,30.56450843811035
0,1326141,-0.46558162569999695,-4.527073383331299,1.071089744567871,33.3260383605957
0,1326143,-16.899282455444336,-17.149179458618164,-11.327813148498535,-40.61164474487305
0,1326145,1.7842401266098022,1.3089276552200317,-5.780816555023193,-0.1736164391040802
0,1326147,7.004534721374512,15.579026222229004,16.90530776977539,52.59763717651367
0,1326149,22.8341064453125,28.51630973815918,3.7016541957855225,-0.631226658821106
0,1326151,16.263736724853516,-23.00299644470215,-6.404778957366943,-4.4515299797058105
0,1326153,-22.541105270385742,2.6598854064941406,18.0856876373291,4.104406833648682
0,1326155,-15.040657997131348,46.529483795166016,17.347793579101562,-26.821269989013672
0,1326157,14.658997535705566,-24.999267578125,-19.64091682434082,-17.70355987548828
0,1326159,6.128875255584717,-62.51054382324219,-25.720508575439453,27.01889419555664
0,1326161,-23.07110595703125,-37.23017501831055,-13.687798500061035,-5.862875461578369
0,1326163,-27.054365158081055,-20.846647262573242,-15.478992462158203,-70.70915985107422
0,1326165,20.998226165771484,5.901092052459717,21.920665740966797,27.062719345092773
0,1326167,41.88124465942383,41.86671447753906,23.90953254699707,66.11164855957031
0,1326169,-16.17426872253418,49.97966384887695,3.988243341445923,-38.69125747680664
0,1326171,-33.69789505004883,26.54011344909668,8.93658447265625,-6.3727850914001465
0,1326173,4.191883563995361,-15.393946647644043,-18.644983291625977,20.787063598632812
0,1326175,10.341828346252441,-31.183351516723633,-13.246068000793457,-19.54219627380371
0,1326177,6.940829753875732,-4.549348831176758,10.787049293518066,20.67976951599121
0,1326179,11.88114070892334,33.94710159301758,11.252264976501465,28.622081756591797
0,1326181,1.0354803800582886,-1.9201834201812744,-4.5808258056640625,-37.03768539428711
0,1326183,-4.1717424392700195,-23.297962188720703,-2.7988338470458984,-14.19365406036377
0,1326185,-11.056903839111328,8.118842124938965,10.661763191223145,41.97087097167969
0,1326187,-7.766489028930664,2.5029170513153076,-11.020602226257324,-4.4185309410095215
0,1326189,-4.818290710449219,-22.06296730041504,-9.976116180419922,-33.95743942260742
0,1326191,-12.11628532409668,-40.96475601196289,10.247293472290039,-6.079375267028809
0,1326193,21.020601272583008,13.600751876831055,-13.508758544921875,5.70335578918457
0,1326195,25.317180633544922,32.95442199707031,-7.091912269592285,11.286707878112793
0,1326197,-14.495906829833984,7.348945617675781,33.74755096435547,18.640525817871094
0,1326199,-22.28245735168457,11.760401725769043,1.1324080228805542,6.084690570831299
0,1326201,16.30018424987793,-7.647937297821045,-20.74933624267578,2.0132949352264404
0,1326203,25.29543685913086,-20.342060089111328,9.720697402954102,-7.213328838348389
0,1326205,-11.365281105041504,7.158084392547607,9.911168098449707,-32.97873306274414
0,1326207,-19.58224105834961,18.385379791259766,-30.051725387573242,-28.087785720825195
0,1326209,0.35133302211761475,-13.29114818572998,-15.525359153747559,33.647945404052734
0,1326211,13.524767875671387,-3.552424907684326,31.265195846557617,36.437965393066406
0,1326213,-3.2097063064575195,-16.727027893066406,-9.302030563354492,-38.70018768310547
0,1326215,-19.574874877929688,-25.609018325805664,-29.523977279663086,-19.452363967895508
0,1326217,12.40457820892334,48.48011016845703,43.65915298461914,22.586986541748047
0,1326219,27.75706672668457,41.58193588256836,40.02519226074219,15.08976936340332
0,1326221,-38.84323501586914,-56.31586837768555,-54.92142868041992,9.758320808410645
0,1326223,-8.885683059692383,-35.875030517578125,-30.519983291625977,2.1793527603149414
0,1326225,46.02454376220703,41.345279693603516,39.60910415649414,-24.071514129638672
0,1326227,-5.987191677093506,29.899280548095703,5.3393120765686035,-10.671616554260254
0,1326229,-7.764793395996094,8.295088768005371,8.984883308410645,20.04298973083496
0,1326231,-9.430490493774414,-31.592212677001953,16.58726692199707,9.740845680236816
0,1326233,-16.06828498840332,-23.83411407470703,-32.26081085205078,1.4655842781066895
0,1326235,7.531616687774658,19.440032958984375,-22.243070602416992,-14.775927543640137
0,1326237,7.392403602600098,20.766279220581055,20.94330596923828,-17.356863021850586
0,1326239,1.7224787473678589,2.3640828132629395,20.823379516601562,12.036742210388184
0,1326241,-10.874783515930176,0.11701549589633942,-9.71972370147705,31.47757911682129
0,1326243,-7.489666938781738,4.30539083480835,-16.27703857421875,-6.526106357574463
0,1326245,14.014986991882324,-67.76351928710938,-11.716145515441895,-47.702754974365234
0,1326247,-10.863329887390137,-53.58226013183594,-10.552383422851562,-14.065983772277832
0,1326249,-6.9189629554748535,47.57093811035156,13.347555160522461,14.793651580810547
0,1326251,30.342592239379883,61.44999313354492,21.83705711364746,6.438961982727051
0,1326254,9.987249374389648,10.7337007522583,4.1003217697143555,17.183561325073242
0,1326255,-2.7893197536468506,-9.628127098083496,-5.219955921173096,22.1988525390625
0,1326258,2.6891887187957764,5.118403911590576,-5.698540210723877,16.876596450805664
0,1326259,-18.221792221069336,4.828446388244629,2.534902811050415,-0.3314371705055237
0,1326262,-10.51600456237793,-9.013028144836426,2.5968739986419678,-32.45098876953125
0,1326263,11.363990783691406,-10.15455150604248,9.422526359558105,-19.949953079223633
0,1326266,6.203843116760254,7.579874038696289,-3.9710910320281982,17.360645294189453
0,1326267,4.05138635635376,1.540257453918457,-12.751181602478027,20.518821716308594
0,1326268,-13.188862800598145,-5.712648868560791,0.2384597808122635,8.908451080322266
0,1326271,2.20274019241333,10.363640785217285,-15.11655044555664,-14.666060447692871
0,1326272,20.626155853271484,-8.29883098602295,9.757377624511719,-36.075469970703125
0,1326275,-27.166900634765625,-32.29341506958008,19.071754455566406,5.822835445404053
0,1326276,-24.164003372192383,-8.171205520629883,-37.28887939453125,17.824935913085938
0,1326282,14.356158256530762,28.048696517944336,7.830671310424805,-12.042749404907227
0,1326282,19.335800170898438,32.76877975463867,41.86381530761719,3.0802650451660156
0,1326284,15.14518928527832,-11.09928035736084,-13.479589462280273,-6.116846561431885
0,1326285,-9.628000259399414,-33.90843963623047,-4.20704460144043,-27.454872131347656
0,1326286,-3.1002750396728516,1.4578851461410522,10.600711822509766,16.804101943969727
0,1326289,-6.095184803009033,2.7723805904388428,-6.904571533203125,50.13763427734375
0,1326290,-7.322453022003174,-30.051259994506836,-10.242362022399902,1.5220445394515991
0,1326293,17.15740203857422,6.443892955780029,-6.270726203918457,-38.05689239501953
0,1326294,1.044915795326233,27.60330581665039,0.21162673830986023,-1.2458370923995972
0,1326297,-15.59190845489502,5.161019325256348,9.032302856445312,1.5106847286224365
0,1326298,-0.7411096096038818,16.135095596313477,4.094002723693848,-21.655052185058594
0,1326301,11.242673873901367,1.910552978515625,-1.706327199935913,12.37401008605957
0,1326302,-5.021493434906006,-38.395198822021484,-7.3943190574646,18.06182861328125
0,1326305,-3.5778262615203857,34.53290557861328,5.298679828643799,22.77766990661621
0,1326306,0.580567479133606,48.18163299560547,-6.761806964874268,13.103117942810059
0,1326309,0.4033767580986023,-52.73934555053711,-25.05463409423828,-42.16652297973633
0,1326310,-16.540878295898438,-42.519859313964844,10.036822319030762,-15.246332168579102
0,1326313,-3.9637694358825684,22.819087982177734,26.232341766357422,34.385009765625
0,1326314,34.19761657714844,45.718502044677734,18.34964942932129,7.819664478302002
0,1326317,-15.250280380249023,-32.34922409057617,-11.243290901184082,-38.6436767578125
0,1326318,-22.83009910583496,-53.84095764160156,-36.14542770385742,-21.134815216064453
0,1326321,7.3391900062561035,-0.6870704293251038,-22.31267547607422,28.44333839416504
0,1326322,9.845056533813477,17.398536682128906,20.48357391357422,36.58575439453125
0,1326325,24.604665756225586,34.2839469909668,40.69716262817383,14.3529052734375
0,1326326,5.506248474121094,7.373300075531006,1.6873306035995483,-28.695289611816406
0,1326329,-8.790194511413574,15.116267204284668,-2.986381769180298,-31.602710723876953
0,1326330,-7.948729038238525,14.606931686401367,8.597497940063477,16.116615295410156
0,1326333,18.54411506652832,2.838787317276001,-8.301948547363281,11.739322662353516
0,1326334,14.885810852050781,6.559061527252197,-0.39415109157562256,1.0375900268554688
0,1326337,-21.19928741455078,-50.2933464050293,-6.86860466003418,15.159361839294434
0,1326338,-17.157651901245117,-21.20738410949707,-12.215758323669434,-15.282705307006836
0,1326341,-16.88766098022461,20.593355178833008,-5.78782844543457,-6.702611446380615
0,1326342,-8.360708236694336,0.9251388311386108,-8.058749198913574,-17.968292236328125
0,1326345,15.426533699035645,23.406871795654297,7.660888671875,-16.799278259277344
0,1326346,1.2728469371795654,-7.105110168457031,-0.7367900609970093,25.317054748535156
0,1326349,-9.592496871948242,-43.75786590576172,0.5484428405761719,18.674699783325195
0,1326350,19.908906936645508,6.209263801574707,13.362591743469238,12.93240737915039
0,1326353,-1.229356050491333,22.32080078125,-6.971836566925049,-25.672948837280273
0,1326354,-13.287620544433594,11.67691707611084,-3.4593536853790283,-13.64783763885498
0,1326357,7.542152404785156,-9.424799919128418,-3.182016372680664,7.333702087402344
0,1326358,-5.527367115020752,-40.01954650878906,-7.898595333099365,-5.439357757568359
0,1326361,2.7284135818481445,26.506872177124023,22.94440269470215,10.926228523254395
0,1326362,21.25263023376465,49.11509323120117,7.779529094696045,-0.6286478042602539
0,1326365,17.19359588623047,-11.279801368713379,-3.5182676315307617,5.378185749053955
0,1326366,-13.67294692993164,-12.811446189880371,1.4044861793518066,-7.427853584289551
0,1326369,-9.95722770690918,-3.4195616245269775,-30.10037612915039,-11.786669731140137
0,1326370,-4.755166530609131,-37.873252868652344,0.6263421773910522,7.589493274688721
0,1326373,-7.621823787689209,-26.76908302307129,25.218589782714844,5.595897197723389
0,1326374,34.790592193603516,70.17410278320312,13.123392105102539,9.983146667480469
0,1326377,-10.008676528930664,50.311126708984375,7.757552146911621,16.4616641998291
0,1326378,-37.145362854003906,-60.59855651855469,-27.20516014099121,-9.66413402557373
0,1326381,7.350504398345947,-30.235301971435547,-4.552559852600098,-35.26126480102539
0,1326382,5.617888450622559,19.78268814086914,21.977296829223633,20.291324615478516
0,1326385,3.593001365661621,17.375072479248047,-8.266257286071777,16.99532127380371
0,1326386,-7.85304069519043,3.2936129570007324,-13.714146614074707,-16.270402908325195
0,1326389,-10.791852951049805,-14.344915390014648,-6.768402576446533,9.648111343383789
0,1326390,16.166955947875977,21.814090728759766,7.9614949226379395,12.100680351257324
0,1326393,17.663488388061523,18.020368576049805,11.418429374694824,-7.652998924255371
0,1326394,-17.798303604125977,-32.062400817871094,-8.705026626586914,-9.963216781616211
0,1326397,-8.430438041687012,-38.108848571777344,-13.35913372039795,-0.3129081726074219
0,1326398,15.610126495361328,9.055580139160156,-1.784996747970581,-7.790590763092041
0,1326401,-3.083357095718384,0.192576065659523,-3.4500091075897217,8.2746000289917
0,1326402,14.489540100097656,11.85159969329834,15.154289245605469,-7.891865253448486
0,1326405,0.8306445479393005,30.39218521118164,34.12229537963867,-13.065519332885742
0,1326406,-31.041034698486328,-30.866924285888672,-18.374225616455078,36.828514099121094
0,1326409,16.06923484802246,15.3386812210083,-21.701419830322266,-26.971654891967773
0,1326410,6.3181633949279785,7.839967727661133,6.763711929321289,-28.379690170288086
0,1326413,-30.570226669311523,-27.36528205871582,-12.727694511413574,56.834415435791016
0,1326414,15.225106239318848,4.087307929992676,6.364068508148193,1.5834263563156128
0,1326417,11.457114219665527,-27.946197509765625,4.777305603027344,-41.41555404663086
0,1326418,-10.585122108459473,38.95242691040039,-0.5762307643890381,-12.338391304016113
0,1326421,31.188369750976562,46.506385803222656,26.97356605529785,23.34165382385254
0,1326422,3.1686387062072754,-50.94179153442383,5.863053321838379,39.72416305541992
0,1326425,-39.30970001220703,-0.9022140502929688,-20.97699737548828,-28.26810646057129
0,1326426,7.750161647796631,38.839778900146484,-13.02454948425293,-20.985422134399414
0,1326429,13.301774024963379,-16.915611267089844,1.7189275026321411,46.76870346069336
0,1326430,-19.656641006469727,-31.301254272460938,4.6454949378967285,-2.3617892265319824
0,1326433,1.2810759544372559,15.887871742248535,-0.055455442517995834,-49.553958892822266
0,1326434,12.804184913635254,7.362584114074707,-13.664216041564941,0.8508356213569641
0,1326437,3.573469877243042,-28.352935791015625,1.27479088306427,39.64432144165039
0,1326438,9.502601623535156,20.329587936401367,28.89840316772461,-6.253507137298584
0,1326441,14.802156448364258,28.497644424438477,-11.687907218933105,-12.999464988708496
0,1326442,-24.58403205871582,-23.883283615112305,-14.18015193939209,0.795294463634491
0,1326445,-35.46593475341797,-18.00836944580078,18.923128128051758,-6.186364650726318
0,1326446,19.284399032592773,3.6130759716033936,-18.6192684173584,11.824991226196289
0,1326449,22.644689559936523,-4.652662754058838,2.4801225662231445,5.605231285095215
0,1326450,-12.96340274810791,-3.1850204467773438,28.561004638671875,-1.9815566539764404
0,1326453,-2.3480021953582764,7.777642250061035,-22.515413284301758,-6.787417411804199
0,1326454,12.744562149047852,19.497941970825195,-7.763937473297119,-38.77552032470703
0,1326457,-12.860922813415527,8.492663383483887,5.2674126625061035,10.339137077331543
0,1326458,-6.098499774932861,-17.216876983642578,-10.197271347045898,62.13577651977539
0,1326461,-3.6523945331573486,-19.042987823486328,-2.876533031463623,-28.56743812561035
0,1326462,-12.404122352600098,3.3348424434661865,-0.8358951210975647,-36.62662124633789
0,1326465,28.173274993896484,28.035675048828125,36.18349838256836,46.80350112915039
0,1326466,26.916715621948242,5.377335071563721,2.3195738792419434,13.445775032043457
0,1326469,-30.27018928527832,-1.8830488920211792,-42.032901763916016,-41.037925720214844
0,1326470,-26.176292419433594,-6.480889797210693,6.215061664581299,-6.707046985626221
0,1326473,23.0390625,-15.644981384277344,25.7891902923584,10.908919334411621
0,1326474,18.042898178100586,14.265445709228516,7.0084686279296875,-2.593177080154419
0,1326477,6.294793128967285,36.56608963012695,12.223676681518555,21.09298324584961
0,1326478,3.084916830062866,14.77125358581543,10.422730445861816,16.48135757446289
0,1326481,-50.32838821411133,-88.19905090332031,-46.9688835144043,-36.7176399230957
0,1326482,-11.239023208618164,-76.8719253540039,-42.302852630615234,-21.896991729736328
0,1326485,58.11998748779297,76.5270767211914,30.845029830932617,19.828275680541992
0,1326486,-10.223088264465332,63.89609146118164,36.8207893371582,1.3111470937728882
0,1326489,-39.638614654541016,-58.583248138427734,-22.444053649902344,17.738718032836914
0,1326490,22.86325454711914,-14.415860176086426,-17.031335830688477,16.231931686401367
0,1326493,34.5036735534668,46.606082916259766,25.396440505981445,-38.83369445800781
0,1326494,-17.085857391357422,5.3619890213012695,7.118021488189697,-13.239355087280273
0,1326497,-11.690524101257324,12.251276969909668,-12.6973237991333,24.854080200195312
0,1326498,16.51074981689453,2.545389413833618,-5.345062255859375,-0.42568767070770264
0,1326501,-6.683821201324463,-39.51520538330078,9.07751178741455,1.3489391803741455
0,1326502,-10.252004623413086,-13.26633358001709,8.510048866271973,12.120850563049316
0,1326505,-9.694156646728516,11.976930618286133,-16.93714141845703,0.8807759284973145
0,1326506,-7.728971481323242,4.003108978271484,-23.73650550842285,0.43206489086151123
0,1326509,34.620994567871094,20.889982223510742,26.135969161987305,-15.875136375427246
0,1326510,9.906246185302734,8.414007186889648,41.341575622558594,1.1454564332962036
0,1326513,-43.30146408081055,-30.61445426940918,-43.99113845825195,2.2136118412017822
0,1326514,-15.154361724853516,-9.22273063659668,-30.866994857788086,1.2761893272399902
1,1326517,20.042383193969727,1.5278226137161255,36.12642288208008,24.10198974609375
1,1326518,30.286026000976562,-4.37982702255249,-2.7296667098999023,-36.86593246459961
1,1326521,-4.9188714027404785,37.173988342285156,-8.180521011352539,-4.361624240875244
1,1326522,-31.53386116027832,35.45223617553711,22.165424346923828,26.92000389099121
1,1326525,15.233491897583008,-29.179393768310547,3.565376043319702,-21.593856811523438
1,1326527,21.03507423400879,-23.976533889770508,-20.851110458374023,20.516517639160156
1,1326529,-20.248748779296875,11.7473726272583,13.143298149108887,7.8638811111450195
1,1326531,-7.957759857177734,-18.12358856201172,-1.7481071949005127,-38.58932876586914
1,1326533,5.964300155639648,-18.948366165161133,-26.203092575073242,-7.193348407745361
1,1326535,1.7525875568389893,6.442178726196289,18.941804885864258,29.238807678222656
1,1326537,8.839537620544434,25.67731285095215,8.053105354309082,15.959898948669434
1,1326539,13.115052223205566,23.266143798828125,-5.2402753829956055,-4.440855979919434
1,1326541,-3.264634132385254,-28.540546417236328,13.6902437210083,7.191802978515625
1,1326543,-18.451175689697266,-12.083695411682129,-3.1280770301818848,-17.76696014404297
1,1326544,-9.4095458984375,-12.80426025390625,-16.331247329711914,-32.41666030883789
1,1326548,7.743570327758789,-23.748310089111328,-18.184558868408203,15.440455436706543
1,1326549,20.772981643676758,58.7444953918457,12.287572860717773,16.09833526611328
1,1326551,6.414074420928955,23.952699661254883,25.317195892333984,-0.9929832220077515
1,1326553,-17.342554092407227,-45.57948303222656,-7.515044212341309,17.522653579711914
1,1326555,-30.035634994506836,-8.235814094543457,-4.348432540893555,-10.441913604736328
1,1326557,6.724673271179199,28.06438446044922,2.8841354846954346,-10.848130226135254
1,1326559,15.340737342834473,-2.9117319583892822,2.199347972869873,13.821234703063965
1,1326561,-4.7829484939575195,-19.983739852905273,-12.107227325439453,-0.6197224259376526
1,1326563,15.061497688293457,28.957033157348633,-1.6620465517044067,-17.141380310058594
1,1326565,-12.2685546875,24.393009185791016,21.30027198791504,-3.3339476585388184
1,1326567,-5.68771505355835,-34.46405792236328,-13.891375541687012,31.219772338867188
1,1326569,14.782920837402344,-28.69411277770996,-25.345251083374023,-11.897743225097656
1,1326571,-8.15678882598877,8.529802322387695,14.384780883789062,-41.1174430847168
1,1326573,8.818018913269043,-8.438055038452148,21.0469913482666,31.323516845703125
1,1326575,-2.1615054607391357,-4.552918910980225,-29.368324279785156,3.921599864959717
1,1326577,-12.396746635437012,36.67934036254883,-7.217257499694824,-43.20117950439453
1,1326579,20.526269912719727,27.29850196838379,40.30590057373047,35.841976165771484
1,1326581,0.8699190020561218,-11.963508605957031,-7.612112998962402,40.308101654052734
1,1326583,-21.21603012084961,-24.867664337158203,-20.3414363861084,-30.60631561279297
1,1326585,10.969688415527344,-3.222292423248291,16.213346481323242,-23.137685775756836
1,1326587,5.426661014556885,2.470520257949829,12.430826187133789,16.262901306152344
1,1326589,-8.242775917053223,-2.0798418521881104,-6.3387980461120605,11.139142036437988
1,1326591,13.305419921875,31.975147247314453,-3.7461729049682617,-3.2319037914276123
1,1326593,-12.764517784118652,-15.877819061279297,-3.9249088764190674,-23.35701560974121
1,1326595,-22.766265869140625,-86.43651580810547,-9.667699813842773,-9.219963073730469
1,1326597,23.283615112304688,30.489166259765625,8.287991523742676,45.38979721069336
1,1326599,14.578563690185547,106.53616333007812,17.13475227355957,18.835193634033203
1,1326601,-19.307510375976562,-29.322771072387695,-16.852123260498047,-54.94646453857422
1,1326603,5.043745040893555,-61.44679641723633,-24.705583572387695,-8.798147201538086
1,1326605,9.16051197052002,9.726428031921387,17.650278091430664,33.843170166015625
1,1326607,-11.177549362182617,29.70486831665039,22.852819442749023,-6.021722793579102
1,1326609,-8.552008628845215,15.926132202148438,-9.881173133850098,1.984102487564087
1,1326611,7.601698398590088,-13.30390453338623,-4.169883728027344,4.707306385040283
1,1326613,6.297832012176514,-11.157591819763184,-4.989871501922607,-14.812663078308105
1,1326615,-9.897265434265137,3.874337911605835,1.692206621170044,11.969804763793945
1,1326617,5.276976108551025,-9.221091270446777,12.894149780273438,21.357833862304688
1,1326619,-2.7132561206817627,-29.06178092956543,-30.100553512573242,-34.45888900756836
1,1326621,-16.003459930419922,9.031464576721191,-18.99020004272461,-3.534968376159668
1,1326623,6.5198259353637695,32.517539978027344,26.871267318725586,16.250350952148438
1,1326625,11.904711723327637,-5.667986869812012,33.53367614746094,-39.60799026489258
1,1326627,12.580669403076172,-5.465656280517578,5.790304660797119,15.073925971984863
1,1326629,4.322251796722412,18.68349838256836,-41.00790786743164,44.60480880737305
1,1326631,-22.30222511291504,-4.261927127838135,-3.9045794010162354,-10.689864158630371
1,1326633,6.282375335693359,-5.618721961975098,40.24420928955078,-35.862266540527344
1,1326635,-5.58475923538208,-1.6450867652893066,-8.734920501708984,0.25301337242126465
1,1326637,-19.357852935791016,-11.495890617370605,-29.39999008178711,42.92162322998047
1,1326639,39.741397857666016,-2.6172826290130615,18.206178665161133,-5.653736591339111
1,1326641,8.466293334960938,-2.1334993839263916,15.524942398071289,-36.01869583129883
1,1326643,-22.19947052001953,-12.092483520507812,-40.65542221069336,23.94279670715332
1,1326645,3.9642140865325928,-0.5716524124145508,6.441755771636963,15.385782241821289
1,1326647,-21.811494827270508,28.80329704284668,30.671262741088867,-22.12403106689453
1,1326649,1.473618984222412,15.523659706115723,-23.666114807128906,0.5999526977539062
1,1326651,35.930137634277344,-9.306384086608887,-3.107832670211792,6.595492362976074
1,1326653,1.4400185346603394,5.1249895095825195,7.680715084075928,-10.712575912475586
1,1326655,-8.024155616760254,-16.086748123168945,-1.4532514810562134,4.128022193908691
1,1326657,-24.686262130737305,-8.095576286315918,8.471758842468262,13.973652839660645
1,1326659,-13.203628540039062,28.69609260559082,-1.2442116737365723,-19.486671447753906
1,1326661,19.240528106689453,-29.96419334411621,-20.210311889648438,3.308924674987793
1,1326663,1.2797503471374512,-20.478425979614258,-3.8221423625946045,26.202720642089844
1,1326665,-0.7667975425720215,38.85997772216797,25.74705696105957,-21.998117446899414
1,1326667,12.632367134094238,-1.346887469291687,7.651762962341309,-25.871572494506836
1,1326669,3.192810297012329,-26.10431671142578,-25.298545837402344,18.75023651123047
1,1326671,-4.396107196807861,8.868196487426758,-9.476961135864258,14.903264999389648
1,1326673,5.216207027435303,26.97438621520996,38.431636810302734,8.535699844360352
1,1326675,-9.507161140441895,0.960162341594696,14.82802963256836,-6.124986171722412
1,1326677,-7.346853256225586,-33.14606475830078,-31.788681030273438,-16.91423988342285
1,1326679,11.666848182678223,-18.110767364501953,-4.635547637939453,13.020258903503418
1,1326681,-20.4732666015625,24.21255874633789,-0.018848568201065063,9.932368278503418
1,1326683,-10.469395637512207,20.95178985595703,4.411954879760742,1.2858871221542358
1,1326685,38.147769927978516,8.463544845581055,39.26145553588867,-14.288874626159668
1,1326687,1.952872633934021,4.40193510055542,-28.646203994750977,4.3737711906433105
1,1326689,-18.901575088500977,-18.62712287902832,-39.734134674072266,0.5491154789924622
1,1326691,10.319507598876953,-10.125141143798828,36.27608108520508,-38.314762115478516
1,1326693,-35.13542938232422,-7.541286468505859,-9.744215965270996,-3.5632107257843018
1,1326695,-3.9654598236083984,-2.30263090133667,-18.794639587402344,26.38020896911621
1,1326697,53.05879211425781,7.4123454093933105,14.304122924804688,32.7031135559082
1,1326699,-9.561080932617188,-5.067122459411621,-2.648483991622925,-27.982219696044922
1,1326701,-16.34665298461914,3.9758570194244385,16.441463470458984,-46.253780364990234
1,1326703,11.172757148742676,18.162212371826172,13.662071228027344,41.444786071777344
1,1326705,-5.462267875671387,-1.0197746753692627,-10.333539009094238,23.601900100708008
1,1326707,-7.2428059577941895,-25.91983985900879,-8.856709480285645,-14.038043975830078
1,1326709,17.229434967041016,-0.22879165410995483,8.793025970458984,10.372072219848633
1,1326711,-1.1925463676452637,0.6408756971359253,-2.0476112365722656,-9.87731647491455
1,1326713,-24.123090744018555,-3.154874801635742,-26.887420654296875,-16.957956314086914
1,1326715,-1.87619948387146,28.24805450439453,7.221075534820557,21.20522117614746
1,1326717,21.374135971069336,16.364492416381836,37.49455642700195,5.020458221435547
1,1326719,7.667479038238525,-4.862669467926025,-5.3000640869140625,-16.936059951782227
1,1326721,-13.599721908569336,0.4823418855667114,-15.528992652893066,19.205217361450195
1,1326723,-9.199432373046875,-3.4158802032470703,-4.328972339630127,-2.155155658721924
1,1326725,-13.899225234985352,-32.214599609375,-15.073668479919434,-26.81597900390625
1,1326727,22.37978744506836,-16.57117462158203,14.685108184814453,12.300460815429688
1,1326729,22.156005859375,43.80522155761719,-2.4891726970672607,8.895689964294434
1,1326731,-23.05918312072754,-0.5830463171005249,-14.27999210357666,-1.1397523880004883
1,1326733,-9.68621826171875,-33.24490737915039,10.008480072021484,-0.16054895520210266
1,1326735,1.646969199180603,-4.243377208709717,1.3511860370635986,-24.804790496826172
1,1326737,13.537334442138672,5.584961414337158,13.026366233825684,5.034957408905029
1,1326739,6.955146312713623,32.63264846801758,2.4141690731048584,29.0607852935791
1,1326741,-12.484890937805176,9.078841209411621,-11.516043663024902,10.229240417480469
1,1326743,12.297136306762695,-3.143721342086792,5.967604637145996,-12.155291557312012
1,1326745,3.073458433151245,-14.711173057556152,-0.7823680639266968,-47.82109069824219
1,1326747,-18.858539581298828,-32.590782165527344,-6.053014755249023,-9.581940650939941
1,1326749,4.961423873901367,10.161001205444336,5.138967990875244,51.788726806640625
1,1326751,8.878347396850586,26.304712295532227,7.638835906982422,26.22386932373047
1,1326753,-13.845638275146484,-4.824705123901367,-15.694293975830078,-27.749706268310547
1,1326755,-7.307974815368652,-9.507792472839355,-7.111541748046875,-5.668746471405029
1,1326757,19.878501892089844,10.442358016967773,18.007688522338867,5.302008628845215
1,1326759,5.644739151000977,-8.778851509094238,-5.901336193084717,-30.9976863861084
1,1326761,-17.430713653564453,-14.26443862915039,-18.870283126831055,15.217212677001953
1,1326763,2.001840114593506,20.274763107299805,11.465272903442383,19.1962833404541
1,1326765,10.844417572021484,1.8389689922332764,-2.5199263095855713,-28.114715576171875
1,1326767,-14.61030101776123,-9.014874458312988,-15.709066390991211,30.86265754699707
1,1326769,-11.495532035827637,2.857332468032837,31.552045822143555,14.906405448913574
1,1326771,5.826130390167236,-16.245756149291992,9.42297077178955,-39.538726806640625
1,1326774,-2.9978270530700684,-0.5863170623779297,-10.795411109924316,4.517143249511719
1,1326775,-1.737607479095459,22.427759170532227,13.881143569946289,11.829358100891113
1,1326778,18.729352951049805,23.636951446533203,-6.001620769500732,-12.502640724182129
1,1326779,11.39618968963623,-10.307334899902344,-11.87368392944336,4.904799461364746
1,1326782,-16.73858642578125,-31.287839889526367,11.477079391479492,20.800426483154297
1,1326783,1.0998029708862305,7.997284412384033,-5.715165138244629,1.3563201427459717
1,1326786,16.015073776245117,14.231465339660645,-15.085257530212402,-6.650595188140869
1,1326787,-2.4883601665496826,-5.2478790283203125,6.701714515686035,-28.15221405029297
1,1326788,-11.680453300476074,2.0882785320281982,6.285395622253418,-9.85431957244873
1,1327043,3.390200614929199,18.62070655822754,0.9303162097930908,30.450700759887695
1,1327046,17.497989654541016,-6.314026355743408,-4.918612003326416,26.1153621673584
1,1327048,-5.390827178955078,-15.378028869628906,-0.10368946939706802,14.190655708312988
1,1327050,-16.181364059448242,14.701756477355957,6.269832611083984,-4.8450422286987305
1,1327052,-2.015348434448242,-13.120497703552246,-18.025894165039062,-24.64662742614746
1,1327054,4.327061653137207,-31.15149688720703,-15.281697273254395,-44.97928237915039
1,1327059,-2.370509147644043,15.609049797058105,30.420454025268555,-33.48598098754883
1,1327059,-5.01718282699585,25.606380462646484,31.039682388305664,26.423913955688477
1,1327060,-11.133818626403809,-49.186729431152344,-35.94557571411133,17.948123931884766
1,1327062,-11.90386962890625,-30.10843276977539,-29.31199836730957,-28.976789474487305
1,1327064,25.162878036499023,81.50553894042969,46.81836700439453,31.915719985961914
1,1327066,23.760387420654297,40.31541061401367,12.456488609313965,52.37153625488281
1,1327068,-25.723037719726562,-56.28742980957031,-43.95058822631836,25.703886032104492
1,1327070,-3.5319902896881104,-11.734736442565918,5.354805946350098,4.26718282699585
1,1327072,31.38968276977539,28.410058975219727,38.75800323486328,-52.756813049316406
1,1327074,-21.104745864868164,-13.840392112731934,-7.840743541717529,-24.579633712768555
1,1327076,-26.20222282409668,-20.145627975463867,-36.272743225097656,-11.1168794631958
1,1327078,33.907928466796875,-7.9470601081848145,-11.377232551574707,-27.18593978881836
1,1327080,20.491498947143555,9.21001148223877,19.900148391723633,27.931318283081055
1,1327082,-37.014366149902344,5.93988561630249,-5.969852924346924,17.796539306640625
1,1327084,-3.488063097000122,1.4812171459197998,0.8812028169631958,-0.5885265469551086
1,1327086,28.170204162597656,39.24052429199219,31.695951461791992,40.07638931274414
1,1327088,-7.806022644042969,6.485169410705566,-11.36602783203125,8.854228019714355
1,1327090,-14.456097602844238,-40.08808135986328,-13.140856742858887,-45.05298614501953
1,1327092,-4.7345380783081055,-1.8676621913909912,-6.810412883758545,-6.581000328063965
1,1327094,2.923773765563965,10.36850357055664,7.979617118835449,18.436975479125977
1,1327096,-7.12637186050415,-3.2885055541992188,42.6603889465332,-16.128196716308594
1,1327098,12.307520866394043,3.607001781463623,7.7063307762146,-6.570684909820557
1,1327100,9.548552513122559,-36.257076263427734,-48.67035675048828,-21.4532470703125
1,1327102,-14.78278923034668,4.139706134796143,-16.7216739654541,1.848824143409729
1,1327104,7.4332451820373535,43.59600067138672,15.501984596252441,22.816417694091797
1,1327106,-8.628814697265625,-16.443567276000977,-15.863107681274414,-16.59307098388672
1,1327108,1.1342589855194092,-9.047056198120117,17.946535110473633,31.32554054260254
1,1327110,9.000611305236816,-3.437098503112793,17.591209411621094,31.126041412353516
1,1327112,-19.270334243774414,5.918931007385254,-16.63339614868164,-17.720739364624023
1,1327114,18.641000747680664,26.72026824951172,10.193482398986816,-4.82555627822876
1,1327116,12.396466255187988,-2.1400744915008545,-1.3695930242538452,-22.53891372680664
1,1327118,-7.439300537109375,-11.563611030578613,-21.052162170410156,-17.420289993286133
1,1327120,11.442676544189453,1.4234693050384521,-0.7467494010925293,32.498130798339844
1,1327122,6.231625080108643,2.1168196201324463,9.520736694335938,-13.611045837402344
1,1327124,-18.004745483398438,-6.6437087059021,4.329132080078125,0.7128106951713562
1,1327126,-29.588380813598633,-26.691259384155273,-14.629203796386719,41.28565216064453
1,1327128,14.946362495422363,-0.4975496828556061,3.2172632217407227,-24.82367515563965
1,1327130,11.519533157348633,19.458547592163086,20.67644691467285,-8.468573570251465
1,1327132,-12.865574836730957,-2.8187124729156494,-19.50907325744629,-20.194557189941406
1,1327134,-4.84645938873291,10.833060264587402,-5.691884994506836,-29.01999855041504
1,1327136,16.512407302856445,6.7032694816589355,23.742923736572266,60.54498291015625
1,1327138,24.88317108154297,6.389152526855469,-4.9686431884765625,10.482166290283203
1,1327140,-15.409377098083496,-4.640410900115967,6.627145767211914,-34.831809997558594
1,1327142,-25.328880310058594,-32.80968475341797,9.173233032226562,17.676132202148438
1,1327144,12.018073081970215,11.810709953308105,-15.201057434082031,9.322115898132324
1,1327146,20.268972396850586,17.92344093322754,-0.2539612650871277,-9.98572063446045
1,1327148,-26.05493927001953,-19.534862518310547,9.495014190673828,-0.4469146728515625
1,1327150,-7.394079685211182,16.020912170410156,-9.516264915466309,-11.310124397277832
1,1327152,31.04050636291504,10.42823314666748,-16.5694580078125,-28.386600494384766
1,1327154,-8.97629451751709,-35.02545928955078,4.593479156494141,9.548712730407715
1,1327156,-20.78911781311035,-0.5710572600364685,16.59592628479004,-4.251120090484619
1,1327158,11.005311965942383,18.524566650390625,-22.432228088378906,-27.309898376464844
1,1327160,11.392571449279785,-16.085996627807617,-24.288379669189453,30.862529754638672
1,1327162,-4.343153953552246,3.6379387378692627,48.16403579711914,31.19268226623535
1,1327164,-12.477147102355957,41.27061080932617,18.742353439331055,12.761494636535645
1,1327166,9.472525596618652,3.710989475250244,-35.809776306152344,25.6163387298584
1,1327168,16.386898040771484,-31.336915969848633,-1.699766755104065,2.4843499660491943
1,1327170,-20.95882225036621,-8.183067321777344,18.88582420349121,-19.545379638671875
1,1327172,-0.27441200613975525,4.551294326782227,-2.0533227920532227,-11.722122192382812
1,1327174,16.620561599731445,12.451149940490723,-2.202738046646118,15.008800506591797
1,1327176,-18.60173225402832,-12.3314790725708,4.428479194641113,-12.133155822753906
1,1327178,0.41272157430648804,-40.65834045410156,-8.967791557312012,-38.12781524658203
1,1327180,23.500551223754883,30.933107376098633,-0.8449500203132629,17.784854888916016
1,1327182,-26.618566513061523,47.90817642211914,8.10798168182373,-9.141995429992676
1,1327184,-12.884695053100586,-9.423524856567383,-13.91065502166748,-9.0389404296875
1,1327186,26.819425582885742,-17.09076499938965,-15.725659370422363,40.213584899902344
1,1327188,-12.411364555358887,-12.02078628540039,16.432878494262695,-20.169769287109375
1,1327190,-17.463356018066406,8.018514633178711,17.017887115478516,-13.60881233215332
1,1327192,23.277128219604492,4.296530723571777,-4.084069728851318,20.36497688293457
1,1327194,2.837320566177368,-25.483118057250977,-21.64916229248047,-8.128546714782715
1,1327196,1.6064330339431763,-2.6729612350463867,10.634387969970703,2.596041202545166
1,1327198,8.158514022827148,-4.436126708984375,11.445201873779297,-3.340282917022705
1,1327200,-42.05006408691406,-5.7414350509643555,-31.3066463470459,-17.384708404541016
1,1327202,16.161876678466797,15.020536422729492,53.08642578125,24.524925231933594
1,1327204,48.40970993041992,15.059898376464844,33.09889221191406,21.913799285888672
1,1327206,-11.419778823852539,21.69402313232422,-80.5687255859375,-22.36870002746582
1,1327208,-28.912771224975586,-11.803790092468262,-9.119949340820312,-16.22852897644043
1,1327210,-4.506449222564697,-10.295783042907715,42.50762939453125,-13.19794750213623
1,1327212,9.115492820739746,0.22795867919921875,6.190197944641113,20.88950538635254
1,1327214,4.3060407638549805,-1.2913774251937866,-13.361251831054688,44.077091217041016
1,1327216,28.938825607299805,19.898649215698242,-8.119222640991211,-21.663949966430664
1,1327218,-6.947732925415039,-5.094543933868408,-9.0505952835083,-20.558204650878906
1,1327220,-41.248661041259766,3.2812585830688477,-15.911731719970703,-5.33671236038208
1,1327222,-2.250915050506592,5.3896708488464355,2.8302855491638184,-17.52819061279297
1,1327224,8.534710884094238,-33.330902099609375,12.00281810760498,24.63947296142578
1,1327226,0.07617079466581345,-11.519247055053711,13.994566917419434,8.108478546142578
1,1327228,18.107227325439453,13.521821975708008,-5.260458946228027,-27.82644271850586
1,1327230,17.01949691772461,0.25877612829208374,-24.312870025634766,16.516830444335938
1,1327232,-23.918867111206055,14.204198837280273,3.0664565563201904,29.556846618652344
1,1327234,-15.007844924926758,3.270249843597412,35.841102600097656,-19.806344985961914
1,1327236,5.4085235595703125,-29.435720443725586,4.242825031280518,-21.299711227416992
1,1327238,-10.982855796813965,13.549946784973145,-25.729658126831055,10.565566062927246
1,1327240,9.36951732635498,34.89958190917969,10.604875564575195,8.428763389587402
1,1327242,18.1671142578125,-6.67370080947876,16.343000411987305,-17.875003814697266
1,1327244,8.361381530761719,-27.946556091308594,-11.336002349853516,25.455690383911133
1,1327246,4.160038471221924,-15.447192192077637,-22.085996627807617,22.976306915283203
1,1327248,-26.015710830688477,-8.739919662475586,-10.80871295928955,-63.18572235107422
1,1327250,-21.274944305419922,7.831923484802246,31.698129653930664,4.0157318115234375
1,1327252,30.104961395263672,52.45998001098633,25.5681209564209,48.99197006225586
1,1327254,6.463207244873047,5.0199294090271,-16.881818771362305,-9.908411979675293
1,1327256,-6.010353088378906,-47.76252365112305,-14.509514808654785,-38.59207534790039
1,1327258,13.447200775146484,-7.5207600593566895,-15.822551727294922,-3.7825560569763184
1,1327260,-13.371781349182129,11.61220645904541,-1.5895460844039917,36.975067138671875
1,1327262,-14.216503143310547,16.09446907043457,22.9111270904541,4.6733622550964355
1,1327264,-4.284951210021973,12.868571281433105,0.27590346336364746,-8.572144508361816
1,1327266,8.712204933166504,2.3868024349212646,-0.5475633144378662,-0.7160419821739197
1,1327268,6.538566589355469,-29.10021209716797,5.780437469482422,-10.652083396911621
1,1327270,1.5293070077896118,-20.995922088623047,-15.365055084228516,-15.622257232666016
1,1327272,11.59636402130127,32.235233306884766,-11.826822280883789,6.650010108947754
1,1327274,0.7803412675857544,2.5463955402374268,12.960304260253906,27.045024871826172
1,1327277,-30.428956985473633,-18.264158248901367,-3.7966737747192383,-2.7375411987304688
1,1327278,-1.4205381870269775,19.018457412719727,-4.210503101348877,-14.594040870666504
1,1327281,28.097620010375977,-5.216006755828857,1.308938980102539,-5.725870132446289
1,1328297,-9.53935432434082,-35.735496520996094,-3.791640520095825,10.618634223937988
1,1328300,1.0368670225143433,22.03632164001465,28.390357971191406,23.91866683959961
1,1328301,8.161321640014648,24.859088897705078,15.019004821777344,-44.75922393798828
1,1328304,-26.60325813293457,-19.222726821899414,-15.872066497802734,-11.737683296203613
1,1328305,-0.8053814768791199,7.462424278259277,-18.826416015625,77.66254425048828
1,1328306,13.482181549072266,11.671433448791504,-7.4412126541137695,6.155962944030762
1,1328309,-20.411928176879883,-24.812210083007812,-14.079851150512695,-54.148773193359375
1,1328310,6.642829895019531,-2.7555456161499023,5.439595699310303,-17.724140167236328
1,1328313,40.0870361328125,30.933446884155273,27.78598403930664,47.238426208496094
1,1328314,13.218219757080078,-11.64891242980957,5.0873541831970215,39.01089859008789
1,1328317,-13.469876289367676,-0.23742206394672394,10.05102252960205,-65.05337524414062
1,1328318,-37.59799575805664,13.537666320800781,18.177066802978516,-40.02705764770508
1,1328321,3.583082675933838,-8.444822311401367,-15.651667594909668,34.014495849609375
1,1328322,34.51540756225586,-0.5062033534049988,-46.96208572387695,-21.465526580810547
1,1328325,-10.993160247802734,-48.16059494018555,-3.0860915184020996,-46.47737503051758
1,1328326,13.286572456359863,15.320433616638184,28.89450454711914,37.99313735961914
1,1328329,-15.925037384033203,57.139442443847656,3.6621592044830322,59.2750358581543
1,1328330,-58.425811767578125,-25.984981536865234,-0.5143879055976868,1.2744519710540771
1,1328333,14.891266822814941,5.5350728034973145,-19.35268211364746,-26.759693145751953
1,1328334,20.591127395629883,-35.59239196777344,-19.511812210083008,-16.270021438598633
1,1328340,6.785093784332275,-34.723602294921875,34.95242691040039,27.979297637939453
1,1328340,10.565874099731445,57.28337097167969,7.599538803100586,2.1990370750427246
1,1328341,-22.919675827026367,12.614080429077148,-41.97026062011719,-22.629798889160156
1,1328343,13.292887687683105,7.046299457550049,18.41779899597168,23.2358455657959
1,1328345,29.152177810668945,-1.29252290725708,12.220198631286621,6.521480560302734
1,1328347,-9.537755966186523,-28.6732120513916,-26.77229881286621,1.668521761894226
1,1328349,12.973650932312012,-8.541810035705566,36.98712921142578,-1.9773489236831665
1,1328351,2.623474597930908,7.627560615539551,29.06570816040039,-49.43389129638672
1,1328353,-43.67009735107422,31.068395614624023,-6.476069450378418,2.347419023513794
1,1328355,-18.772491455078125,8.614837646484375,-16.290536880493164,19.045135498046875
1,1328357,9.274823188781738,-34.620140075683594,-38.20201873779297,-34.72719955444336
1,1328359,15.168837547302246,-14.814729690551758,1.5596126317977905,3.697986602783203
1,1328361,9.717391014099121,27.449325561523438,56.378353118896484,62.03691101074219
1,1328363,17.732486724853516,15.743884086608887,32.67204666137695,29.17340660095215
1,1328365,22.59992027282715,-33.5092658996582,-84.48680114746094,-29.207324981689453
1,1328367,-31.227252960205078,-21.132978439331055,-80.80168151855469,-22.31061363220215
1,1328369,-32.83488082885742,8.235760688781738,-5.23892068862915,-17.906322479248047
1,1328371,21.31315803527832,2.9788074493408203,-7.899280548095703,3.9203734397888184
1,1328373,47.47426986694336,46.1085205078125,93.49604797363281,80.95377349853516
1,1328375,-3.422835350036621,7.127286911010742,96.9168701171875,10.85965347290039
1,1328377,-67.17059326171875,-47.15754318237305,-17.202381134033203,-90.69083404541016
1,1328379,-8.407208442687988,8.9147310256958,-21.4717960357666,-14.8657808303833
1,1328381,27.746007919311523,-6.588143825531006,-26.68857192993164,13.84156608581543
1,1328383,-24.784589767456055,-26.569129943847656,-6.474946022033691,-32.741275787353516
1,1328385,7.0630950927734375,51.93505096435547,36.87461471557617,26.83648109436035
1,1328387,31.49116325378418,57.16846466064453,32.794647216796875,34.54214859008789
1,1328389,-14.302712440490723,-44.114097595214844,-17.9748592376709,-24.00446128845215
1,1328391,-3.3702311515808105,-35.22568130493164,-41.881141662597656,35.842811584472656
1,1328393,5.943704605102539,16.23555564880371,-46.07371139526367,16.13221549987793
1,1328395,13.130513191223145,-9.366172790527344,-33.97865295410156,-46.56470489501953
1,1328397,22.886722564697266,-3.8880114555358887,26.35863494873047,6.310639381408691
1,1328399,11.467820167541504,9.622713088989258,16.456762313842773,25.8903751373291
1,1328401,-33.801204681396484,-61.84450149536133,-23.133304595947266,-15.324726104736328
1,1328403,-52.285865783691406,-23.06415557861328,28.229581832885742,-21.84421730041504
1,1328405,10.805423736572266,251.116455078125,83.48495483398438,-38.99042892456055
1,1328407,10.026040077209473,173.30104064941406,-5.734696388244629,-26.600976943969727
1,1328409,0.2350708544254303,-158.85433959960938,-104.28458404541016,62.28670883178711
1,1328411,7.315725803375244,-115.043701171875,-44.313392639160156,41.17759323120117
1,1328413,16.96418571472168,-33.17914962768555,5.375398635864258,-4.680865287780762
1,1328415,42.17845916748047,-26.601953506469727,22.743370056152344,-6.871279239654541
1,1328417,-10.778151512145996,6.500105857849121,125.61322784423828,-41.45481872558594
1,1328419,-19.867223739624023,-45.52372360229492,70.68504333496094,3.215240716934204
1,1328421,0.19493326544761658,-96.78327941894531,-127.92955780029297,15.769254684448242
1,1328423,-31.132259368896484,-79.82644653320312,-95.70673370361328,-22.88768196105957
1,1328425,-29.172754287719727,48.671287536621094,26.604677200317383,20.99738311767578
1,1328427,4.867713451385498,40.5969352722168,12.963623046875,40.815284729003906
1,1328429,76.52594757080078,-9.70746898651123,59.28879928588867,32.668914794921875
1,1328431,38.21782302856445,44.27920150756836,66.27175903320312,-29.406091690063477
1,1328433,-100.07390594482422,39.533878326416016,-11.570951461791992,-87.38404846191406
1,1328435,-62.26640319824219,44.595542907714844,-32.56890869140625,-9.798187255859375
1,1328437,51.92984390258789,13.688456535339355,-50.065879821777344,73.49246215820312
1,1328439,34.60081100463867,-9.894102096557617,-20.107833862304688,45.621849060058594
1,1328441,-2.8071987628936768,12.196584701538086,34.93954849243164,-52.482513427734375
1,1328443,57.506744384765625,-2.016692638397217,44.859832763671875,-33.475006103515625
1,1328445,35.51591110229492,22.474651336669922,-15.59115219116211,36.64173126220703
1,1328447,-63.57469940185547,-4.3046345710754395,-60.9390754699707,-14.078506469726562
1,1328449,-81.81082153320312,-49.74467086791992,-31.070207595825195,-37.31533432006836
1,1328451,-40.462066650390625,9.756691932678223,-26.799604415893555,18.813859939575195
1,1328453,75.40415954589844,6.155150890350342,67.90019989013672,38.14267349243164
1,1328455,73.23562622070312,14.219419479370117,125.65015411376953,10.211105346679688
1,1328457,-20.913908004760742,48.18833923339844,-55.57610321044922,7.59668493270874
1,1328459,-20.869626998901367,-5.442978858947754,-116.18944549560547,-10.814057350158691
1,1328461,-9.698570251464844,-65.71049499511719,-39.23466873168945,-37.0629997253418
1,1328463,13.26856517791748,-41.99973678588867,19.634145736694336,4.8817572593688965
1,1328465,-5.92071533203125,11.851865768432617,73.37442779541016,5.127525329589844
1,1328467,-41.19382858276367,1.755690097808838,88.12509155273438,-6.200268268585205
1,1328469,6.162194728851318,1.7260310649871826,98.8921127319336,-4.918720722198486
1,1328471,34.544464111328125,-5.321934700012207,-43.3212776184082,-27.57277488708496
1,1328473,16.801156997680664,-16.094236373901367,-198.2039337158203,23.375398635864258
1,1328475,-30.116289138793945,18.481428146362305,-80.79390716552734,23.031545639038086
1,1328477,-27.167421340942383,61.42428970336914,65.73062133789062,35.438072204589844
1,1328479,50.891387939453125,50.33133316040039,54.946441650390625,43.698238372802734
1,1328481,28.901535034179688,-27.1571102142334,46.97854232788086,-47.766719818115234
1,1328483,-9.649833679199219,-30.264131546020508,39.2858772277832,-19.10193634033203
1,1328485,-43.46176528930664,-37.07781982421875,-10.151450157165527,12.1215238571167
1,1328487,-67.98946380615234,-48.968772888183594,-26.551164627075195,-33.15990447998047
1,1328489,30.374530792236328,25.01673126220703,21.83303451538086,-58.89638137817383
1,1328491,74.05564880371094,54.80305099487305,44.73855209350586,-2.404127359390259
1,1328493,-11.635814666748047,34.68989181518555,-39.09281539916992,64.67273712158203
1,1328495,-53.725643157958984,-31.853431701660156,-63.04058074951172,-10.190081596374512
1,1328497,39.48798751831055,-16.654233932495117,-19.75084114074707,-17.688480377197266
1,1328499,40.04191207885742,43.832618713378906,-24.885717391967773,39.24563980102539
1,1328501,-38.47906494140625,17.06907844543457,2.3874387741088867,29.044349670410156
1,1328503,-23.832866668701172,-12.993968963623047,36.470985412597656,-11.811226844787598
1,1328505,-4.545181751251221,-39.4245491027832,-30.832841873168945,-54.18762969970703
1,1328507,33.01548385620117,-11.5050687789917,-45.069889068603516,32.305355072021484
1,1328509,49.21212387084961,13.959503173828125,82.28804779052734,47.879066467285156
1,1328511,-1.560819149017334,-37.394779205322266,57.35398864746094,-42.55907440185547
1,1328513,-59.834808349609375,-12.892464637756348,-18.84033203125,-48.652854919433594
1,1328515,-42.09285354614258,40.518733978271484,33.81618881225586,-34.364559173583984
1,1328517,30.16910743713379,51.47217559814453,-2.8454601764678955,49.93415451049805
1,1328519,3.3481266498565674,13.95560073852539,-32.99980545043945,55.42671585083008
1,1328521,-26.725271224975586,-80.99359130859375,2.2912163734436035,-14.771224975585938
1,1328523,43.27370071411133,-13.00644302368164,15.168122291564941,-2.958843946456909
1,1328525,8.020602226257324,61.21097946166992,-36.087242126464844,-43.667015075683594
1,1328527,-58.95621871948242,-5.489821434020996,-100.3589859008789,11.158873558044434
1,1328529,29.740924835205078,-36.01919937133789,-27.033836364746094,106.31107330322266
1,1328531,72.6809310913086,-12.362991333007812,32.76567077636719,-5.965511322021484
1,1328533,22.522037506103516,-12.271533012390137,46.515472412109375,-59.36055374145508
1,1328535,-49.22842788696289,-31.06236457824707,74.19265747070312,2.562129497528076
1,1328537,-111.968994140625,29.978303909301758,64.52315521240234,-51.112518310546875
1,1328539,-24.16055679321289,37.9249382019043,0.2897154986858368,-67.94636535644531
1,1328541,80.3740463256836,14.044713973999023,-78.65436553955078,35.73638916015625
1,1328543,45.72475814819336,38.04200744628906,-59.238746643066406,45.60674285888672
1,1328546,5.16924524307251,-9.689976692199707,16.949745178222656,26.579805374145508
1,1328547,5.440587520599365,-24.684059143066406,44.16595458984375,46.1715087890625
1,1328550,-24.877750396728516,-9.153053283691406,36.55641555786133,-37.7358283996582
1,1328551,-32.71944046020508,-13.664111137390137,8.639260292053223,-72.30926513671875
1,1328554,11.153440475463867,3.7125182151794434,-35.285438537597656,-1.5739666223526
1,1328555,16.19942283630371,-5.080080986022949,-42.64440155029297,1.9596714973449707
