Aktueller Finger,timestamp_ms,sensor_0,sensor_1,sensor_2,sensor_3
0,783530,34.45376205444336,24.445053100585938,68.03262329101562,22.259767532348633
0,783532,8.978954315185547,-31.279415130615234,59.94919204711914,13.909769058227539
0,783533,-32.77357864379883,-13.6246919631958,-65.20965576171875,15.201260566711426
0,783536,-11.953639030456543,12.896600723266602,-62.68717575073242,-15.685389518737793
0,783537,17.98447608947754,-18.81822395324707,40.26319885253906,-1.8980151414871216
0,783540,28.18375587463379,22.929113388061523,54.508113861083984,19.394290924072266
0,783541,-25.79302406311035,22.99883270263672,-12.547121047973633,2.734196901321411
0,783544,-31.476633071899414,-29.1928653717041,-1.8662397861480713,-15.496356964111328
0,783545,31.112384796142578,5.338384628295898,-1.922682285308838,-13.068949699401855
0,783548,1.9482874870300293,3.940418243408203,-64.27532196044922,0.6157044172286987
0,783549,-5.371374130249023,-6.678493022918701,15.366109848022461,0.729821503162384
0,783552,48.4769287109375,31.127384185791016,95.11184692382812,-18.373188018798828
0,783553,-16.314491271972656,-9.730744361877441,6.687579154968262,1.700737476348877
0,783556,-72.33405303955078,-47.46330642700195,-111.70962524414062,37.98820114135742
0,783557,4.546134948730469,8.989023208618164,-30.29813575744629,1.2245535850524902
0,783560,44.12998580932617,57.42129135131836,111.4955825805664,-41.57065200805664
0,783561,5.969330310821533,-8.3641357421875,6.738862037658691,7.72542142868042
0,783564,23.520118713378906,-36.88028335571289,-47.192474365234375,38.03754806518555
0,783565,25.951622009277344,10.09376049041748,21.818418502807617,36.875144958496094
0,783568,-42.97977066040039,1.5781136751174927,-56.914005279541016,-35.897029876708984
0,783569,-29.22764778137207,-8.545930862426758,-16.616161346435547,-105.45104217529297
0,783572,17.448284149169922,-25.64547348022461,100.85751342773438,26.49258804321289
0,783573,6.519406318664551,-0.8396236300468445,3.108428955078125,84.42330169677734
0,783828,7.10167121887207,43.64834976196289,-33.45721435546875,-12.713152885437012
0,783831,11.299545288085938,23.789438247680664,27.73426055908203,-26.776865005493164
0,783832,-9.764068603515625,-7.343451976776123,-26.001380920410156,12.550933837890625
0,783835,-19.575159072875977,-37.45524215698242,-32.10689926147461,13.66497802734375
0,783836,-30.89876365661621,-21.312480926513672,-52.7776985168457,-29.51526641845703
0,783839,-16.358938217163086,20.93305206298828,-25.024654388427734,-33.201908111572266
0,783840,35.741905212402344,14.460936546325684,52.49168014526367,53.517539978027344
0,783843,22.678815841674805,-3.290369987487793,-6.913221836090088,16.08936309814453
0,783844,-9.390911102294922,6.959911346435547,21.204002380371094,-53.363155364990234
0,801626,14.741683006286621,-4.3843770027160645,81.55684661865234,12.476449012756348
0,801627,9.96859359741211,-8.307380676269531,19.255874633789062,41.77823257446289
0,801630,-16.206085205078125,11.300665855407715,-71.20631408691406,-9.768156051635742
0,801631,-23.737260818481445,-46.463478088378906,-55.981475830078125,-28.402118682861328
0,801634,2.562462329864502,0.03546355664730072,45.35765075683594,7.084832668304443
0,801635,9.836440086364746,66.09990692138672,21.629737854003906,28.204875946044922
0,801638,-4.587181091308594,-4.994682312011719,-16.967039108276367,32.4262809753418
0,801639,1.3848731517791748,8.86619758605957,19.23253059387207,-40.52602767944336
0,801642,-29.038049697875977,-31.78092384338379,-32.128662109375,-120.78995513916016
0,801643,48.805198669433594,-30.026334762573242,38.58264923095703,21.076902389526367
0,801646,49.739967346191406,33.929962158203125,46.14283752441406,156.52914428710938
0,801647,-72.35368347167969,-16.04279899597168,-72.17548370361328,-0.5834716558456421
0,801650,-24.751344680786133,8.3750638961792,-4.8474202156066895,-82.55083465576172
0,801651,8.004609107971191,19.83873748779297,2.392979383468628,2.4856674671173096
0,801654,4.01801872253418,-25.472414016723633,-16.5797176361084,6.23046350479126
0,801655,34.789310455322266,-2.1654913425445557,33.852840423583984,18.766700744628906
0,801658,0.9686604738235474,30.511829376220703,14.021465301513672,-9.741299629211426
0,801659,-12.772089958190918,-26.9273681640625,-56.83161163330078,-44.01984786987305
0,801662,20.445791244506836,-26.492460250854492,-19.965065002441406,50.90645217895508
0,801663,26.105403900146484,61.090152740478516,67.97710418701172,91.46084594726562
0,801666,3.868748903274536,2.710292339324951,38.725379943847656,-66.22853088378906
0,801667,-27.730894088745117,-29.56542205810547,-17.910438537597656,-118.24384307861328
0,801670,-49.8614501953125,-5.2509846687316895,-63.98956298828125,35.27485275268555
0,801671,-13.347085952758789,5.648343086242676,-3.9232447147369385,51.74569320678711
0,801674,27.51894760131836,27.079696655273438,51.31017303466797,2.768481492996216
0,801675,17.24273681640625,-26.82015037536621,-35.802391052246094,-19.683101654052734
0,801678,7.4601640701293945,-12.927088737487793,-0.1667015701532364,-6.242353916168213
0,801679,-35.04445266723633,-6.531343460083008,22.67812728881836,22.840930938720703
0,801682,-23.495634078979492,-16.387136459350586,-66.59225463867188,-25.5413818359375
0,801683,69.33692169189453,48.677711486816406,23.97797203063965,-8.454882621765137
0,801686,25.134729385375977,7.514999866485596,102.79896545410156,43.743892669677734
0,801687,-44.34236145019531,-29.123178482055664,-32.54643630981445,3.791660785675049
0,801690,-13.062634468078613,14.118476867675781,-68.70242309570312,-4.177457332611084
0,801691,-1.4005488157272339,-10.033777236938477,32.97800064086914,10.94697380065918
0,801694,28.110488891601562,-1.6812655925750732,23.860801696777344,-44.650203704833984
0,801696,-4.506834030151367,29.137649536132812,-19.255022048950195,-4.466198921203613
0,801698,-34.60084533691406,0.5468105673789978,20.158357620239258,47.04503631591797
0,801700,23.6961727142334,-20.813322067260742,-9.808403968811035,-13.462038040161133
0,801702,-22.09038734436035,-29.601985931396484,-60.93742752075195,-16.889110565185547
0,801704,-9.095498085021973,1.5348976850509644,28.787324905395508,10.30893611907959
0,801705,74.1702880859375,48.177734375,82.49337005615234,3.2236247062683105
0,801708,-20.6077823638916,1.6668221950531006,-53.827667236328125,-24.168014526367188
0,801709,-55.556480407714844,-37.959346771240234,-82.3973388671875,-18.783935546875
0,801712,32.930423736572266,6.295517444610596,70.94210815429688,37.47446060180664
0,801713,20.605989456176758,6.22673225402832,41.1638298034668,20.25899887084961
0,801716,-10.469176292419434,-10.414640426635742,-26.360685348510742,-10.738861083984375
0,801717,-3.5998799800872803,7.336910724639893,-24.203439712524414,-6.550840377807617
0,801720,-9.618661880493164,8.468182563781738,-29.866674423217773,-0.5643162727355957
0,801721,-12.759907722473145,-0.9756079316139221,-2.545598268508911,-10.377786636352539
0,801724,23.284421920776367,-16.229938507080078,76.85882568359375,-24.4512882232666
0,801725,15.707870483398438,0.670678973197937,75.30252075195312,17.414337158203125
0,801728,-59.398494720458984,19.884323120117188,-129.37103271484375,48.67725372314453
0,801729,-1.8327690362930298,4.686592102050781,-82.77397155761719,-5.748897075653076
0,801732,64.4788818359375,-10.2330322265625,98.74270629882812,-52.708953857421875
0,801733,1.1896815299987793,-5.032287120819092,21.20018768310547,-23.057355880737305
0,801736,-21.977664947509766,4.6943440437316895,-10.089137077331543,25.678993225097656
0,801737,-13.27847957611084,3.5208780765533447,8.730896949768066,32.67225646972656
0,801740,-13.582306861877441,-5.1420488357543945,-51.65971374511719,-16.405458450317383
0,801741,-10.347723960876465,-5.443925857543945,-29.8588924407959,32.960208892822266
0,801744,28.269603729248047,-1.530991554260254,99.2242431640625,65.35279846191406
0,801745,45.611053466796875,-12.007630348205566,75.35722351074219,-67.46128845214844
0,801748,-63.69794464111328,-1.003533124923706,-147.8123779296875,-179.9759521484375
0,801749,-55.24261474609375,-6.257247447967529,-71.12926483154297,-13.860103607177734
0,801752,67.48551177978516,4.026505947113037,114.8338394165039,224.14186096191406
0,801753,32.35603332519531,29.381546020507812,31.735965728759766,51.70173645019531
0,801756,-1.4128040075302124,28.067686080932617,5.190735816955566,-99.82374572753906
0,801757,-0.15631571412086487,-1.7126051187515259,-13.44757080078125,1.546164631843567
0,801760,-21.879318237304688,-36.75251007080078,-73.71018981933594,-16.948801040649414
0,801761,-14.46710205078125,-5.710933685302734,-20.709787368774414,-36.50013732910156
0,801764,24.2900390625,17.55441665649414,90.44490814208984,42.22593307495117
0,801765,30.411781311035156,-1.4054787158966064,69.54754638671875,51.518218994140625
0,801768,-33.60114288330078,-9.655048370361328,-110.06853485107422,-19.978343963623047
0,801769,-40.59260177612305,6.842635154724121,-73.67411804199219,-3.066343307495117
0,801772,12.737412452697754,14.504711151123047,81.97953796386719,6.906631946563721
0,801773,28.335466384887695,-2.613630771636963,35.10274124145508,-45.28687286376953
0,801776,-8.417024612426758,-18.89506721496582,-5.983329772949219,-19.2146053314209
0,801777,-9.915699005126953,-13.415644645690918,14.82988166809082,19.696352005004883
0,801780,10.482007026672363,7.088613033294678,-1.610916018486023,16.668140411376953
0,801781,-20.957042694091797,8.01833724975586,-66.46109771728516,15.911816596984863
0,801784,6.585005283355713,-3.0218417644500732,-22.97270965576172,-1.006497859954834
0,801785,54.666717529296875,19.22942543029785,102.72408294677734,-34.15074920654297
0,801788,-30.73689842224121,11.275191307067871,-45.07057189941406,-20.529197692871094
0,801790,-28.58673858642578,-37.532955169677734,-87.26304626464844,-7.452925682067871
0,801792,40.28157424926758,-14.939300537109375,86.56314086914062,44.827674865722656
0,801794,16.58457374572754,20.390087127685547,62.48197937011719,57.663597106933594
0,801796,-23.44222068786621,-14.83798599243164,-25.40633201599121,-75.78607940673828
0,801798,-37.68913269042969,-0.6400102376937866,-54.15610885620117,-42.35879898071289
0,801801,-6.42156457901001,40.86863327026367,-31.790103912353516,72.91658782958984
0,801801,-10.144375801086426,-20.302532196044922,4.602683067321777,-6.353617191314697
0,801804,40.893646240234375,-23.003673553466797,56.50586700439453,-48.59895706176758
0,801805,63.78609848022461,25.627164840698242,64.4583740234375,13.975733757019043
0,801808,-53.43804931640625,0.752308189868927,-48.25418472290039,58.0989875793457
0,801809,-49.525062561035156,3.1610562801361084,-67.54391479492188,3.150355339050293
0,801812,15.991715431213379,19.965917587280273,17.4615535736084,-36.530517578125
0,801813,20.17173194885254,-22.53368377685547,35.32011032104492,9.049193382263184
0,801816,26.50282096862793,-7.229909420013428,-7.123002052307129,-18.48160743713379
0,801817,-34.173126220703125,27.46415901184082,-28.99137306213379,1.7301195859909058
0,801820,-45.93586349487305,-29.33101463317871,-8.433011054992676,41.250762939453125
0,801821,36.474308013916016,-10.876798629760742,-34.899024963378906,-31.31863784790039
0,801824,65.2897720336914,31.199499130249023,43.368621826171875,-7.7538676261901855
0,801825,10.564299583435059,-12.526400566101074,95.99400329589844,37.8953857421875
0,801828,-75.8828353881836,-22.487253189086914,-85.76883697509766,-8.15383529663086
0,801829,-23.394081115722656,6.815842151641846,-51.963069915771484,-12.74120807647705
0,801832,58.3071174621582,27.158367156982422,71.09947204589844,-40.10438537597656
0,801833,17.327545166015625,-1.3995921611785889,18.279556274414062,-30.61669158935547
0,801836,-11.258792877197266,-26.581941604614258,4.862698078155518,35.095638275146484
0,801837,-23.534074783325195,0.33927246928215027,-26.71495246887207,45.39057159423828
0,801840,-16.72344970703125,5.380939483642578,-36.65715408325195,32.96873474121094
0,801841,18.4145565032959,15.465144157409668,6.0483012199401855,-34.912445068359375
0,801844,8.118767738342285,5.2573137283325195,57.328514099121094,-107.7077865600586
0,801845,0.11776719987392426,-19.992916107177734,49.60936737060547,-16.944089889526367
0,801848,-16.9834041595459,3.0659897327423096,-97.1470947265625,106.84829711914062
0,801849,-29.196985244750977,12.474865913391113,-68.44633483886719,26.509891510009766
0,801852,27.70263671875,-10.015390396118164,77.0789794921875,35.383060455322266
0,801853,15.57718276977539,-19.592260360717773,47.44697952270508,45.546897888183594
0,801856,-7.169212341308594,-3.0802481174468994,-28.678722381591797,-129.47689819335938
0,801857,6.654987812042236,12.854175567626953,-31.962711334228516,-53.342166900634766
0,801860,-12.580401420593262,15.359040260314941,15.62014102935791,83.89957427978516
0,801861,-15.006044387817383,5.501490592956543,-16.643667221069336,10.323802947998047
0,801864,16.165203094482422,-8.662933349609375,7.503753662109375,-66.2082748413086
0,801865,52.98167037963867,-3.632195234298706,84.65730285644531,30.349870681762695
0,801868,-18.13123321533203,27.381526947021484,-42.74429702758789,98.88336944580078
0,801869,-57.49839401245117,13.577957153320312,-93.8051986694336,-58.45944595336914
0,801872,29.732398986816406,-34.838905334472656,46.08068084716797,-63.902896881103516
0,801873,31.247451782226562,-8.893733024597168,50.42804718017578,15.690400123596191
0,801876,-5.3382368087768555,1.1049498319625854,0.27178868651390076,17.227745056152344
0,801877,-27.88144874572754,-10.927114486694336,-10.037811279296875,-67.31324005126953
0,801880,-32.82383346557617,26.954147338867188,-62.566444396972656,-43.9066047668457
0,801881,0.22649787366390228,0.16416922211647034,-33.73094177246094,191.73831176757812
0,801884,36.617916107177734,3.861518621444702,94.63842010498047,56.024845123291016
0,801885,49.660919189453125,21.612987518310547,75.46305847167969,-87.0766830444336
0,801888,-57.15896224975586,-49.71192169189453,-116.14082336425781,-43.604679107666016
0,801889,-62.14534378051758,-23.54603385925293,-72.07575988769531,-53.66350173950195
0,801892,74.663818359375,30.570632934570312,107.19468688964844,31.25480079650879
0,801893,33.72494125366211,-2.532099962234497,23.076976776123047,42.18014907836914
0,801896,-40.09459686279297,12.271763801574707,-37.541831970214844,5.635125637054443
0,801897,-43.742191314697266,19.882099151611328,26.98808479309082,-42.48199462890625
0,801900,-7.056674480438232,-42.6883544921875,-27.699140548706055,-27.22269058227539
0,801901,50.705955505371094,-20.705808639526367,-61.09846878051758,40.53277587890625
0,801904,20.325517654418945,49.31642150878906,55.572025299072266,-19.226186752319336
0,801905,22.220779418945312,48.0892219543457,75.34093475341797,-46.905643463134766
0,801908,-33.448246002197266,12.783795356750488,-84.43815612792969,74.7515640258789
0,801910,-85.98114013671875,-62.66365432739258,-156.35240173339844,26.70224380493164
0,801912,46.77296447753906,-55.666866302490234,81.4510269165039,-45.79392623901367
0,801913,86.2044906616211,39.55950927734375,197.28282165527344,39.92932891845703
0,801916,-16.519229888916016,36.77920913696289,-55.954647064208984,2.71995210647583
0,801917,-31.520736694335938,-16.98309326171875,-59.47029113769531,7.549283027648926
0,801920,-8.311240196228027,-36.83218002319336,26.934934616088867,13.823298454284668
0,801921,-19.12653923034668,-10.049690246582031,-34.23054122924805,-45.01359176635742
0,801924,26.251243591308594,13.027351379394531,45.74581527709961,-21.456253051757812
0,801925,41.887699127197266,26.44132423400879,73.64508819580078,38.62312698364258
0,801928,-53.756797790527344,-7.305332183837891,-100.57373046875,-3.6803371906280518
0,801929,-49.54157257080078,-50.09854507446289,-93.00873565673828,-114.14400482177734
0,801932,34.36096954345703,25.313159942626953,87.1588363647461,33.78574752807617
0,801933,22.7092227935791,60.046630859375,42.52260208129883,134.74777221679688
0,801936,14.699410438537598,-14.105356216430664,-37.53105163574219,-19.028480529785156
0,801937,0.660447895526886,-26.954113006591797,-0.8559680581092834,-58.078800201416016
0,801940,-42.160343170166016,1.5937772989273071,-45.547401428222656,-10.206123352050781
0,801941,-11.722616195678711,4.862005233764648,-48.39165115356445,-11.545318603515625
0,801944,43.56740951538086,25.391630172729492,118.67906951904297,17.80620574951172
0,801945,39.66244888305664,-3.9258546829223633,87.98609161376953,35.3326530456543
0,801948,-32.807044982910156,-31.91750717163086,-92.55912780761719,-25.675695419311523
0,801949,-49.684967041015625,2.2290947437286377,-58.0566291809082,-14.552735328674316
0,801952,18.28462028503418,-15.357123374938965,-11.272736549377441,-39.08308410644531
0,801953,82.5177993774414,54.9942512512207,56.55375289916992,-4.4761247634887695
0,801956,-20.162174224853516,28.58918571472168,63.2298698425293,52.14896774291992
0,801957,-97.99540710449219,-85.48541259765625,-94.59169006347656,34.80094528198242
0,801960,38.89314651489258,23.09953498840332,-3.7580173015594482,32.68984603881836
0,801961,10.178168296813965,45.12110900878906,20.79826545715332,-79.34734344482422
0,801964,11.635937690734863,-32.68893051147461,14.90009593963623,9.483893394470215
0,801965,51.08515930175781,-28.510629653930664,95.74456024169922,51.104244232177734
0,801968,-110.087890625,4.561270713806152,-118.22369384765625,-36.87629699707031
0,801969,-57.98582077026367,6.120108127593994,-96.20989990234375,-11.868593215942383
0,801972,91.99085998535156,0.579831063747406,130.2474822998047,-34.575828552246094
0,801973,40.96477508544922,21.552108764648438,55.695716857910156,19.78966522216797
0,801976,-33.405662536621094,9.979140281677246,-50.878082275390625,22.909557342529297
0,801977,0.6557952761650085,-22.066844940185547,-47.94300079345703,-38.11996078491211
0,801980,32.35293197631836,-7.365949630737305,-19.739988327026367,30.549955368041992
0,801981,-21.22838592529297,9.127410888671875,-7.62839937210083,73.06021881103516
0,801984,3.4721150398254395,-7.918237686157227,40.860633850097656,-21.67667579650879
0,801985,39.71692657470703,-28.84714126586914,73.50199127197266,-41.3182258605957
0,801988,-41.56690216064453,-1.8969660997390747,-75.20294952392578,-0.7412382364273071
0,801989,-33.10380172729492,52.15744400024414,-51.76339340209961,-8.468677520751953
0,801992,44.334224700927734,23.528352737426758,74.20606231689453,24.544193267822266
0,801993,5.5985612869262695,-32.92692947387695,10.556004524230957,8.322656631469727
0,801996,-17.914485931396484,-7.895977973937988,3.86562442779541,-35.544795989990234
0,801997,-9.917136192321777,9.772287368774414,-26.94070816040039,1.2731420993804932
0,802000,-19.21945571899414,21.965883255004883,-32.60274124145508,-2.9230382442474365
0,802001,-8.283834457397461,-16.404136657714844,6.643585681915283,-66.7775650024414
0,802004,15.789923667907715,-53.94208526611328,52.96550369262695,-12.473870277404785
0,802005,30.57170295715332,35.303245544433594,49.2865104675293,92.16426086425781
0,802008,-22.468687057495117,35.39943313598633,-103.73784637451172,40.906898498535156
0,802009,-19.95401954650879,-18.101396560668945,-23.426715850830078,-56.66704559326172
0,802012,48.05949401855469,-32.02692794799805,59.667266845703125,30.77574920654297
0,802013,29.54735565185547,-4.344783782958984,-5.310998916625977,87.78060150146484
0,802016,-10.740859031677246,21.1785888671875,10.981131553649902,-61.63759994506836
0,802017,-16.54503631591797,11.984484672546387,-16.664905548095703,-149.64144897460938
0,802020,-73.4247055053711,22.225839614868164,-17.567235946655273,18.323272705078125
0,802021,-35.40453338623047,0.6606059074401855,-7.9280548095703125,80.5329360961914
0,802024,99.58507537841797,-23.32724952697754,43.67565155029297,3.5787720680236816
0,802025,47.00392150878906,-23.398242950439453,47.078609466552734,29.786453247070312
0,802028,-63.39652633666992,-17.594709396362305,-80.38005065917969,-32.66278839111328
0,802029,-39.71013641357422,-1.6671427488327026,-39.0972900390625,-12.275370597839355
0,802032,28.302820205688477,30.42993927001953,53.76873016357422,5.797090530395508
0,802033,32.403221130371094,16.977685928344727,22.081830978393555,3.0223162174224854
0,802036,6.1348958015441895,-17.40779685974121,27.077592849731445,50.98617935180664
0,802039,6.65512752532959,0.16087834537029266,16.97426986694336,-12.369868278503418
0,802039,-33.916648864746094,-13.111969947814941,-83.18352508544922,6.124100685119629
0,802042,-15.706840515136719,9.820488929748535,-59.05111312866211,8.420147895812988
0,802043,40.11436462402344,19.451107025146484,86.92407989501953,-44.22809982299805
0,802046,11.949539184570312,-17.84252166748047,37.64148712158203,3.1516013145446777
0,802047,-61.579689025878906,0.3424842655658722,-95.30208587646484,-26.7687931060791
0,802050,-22.839975357055664,40.615325927734375,7.392094135284424,-55.234588623046875
0,802051,61.10720443725586,23.56873893737793,78.48162078857422,52.41075897216797
0,802054,-20.772010803222656,-51.8335075378418,-22.377399444580078,26.983991622924805
0,802055,-15.965276718139648,-37.62856674194336,-38.570499420166016,11.478750228881836
0,802058,44.522586822509766,7.319693565368652,20.74993324279785,4.499057292938232
0,802059,-21.933940887451172,-7.858561038970947,11.95276165008545,-38.425743103027344
0,802062,-23.649093627929688,17.533222198486328,-31.614852905273438,26.86060333251953
0,802063,57.58345031738281,29.92641830444336,28.719905853271484,-39.523521423339844
0,802066,27.596969604492188,-22.544206619262695,36.75253677368164,31.859037399291992
0,802067,-68.73439025878906,5.209664821624756,-54.02151870727539,86.1335678100586
0,802070,-11.781414031982422,25.767032623291016,-17.46649742126465,-84.57827758789062
0,802071,28.70393180847168,-9.95864200592041,55.24155807495117,-64.80506896972656
0,802074,-2.7296063899993896,-8.1613130569458,5.737191200256348,43.25274658203125
0,802075,5.2944769859313965,-6.858186721801758,-37.83781814575195,44.461334228515625
0,802078,4.268861770629883,0.030284136533737183,28.780920028686523,-9.654829978942871
0,802079,-3.5726027488708496,7.4676384925842285,-16.049617767333984,-4.757631778717041
0,802082,-35.832340240478516,-7.6726813316345215,-68.74482727050781,-24.320064544677734
0,802083,29.730398178100586,-7.726993560791016,83.09219360351562,-26.664331436157227
0,802086,40.61906051635742,8.65551471710205,57.60860824584961,49.85542678833008
0,802087,-63.35946273803711,-16.540206909179688,-101.74217224121094,28.575504302978516
0,802090,1.420972228050232,13.817496299743652,-29.57628631591797,-22.1334171295166
0,802091,53.32664108276367,12.668477058410645,62.88939666748047,-11.991599082946777
0,802094,-19.350637435913086,-17.586179733276367,15.696248054504395,10.797685623168945
0,802095,-22.35110092163086,44.01547622680664,-3.302825927734375,24.85965919494629
0,802098,23.146669387817383,-20.559825897216797,24.31719207763672,-33.43897247314453
0,802099,-5.2507171630859375,-36.789947509765625,-58.73003387451172,-67.7291030883789
0,802102,-45.183101654052734,15.443892478942871,-76.46459197998047,-15.309525489807129
0,802103,15.242414474487305,4.996556758880615,91.75691986083984,125.10232543945312
0,802106,31.30773162841797,23.344942092895508,59.9334716796875,83.02518463134766
0,802107,-24.714763641357422,-15.108898162841797,-90.64851379394531,-159.92752075195312
0,802110,-0.033385567367076874,-52.88673782348633,-24.08814811706543,-95.96629333496094
0,802111,29.28305435180664,-17.335269927978516,67.07211303710938,68.61254119873047
0,802114,5.007725238800049,70.4018783569336,16.93529510498047,105.89708709716797
0,802115,-13.198163032531738,65.5421371459961,-41.06853485107422,25.22570037841797
0,802118,1.3797248601913452,-48.36735916137695,24.943256378173828,-57.198516845703125
0,802119,-15.569371223449707,-67.24870300292969,10.479846954345703,-39.48221969604492
0,802122,-44.9437255859375,4.879184722900391,-68.1638412475586,-10.028350830078125
0,802123,40.579166412353516,41.42208480834961,47.24462127685547,42.600547790527344
0,802126,73.83098602294922,27.1632022857666,23.77504539489746,35.73150634765625
0,802127,-33.98832702636719,-0.5294108986854553,-60.566139221191406,-33.23686981201172
0,802130,-70.85057067871094,-2.696000576019287,17.513748168945312,-56.057655334472656
0,802131,15.007301330566406,-34.34235382080078,8.118752479553223,37.01495361328125
0,802134,52.17155075073242,-17.289091110229492,12.388784408569336,56.30536651611328
0,802135,-16.493471145629883,33.63420867919922,25.537595748901367,-35.22010040283203
0,802138,-17.029512405395508,-4.549429893493652,-13.087808609008789,-66.16881561279297
0,802139,6.447157859802246,-6.801456451416016,-35.43313980102539,-63.150047302246094
0,802142,-21.6524600982666,-10.071194648742676,-27.881019592285156,84.93019104003906
0,802143,31.29842758178711,-9.496703147888184,54.36106491088867,115.55682373046875
0,802146,37.156463623046875,-0.6984903216362,43.588985443115234,-53.32307052612305
0,802147,-31.16448402404785,9.36899471282959,-69.8177490234375,-6.758354663848877
0,802150,-26.681665420532227,33.628475189208984,-24.74308204650879,20.157072067260742
0,802151,-20.95413589477539,-11.837305068969727,64.3515396118164,-31.365642547607422
0,802154,-0.7878935933113098,-16.558839797973633,7.7960429191589355,-74.37384033203125
0,802155,23.10308074951172,10.022475242614746,-43.840206146240234,-8.106029510498047
0,802158,33.09387969970703,-8.203641891479492,23.150869369506836,114.37171173095703
0,802159,-12.488923072814941,-4.554590225219727,3.632131338119507,-22.870466232299805
0,802162,-35.4371223449707,20.133390426635742,-61.89787292480469,-43.04756546020508
0,802163,59.353248596191406,18.38582992553711,53.59965515136719,36.38937759399414
0,802166,21.760705947875977,5.935241222381592,68.2058334350586,1.6072205305099487
0,802167,-50.60039138793945,-19.39860725402832,-85.80931854248047,5.389669895172119
0,802170,-32.348915100097656,-63.7454719543457,-57.70201110839844,-18.692733764648438
0,802171,-17.386960983276367,-18.509384155273438,49.54208755493164,-14.650636672973633
0,802174,57.9680290222168,105.17765808105469,37.11244583129883,3.4017372131347656
0,802175,36.630855560302734,44.30011749267578,14.044682502746582,56.64533996582031
0,802178,-61.182769775390625,-106.94920349121094,4.145017623901367,-42.251853942871094
0,802181,-16.167329788208008,-23.355003356933594,-14.293542861938477,-72.2071533203125
0,802182,25.27318000793457,53.965965270996094,-34.24490737915039,97.25370025634766
0,802183,26.30257797241211,-14.429815292358398,9.431753158569336,-14.170766830444336
0,802186,-16.15910530090332,40.3107795715332,44.79168701171875,-67.85733032226562
0,802187,-52.61488723754883,30.651639938354492,-29.842113494873047,38.11351776123047
0,802190,20.413270950317383,-91.9670639038086,-44.24609375,10.26438045501709
0,802191,19.447364807128906,-31.005313873291016,20.81033706665039,-9.669132232666016
0,802194,17.610107421875,33.401493072509766,6.447419166564941,43.71778106689453
0,802195,25.596210479736328,20.05794334411621,-13.876585006713867,10.446915626525879
0,802198,-3.852261543273926,42.335716247558594,41.51538848876953,17.368358612060547
0,802199,-28.757814407348633,-4.214235782623291,-16.577150344848633,-41.20958709716797
0,802202,-44.984561920166016,-39.281707763671875,-65.77621459960938,-166.9375762939453
0,802203,29.5338134765625,1.529805064201355,74.57362365722656,46.60731887817383
0,802206,8.276220321655273,2.274904489517212,48.28190231323242,162.9573516845703
0,802207,-13.332839012145996,-1.0030653476715088,-91.8783950805664,-9.537435531616211
0,802210,30.105281829833984,9.277693748474121,-13.287964820861816,-14.849753379821777
0,802211,-42.395809173583984,-25.467876434326172,46.51286697387695,-70.518310546875
0,802214,-35.23847198486328,-7.6562418937683105,15.896444320678711,-68.01542663574219
0,802215,48.22990417480469,46.976165771484375,25.126649856567383,151.30052185058594
0,802218,49.63152313232422,10.344949722290039,-35.768924713134766,29.074554443359375
0,802219,-3.1498918533325195,-25.647323608398438,-74.65580749511719,-84.8255844116211
0,802222,-28.98790740966797,0.12765321135520935,12.114182472229004,-6.051136016845703
0,802223,35.966392517089844,9.925236701965332,102.33483123779297,-14.406756401062012
0,802226,22.013248443603516,-14.019451141357422,17.621505737304688,39.784767150878906
0,802227,-53.849815368652344,31.79096794128418,-75.07083892822266,18.408199310302734
0,802230,-10.050992012023926,11.068404197692871,10.396470069885254,-13.720678329467773
0,802231,12.269375801086426,-93.06905364990234,3.8845038414001465,5.671411991119385
0,802234,-24.530174255371094,-4.053529739379883,-28.489896774291992,-81.10778045654297
0,802235,-29.674896240234375,68.526611328125,30.699853897094727,-29.199199676513672
0,802238,62.82539367675781,23.53739356994629,31.441539764404297,137.75929260253906
0,802239,64.15277099609375,19.726802825927734,-28.2081356048584,34.06049346923828
0,802242,-86.09309387207031,-61.914894104003906,-72.81060791015625,-119.5833740234375
0,802243,-38.900047302246094,-67.42453002929688,34.94106674194336,-18.322696685791016
0,802246,-5.840315818786621,42.66059112548828,72.24154663085938,70.21434020996094
0,802247,-14.3636474609375,32.14316940307617,-48.313331604003906,-18.40514373779297
0,802250,73.35336303710938,13.092766761779785,-6.202033042907715,-3.1538407802581787
0,802251,38.20578384399414,22.746719360351562,33.29029846191406,50.01349639892578
0,802254,-38.69163131713867,-23.163467407226562,-21.930538177490234,-71.82978820800781
0,802255,-9.913208961486816,-18.594518661499023,9.935552597045898,-10.064577102661133
0,802258,13.853072166442871,0.28393611311912537,7.159794807434082,40.3482780456543
0,802259,-47.29697799682617,-15.158266067504883,-48.31121063232422,-57.5414924621582
0,802262,-16.413982391357422,-18.550859451293945,-29.5799503326416,147.9000244140625
0,802263,42.393253326416016,9.033249855041504,65.34925079345703,121.09921264648438
0,802266,39.6723747253418,37.6443977355957,39.61274719238281,-260.3761291503906
0,802267,15.627785682678223,14.204065322875977,-68.87986755371094,-125.96947479248047
0,802270,-34.69725799560547,0.9679378271102905,7.323941707611084,165.3021697998047
0,802271,-27.915672302246094,-14.709814071655273,50.29948806762695,10.529436111450195
0,802274,49.035484313964844,9.250411033630371,-28.105300903320312,-31.840476989746094
0,802275,15.727243423461914,18.342029571533203,-2.889432907104492,77.55735778808594
0,802278,-68.1415786743164,-25.575347900390625,22.258363723754883,-56.78559112548828
0,802279,-54.80779266357422,-33.037315368652344,-43.46430587768555,-97.74700927734375
0,802282,-15.847992897033691,-36.35102844238281,-27.007761001586914,58.65192794799805
0,802283,57.072566986083984,43.21475601196289,76.74845123291016,25.357120513916016
0,802286,84.87462615966797,65.39007568359375,33.11567306518555,1.1813567876815796
0,802287,-1.0398036241531372,-42.7375602722168,-73.40274810791016,57.45349884033203
0,802290,-63.48099899291992,-28.2021484375,-53.259193420410156,-24.934412002563477
0,802291,12.82720947265625,16.52359390258789,23.592287063598633,3.4955947399139404
0,802294,37.08986282348633,-6.487917900085449,58.43291091918945,41.49909973144531
0,802295,-23.996822357177734,-25.544715881347656,11.603128433227539,-2.89019775390625
0,802298,-7.881767272949219,2.4111196994781494,-17.862369537353516,-9.193685531616211
0,802299,-1.593591332435608,35.07573318481445,-54.27944564819336,-56.198829650878906
0,802302,-15.985074043273926,13.933480262756348,-0.570386528968811,-41.00918960571289
0,802303,23.833566665649414,15.533356666564941,130.73049926757812,39.801910400390625
0,802306,10.610894203186035,-14.693394660949707,-11.212447166442871,20.923757553100586
0,802307,-70.02877044677734,-10.173991203308105,-127.43355560302734,-59.17293930053711
0,802310,-1.6958709955215454,23.39647674560547,5.262454509735107,-14.505899429321289
0,802311,74.13297271728516,-27.687408447265625,49.87980651855469,50.72949981689453
0,802314,-29.857158660888672,-38.39144515991211,9.479619979858398,-2.8345956802368164
0,802315,-25.108104705810547,9.336572647094727,-9.13724136352539,-34.95185089111328
0,802318,63.22129440307617,61.89524841308594,20.75058937072754,60.729000091552734
0,802319,-13.173439025878906,7.21647310256958,-45.12067794799805,64.38196563720703
0,802322,-29.31086540222168,-76.12894439697266,-61.036956787109375,-27.412519454956055
0,802324,48.518001556396484,6.284812927246094,113.28412628173828,13.257813453674316
0,802326,-19.15414810180664,58.52251052856445,16.17995834350586,-18.610742568969727
0,802328,-54.02430725097656,-10.086673736572266,-124.17654418945312,-44.443580627441406
0,802330,7.666330337524414,-40.804927825927734,27.87663459777832,-40.34064483642578
0,802332,20.17540740966797,-11.850961685180664,68.76651763916016,-7.5700201988220215
0,802335,27.171310424804688,20.58686637878418,-21.307720184326172,52.03176498413086
0,802337,-1.31100594997406,32.884117126464844,39.07065963745117,-13.00810432434082
0,802338,-32.16550827026367,13.83942985534668,26.292577743530273,10.720805168151855
0,802339,-21.696308135986328,-33.14323806762695,-106.13461303710938,24.66607666015625
0,802342,3.908770799636841,-50.503414154052734,-39.48227310180664,-8.831141471862793
0,802343,42.299705505371094,19.45748519897461,114.37735748291016,-45.64235305786133
0,802346,10.028059959411621,45.62065124511719,50.57636260986328,-26.86456298828125
0,802347,-22.233572006225586,23.239852905273438,-82.20738983154297,-16.041187286376953
0,802350,-8.914093971252441,7.829300403594971,-40.292423248291016,48.08381652832031
0,802351,10.32618522644043,-42.980430603027344,21.457021713256836,144.9395294189453
0,802354,-16.589031219482422,-49.789276123046875,0.4504152834415436,-110.1905517578125
0,802355,-43.061279296875,-1.9886317253112793,-16.608930587768555,-98.08692169189453
0,802358,66.41690063476562,55.53555679321289,28.17371368408203,166.38528442382812
0,802359,48.88362121582031,17.32390785217285,6.533923625946045,-7.656787872314453
0,802362,-71.2420654296875,-23.787433624267578,-34.255821228027344,-135.9041290283203
0,802363,-11.335113525390625,-18.732614517211914,48.44733428955078,24.592710494995117
0,802366,38.67414093017578,-12.634284973144531,47.158260345458984,71.8399887084961
0,802367,-21.924732208251953,27.168317794799805,-50.96706008911133,-21.291011810302734
0,802370,-10.270793914794922,10.743171691894531,-52.94353103637695,-25.17396354675293
0,802371,38.83658981323242,-5.128587245941162,39.637569427490234,17.140724182128906
0,802374,11.083640098571777,2.6777124404907227,35.9138298034668,-1.0830011367797852
0,802375,-19.909252166748047,1.4190936088562012,-52.551021575927734,-11.20715045928955
0,802378,-3.8310985565185547,23.451980590820312,20.164894104003906,9.111565589904785
0,802379,-9.96214771270752,2.165233850479126,8.189881324768066,19.315717697143555
0,802382,-39.56126403808594,-63.58842086791992,-80.07756805419922,-13.26270866394043
0,802383,27.573772430419922,-12.911599159240723,84.70561981201172,-21.374675750732422
0,802386,49.03374099731445,56.470947265625,68.6753158569336,25.647354125976562
0,802387,-36.802608489990234,9.612444877624512,-96.67961120605469,31.17816925048828
0,802390,-18.87778663635254,-22.687273025512695,-41.88148498535156,-18.43099021911621
0,802391,15.599876403808594,-28.80571746826172,25.681608200073242,-27.82369613647461
0,802394,8.01539134979248,16.000106811523438,53.93657302856445,6.602180480957031
0,802395,22.463844299316406,46.86381149291992,23.189714431762695,22.111021041870117
0,802398,-6.671417236328125,-18.640762329101562,-30.230178833007812,-53.38999938964844
0,802399,-42.81169891357422,-28.851625442504883,-40.73522186279297,-32.1658821105957
0,802402,6.059514045715332,21.256784439086914,-54.07749938964844,73.09777069091797
0,802403,89.9625473022461,28.58268928527832,64.47403717041016,26.120161056518555
0,802406,-5.623898029327393,-35.36929702758789,81.5850830078125,-24.16168212890625
0,802407,-118.51744079589844,-56.95830154418945,-77.22277069091797,-28.220373153686523
0,802410,-18.691162109375,34.84284591674805,-47.83316421508789,-5.4078145027160645
0,802411,50.70112228393555,67.88639831542969,53.06407928466797,36.33146286010742
0,802414,28.840526580810547,-26.23685073852539,21.074331283569336,27.854013442993164
0,802415,5.895917892456055,-46.94460678100586,-21.55835723876953,-47.32390213012695
0,802418,5.251662731170654,18.889240264892578,26.242929458618164,-13.519554138183594
0,802419,-3.869788885116577,14.963340759277344,-20.854583740234375,20.642148971557617
0,802422,-27.648426055908203,11.82083511352539,-64.11106872558594,-24.828445434570312
0,802423,13.093949317932129,7.477747917175293,84.11246490478516,1.8748862743377686
0,802426,22.251476287841797,-22.14206886291504,61.740501403808594,-1.3522014617919922
0,802427,-17.09391212463379,-22.698293685913086,-110.18741607666016,-26.42909812927246
0,802430,-28.670379638671875,0.41325175762176514,-45.11182403564453,37.72537612915039
0,802431,-24.513851165771484,36.2262077331543,72.36131286621094,81.28517150878906
0,802434,51.97624969482422,-1.6494139432907104,43.75544357299805,-64.56211853027344
0,802435,36.60817337036133,-46.965877532958984,-33.41255569458008,-67.08549499511719
0,802438,-30.71595573425293,3.391542673110962,-1.9167531728744507,99.84898376464844
0,802439,-1.1089035272598267,18.119487762451172,-10.58012866973877,-0.7911999225616455
0,802442,-59.589752197265625,-21.648216247558594,-89.41476440429688,-123.08610534667969
0,802443,12.616313934326172,20.082599639892578,98.60822296142578,54.74122619628906
0,802446,90.93853759765625,41.80388641357422,106.62076568603516,110.18299102783203
0,802447,-38.44010925292969,-19.068222045898438,-116.26776123046875,-15.45918083190918
0,802450,-37.196495056152344,-14.39073657989502,-54.44414138793945,-64.49066162109375
0,802451,29.405900955200195,-0.1262098252773285,56.54604721069336,-47.46346664428711
0,802454,20.805622100830078,0.2545442283153534,22.144569396972656,45.03785705566406
0,802455,-16.72856903076172,33.959102630615234,-7.126370429992676,41.854244232177734
0,802458,-34.14308547973633,-26.499914169311523,1.1731572151184082,-49.045345306396484
0,802459,-23.344942092895508,-50.41208267211914,-64.35060119628906,-28.36175537109375
0,802462,1.001085638999939,54.71014404296875,-37.13914108276367,32.87831115722656
0,802463,64.63954162597656,8.694554328918457,116.78630828857422,37.54234313964844
0,802466,22.4556884765625,-47.78287124633789,34.02863693237305,-33.50490188598633
0,802467,-79.91222381591797,20.662128448486328,-96.29861450195312,-62.36891174316406
0,802470,17.941200256347656,10.141456604003906,-1.458957552909851,74.07269287109375
0,802471,59.05387496948242,-3.6653196811676025,54.11336135864258,62.79239273071289
0,802474,-42.27158737182617,-3.241088390350342,-29.549272537231445,-85.9654769897461
0,802475,-4.023208141326904,5.6103339195251465,-30.056838989257812,-15.815329551696777
0,802478,14.588521003723145,13.51096248626709,60.01564407348633,34.85212707519531
0,802479,-20.74703598022461,-0.8919440507888794,-2.6968917846679688,-5.312333106994629
0,802482,-11.68767261505127,2.983386754989624,-47.82594299316406,-0.4589739143848419
0,802483,35.47382736206055,-18.626426696777344,58.57059097290039,-17.30563735961914
0,802486,34.358463287353516,-3.784343957901001,24.62053680419922,46.97582244873047
0,802487,-27.44281005859375,12.828407287597656,-63.804622650146484,-0.4156464636325836
0,802490,-11.612574577331543,11.61130142211914,-23.349336624145508,-63.13285827636719
0,802491,15.775178909301758,-10.030511856079102,27.8775634765625,47.407161712646484
0,802494,-8.241028785705566,-32.44512176513672,2.520348310470581,-21.937490463256836
0,802495,-42.236698150634766,20.963459014892578,2.2397098541259766,-90.41030883789062
0,802498,6.579684257507324,25.5924129486084,31.380687713623047,63.5231819152832
0,802499,32.99737548828125,-13.595117568969727,-43.98978042602539,79.0443115234375
0,802502,-23.041486740112305,-16.00376319885254,-29.912281036376953,-29.317188262939453
0,802503,26.142202377319336,7.453988075256348,73.1881103515625,-32.895450592041016
0,802509,-35.91741943359375,-5.892380714416504,-67.41889953613281,-10.520848274230957
0,802509,-72.67742919921875,-12.39613151550293,-95.69629669189453,10.798660278320312
0,802510,78.24600982666016,29.790884017944336,124.020751953125,19.353532791137695
0,802511,41.31492614746094,-10.500903129577637,61.50751495361328,11.81440258026123
0,802514,-5.67274808883667,-10.343864440917969,-26.567007064819336,-6.864380359649658
0,802515,-9.001686096191406,7.110966682434082,-0.6696614623069763,-20.12185287475586
0,802518,-19.064960479736328,-18.9512939453125,-33.67282485961914,-6.671126365661621
0,802519,12.70481014251709,26.033733367919922,-10.15137004852295,55.81502151489258
0,802522,-2.938173770904541,16.404184341430664,25.55251121520996,24.663393020629883
0,802523,22.60329818725586,-13.860508918762207,57.85845947265625,-78.71772003173828
0,802526,21.06743621826172,-14.185187339782715,-42.76345443725586,6.409905910491943
0,802527,-38.856773376464844,-15.793757438659668,-108.0384750366211,59.81743621826172
0,802530,-25.444805145263672,28.94318199157715,50.34706497192383,-42.12430191040039
0,802531,8.70965576171875,8.14273738861084,87.30957794189453,-31.59571075439453
0,802534,20.579715728759766,-35.738250732421875,-9.325623512268066,75.64273071289062
0,802535,13.123260498046875,1.9733830690383911,-49.9307975769043,12.493866920471191
0,802538,-26.050474166870117,9.181097030639648,-32.91488265991211,-68.18898010253906
0,802539,-10.422962188720703,26.157447814941406,28.551774978637695,-69.41100311279297
0,802542,21.912052154541016,27.952775955200195,38.443851470947266,14.372307777404785
0,802543,13.055975914001465,-27.57316780090332,39.31380844116211,109.15855407714844
0,802546,-42.80484390258789,-16.647001266479492,-38.446998596191406,-16.638816833496094
0,802547,-16.177705764770508,-2.4466373920440674,-101.9922103881836,-46.19648361206055
0,802550,60.66146469116211,-1.784729242324829,37.68423080444336,15.740141868591309
0,802551,-16.414113998413086,5.673782825469971,39.612632751464844,-38.78681564331055
0,802554,-25.714929580688477,5.554266452789307,3.644972801208496,-21.34321403503418
0,802555,36.07040786743164,10.030098915100098,43.37081527709961,82.7962875366211
0,802558,-21.829130172729492,-3.5267016887664795,-37.820743560791016,36.748756408691406
0,802559,-19.22031593322754,-13.359179496765137,-59.68388366699219,-39.650672912597656
0,802562,8.857666969299316,-30.331392288208008,-1.7301099300384521,16.634126663208008
0,802563,14.651094436645508,2.108933210372925,81.64273071289062,-26.837303161621094
0,802566,26.272808074951172,30.380706787109375,11.130295753479004,-31.350919723510742
0,802567,-31.24706268310547,-21.724271774291992,-93.13622283935547,33.90434265136719
0,802570,-20.369403839111328,8.365232467651367,15.768058776855469,-29.36087417602539
0,802571,36.36457824707031,49.57148742675781,59.15409469604492,-34.58275604248047
0,802574,12.64411449432373,-24.52967071533203,-1.959428071975708,39.888919830322266
0,802575,-15.110616683959961,-25.237045288085938,-20.60108757019043,22.019432067871094
0,802578,-8.194670677185059,20.284391403198242,2.04168701171875,-32.36671447753906
0,802579,-4.341818332672119,-13.482050895690918,-30.201086044311523,-4.925104141235352
0,802582,11.084686279296875,-1.139973521232605,-15.902974128723145,30.853759765625
0,802583,18.719697952270508,8.543776512145996,65.90682983398438,-0.6380833387374878
0,802586,-39.39666748046875,-5.566837787628174,-5.022779941558838,-0.26047420501708984
0,802587,-35.190673828125,19.10951805114746,-68.28575134277344,21.052244186401367
0,802590,26.439138412475586,-11.820070266723633,13.852459907531738,-8.749831199645996
0,802591,38.537410736083984,-26.096132278442383,43.66448974609375,-23.25193977355957
0,802594,27.803651809692383,18.708566665649414,11.392000198364258,2.5138518810272217
0,802595,-48.383148193359375,3.6622700691223145,3.768744945526123,-33.80839157104492
0,802598,-18.01156234741211,-12.572469711303711,-12.226795196533203,-3.689802885055542
0,802599,33.966224670410156,20.919055938720703,-41.9336051940918,64.16466522216797
0,802602,-31.449691772460938,-11.209141731262207,-11.11197280883789,57.25821304321289
0,802603,37.60788345336914,-15.618708610534668,87.3716812133789,-14.00633430480957
0,802606,26.84931755065918,36.86708068847656,13.517688751220703,-82.37962341308594
0,802607,-77.61711883544922,5.289097309112549,-98.54524230957031,-15.201689720153809
0,802610,2.9361886978149414,-40.63749694824219,5.711394309997559,1.367108941078186
0,802611,60.926231384277344,-14.20256519317627,57.61750030517578,10.244441032409668
0,802614,-1.1217676401138306,23.151391983032227,-14.15336799621582,42.40298080444336
0,802615,-45.59775161743164,27.340028762817383,-10.012836456298828,15.407252311706543
0,802618,-2.974120855331421,-0.013484899885952473,17.26449203491211,-19.30133819580078
0,802619,26.403987884521484,-27.046554565429688,-45.260108947753906,-70.4715347290039
0,802622,-40.47475814819336,-12.765235900878906,-6.274285793304443,-82.26423645019531
0,802623,14.365086555480957,25.875329971313477,87.40856170654297,86.59485626220703
0,802626,50.03682327270508,11.07352352142334,-26.293317794799805,146.0987548828125
0,802627,-59.11497116088867,-21.515342712402344,-85.91800689697266,-63.17909240722656
0,802630,14.1821870803833,-12.828307151794434,29.783615112304688,-68.78473663330078
0,802631,48.8671760559082,3.7715091705322266,56.59451675415039,46.87739944458008
0,802634,-35.604713439941406,27.939407348632812,-2.3829619884490967,20.97041893005371
0,802635,3.9160873889923096,-1.584229588508606,-37.128936767578125,-9.589577674865723
0,802638,12.410966873168945,-7.383360862731934,-14.368576049804688,-14.017136573791504
0,802639,-42.987648010253906,4.365384101867676,-2.0069398880004883,2.2684948444366455
0,802642,16.54654312133789,-17.135406494140625,-4.727411270141602,-12.280936241149902
0,802643,54.658321380615234,-4.566589832305908,80.72762298583984,-8.710795402526855
0,802646,-30.365398406982422,11.773744583129883,-7.946575164794922,14.048380851745605
0,802647,-35.60734939575195,18.895448684692383,-92.77188110351562,-34.004600524902344
0,802650,4.168698787689209,9.813285827636719,54.04587936401367,2.5839133262634277
0,802651,14.786330223083496,-15.22585391998291,46.13642883300781,34.5071907043457
0,802654,10.699589729309082,-20.88230323791504,-23.464279174804688,13.698599815368652
0,802655,-14.984671592712402,-10.156586647033691,-28.910491943359375,-7.733864784240723
0,802658,-3.821129083633423,21.297258377075195,-1.9712841510772705,-9.640183448791504
0,802659,8.263768196105957,9.279617309570312,-11.481379508972168,12.424869537353516
0,802662,10.950136184692383,-19.25434112548828,-12.19602108001709,-35.893470764160156
0,802663,22.43802261352539,2.1815109252929688,80.74336242675781,-9.269026756286621
0,802666,-20.352113723754883,-8.88041877746582,-28.35915184020996,49.78406524658203
0,802667,-29.78296661376953,16.812089920043945,-72.18822479248047,-6.249157905578613
0,802670,-3.620002031326294,10.862909317016602,48.12131881713867,-37.44249725341797
0,802671,8.798280715942383,-54.856658935546875,-16.082962036132812,13.667738914489746
0,802674,35.79811477661133,20.599271774291992,9.522835731506348,28.40082359313965
0,802675,-7.733090877532959,60.85865020751953,48.662506103515625,8.638752937316895
0,802678,-24.911638259887695,-35.68723678588867,-43.2863655090332,-9.795333862304688
0,802679,6.719601154327393,-14.879693984985352,-32.41328048706055,-23.16874885559082
0,802682,-0.5851354002952576,12.711599349975586,28.61346435546875,-16.80076789855957
0,802684,31.661212921142578,-11.605865478515625,61.86655044555664,-7.479111194610596
0,802686,-16.348312377929688,17.424549102783203,-40.69582748413086,34.0546989440918
0,802688,-55.206085205078125,-15.304781913757324,-101.91670989990234,28.22916030883789
0,802689,31.877727508544922,-9.767243385314941,54.4866943359375,-60.99540328979492
0,802692,35.31438446044922,19.34449005126953,72.60871887207031,-44.93947219848633
0,802694,-8.21862506866455,-17.152511596679688,-41.34330749511719,61.090354919433594
0,802695,-17.41628646850586,22.35890769958496,-2.1771457195281982,30.17251968383789
0,802698,2.4172840118408203,10.313974380493164,39.24141311645508,-13.156477928161621
0,802699,-12.473662376403809,-43.054351806640625,-59.534759521484375,5.925671577453613
0,802702,-30.782756805419922,4.504099369049072,-42.034461975097656,-37.457645416259766
0,802703,57.20002365112305,24.767250061035156,111.13915252685547,6.973128795623779
0,802706,23.55634307861328,5.57523775100708,27.250362396240234,57.87140655517578
0,802707,-47.69272994995117,-2.61796498298645,-94.90008544921875,18.302846908569336
0,802710,18.673646926879883,-2.5639164447784424,-16.998119354248047,-23.902130126953125
0,802711,9.565507888793945,-3.045091152191162,40.96198272705078,-52.047386169433594
0,802714,-16.024673461914062,-18.24663543701172,20.268735885620117,-13.87083911895752
0,802715,-5.859723091125488,2.299995183944702,-17.98193359375,15.523324012756348
0,802718,-7.584895610809326,39.04804229736328,2.530104398727417,-5.506595611572266
0,802719,-12.843097686767578,-12.248903274536133,-11.086822509765625,12.458619117736816
0,802722,3.6376991271972656,-32.50279998779297,-60.215843200683594,22.969520568847656
0,802723,72.77539825439453,15.067418098449707,66.77334594726562,7.118012428283691
0,802726,7.897091388702393,12.378252029418945,95.98909759521484,-38.7105598449707
0,802727,-72.35994720458984,-6.381466865539551,-80.0650405883789,-18.86827278137207
0,802730,-6.94619083404541,-7.667851448059082,-76.84273529052734,64.40121459960938
0,802731,11.981985092163086,4.036740779876709,36.36626052856445,-18.982088088989258
0,802734,8.304055213928223,4.170363903045654,46.24931335449219,-20.525480270385742
0,802735,12.719764709472656,-1.6179609298706055,-5.328391075134277,27.804357528686523
0,802738,-22.216310501098633,2.1005964279174805,-15.355899810791016,-20.795900344848633
0,802739,-25.16642189025879,-22.03644561767578,-25.128782272338867,3.1703433990478516
0,802742,24.03904914855957,-2.568176031112671,-3.176367998123169,8.356802940368652
0,802743,60.34939193725586,42.89468002319336,70.55958557128906,11.76275634765625
0,802746,-32.43585968017578,-0.4823143482208252,-6.334690570831299,-6.057851314544678
0,802747,-79.244140625,-20.111774444580078,-54.70122146606445,-46.195335388183594
0,802750,46.78536605834961,-2.2036964893341064,16.800518035888672,35.065364837646484
0,802751,45.679664611816406,4.329371929168701,7.531666278839111,39.87876892089844
0,802754,-13.845549583435059,9.063944816589355,-10.731291770935059,-43.05093765258789
0,802755,-10.025232315063477,-4.849326133728027,-17.40245819091797,20.516332626342773
0,802758,-14.503207206726074,-2.604464292526245,16.256629943847656,18.191307067871094
0,802759,-1.880604863166809,-23.310958862304688,-8.057483673095703,-80.99470520019531
0,802762,-27.640308380126953,-10.518112182617188,-49.91030502319336,-45.71540832519531
0,802763,12.054426193237305,28.929439544677734,89.0096664428711,41.22433090209961
0,802766,55.54521560668945,9.131250381469727,37.1193962097168,86.0931167602539
0,802767,-16.3435001373291,-7.164538860321045,-98.52989196777344,32.923431396484375
0,802770,-27.271329879760742,-13.506486892700195,5.103031635284424,-40.8080940246582
0,802771,17.94085121154785,14.205257415771484,46.543697357177734,-49.297569274902344
0,802774,12.928937911987305,15.129497528076172,-16.746292114257812,-35.95473098754883
0,802775,-15.964313507080078,-14.656600952148438,-0.5070651173591614,43.308040618896484
0,802778,-1.5392812490463257,22.087120056152344,33.74449920654297,49.102210998535156
0,802779,-9.515009880065918,-11.166425704956055,-39.61823654174805,-12.7193021774292
0,802782,-13.026782989501953,-23.661251068115234,-36.47468185424805,-18.19048500061035
0,802783,65.30259704589844,31.096403121948242,92.95150756835938,6.59928035736084
0,802786,-12.585482597351074,-24.775527954101562,-3.4912312030792236,-23.06374740600586
0,802787,-61.21746063232422,0.42751437425613403,-104.29032135009766,-4.790682315826416
0,802790,20.39813804626465,22.48455810546875,18.251108169555664,35.170257568359375
0,802791,-5.953925609588623,-44.217220306396484,45.402652740478516,-36.23883819580078
0,802794,8.739583969116211,2.648153305053711,7.6703009605407715,-22.322690963745117
0,802795,8.016175270080566,17.344175338745117,0.0946769267320633,40.63528823852539
0,802798,-10.359946250915527,-5.38213586807251,10.838523864746094,23.32354736328125
0,802799,-10.091425895690918,12.153505325317383,-24.960538864135742,1.3175206184387207
0,802802,2.7641122341156006,4.459357738494873,-47.602317810058594,15.03378677368164
0,802803,70.74385833740234,-7.164155960083008,61.43342590332031,-27.95692253112793
0,802806,-34.9429817199707,-11.946976661682129,29.358291625976562,-80.94900512695312
0,802807,-73.64498138427734,13.281744003295898,-65.41033935546875,27.757492065429688
0,802810,58.266632080078125,11.510411262512207,-7.082883358001709,76.49263000488281
0,802811,31.238483428955078,-15.230950355529785,45.17335510253906,-13.921428680419922
0,802814,-18.287073135375977,20.87586212158203,9.663309097290039,-21.42652702331543
0,802815,-13.182147026062012,-12.398693084716797,-24.346637725830078,-2.3852264881134033
0,802818,-11.976383209228516,-18.496150970458984,15.595708847045898,-10.951094627380371
0,802819,-14.513517379760742,35.49642562866211,-32.629638671875,-21.51826286315918
0,802822,2.737431764602661,-22.77570915222168,-51.569847106933594,28.97677230834961
0,802823,57.60033416748047,-19.246200561523438,86.76447296142578,34.876434326171875
0,802826,-15.165875434875488,37.67967987060547,43.01187515258789,-38.44720458984375
0,802827,-54.565460205078125,-6.035416603088379,-77.00023651123047,-3.8728675842285156
0,802830,29.0383358001709,-35.485923767089844,-0.13673222064971924,26.31556510925293
0,802831,7.1781907081604,7.536245346069336,27.20106315612793,-35.9304313659668
0,802834,-2.7104547023773193,26.176074981689453,-27.510133743286133,-18.556880950927734
0,802835,31.33148956298828,-11.203246116638184,5.612281799316406,37.00263595581055
0,802838,-20.39281463623047,-6.222929954528809,9.012728691101074,7.588013172149658
0,802839,-26.71879768371582,23.55315589904785,-44.22616195678711,-11.612916946411133
0,802842,9.244333267211914,-2.406770706176758,-9.742409706115723,60.54206085205078
0,802843,24.702320098876953,0.9437035322189331,89.90704345703125,33.409427642822266
0,802846,2.180267572402954,-11.708028793334961,30.354419708251953,-83.79145050048828
0,802847,-48.312644958496094,-39.648494720458984,-78.97858428955078,11.090605735778809
0,802850,4.465817928314209,11.09419059753418,-5.04011869430542,41.83470916748047
0,802851,31.58484649658203,39.695247650146484,41.050418853759766,-67.83467102050781
0,802854,0.05585366487503052,-4.338842868804932,-1.9377532005310059,-83.3420181274414
0,802855,-5.427684783935547,-18.57274627685547,-8.815142631530762,4.2444634437561035
0,802858,-8.252756118774414,9.306472778320312,1.8864372968673706,139.4158935546875
0,802859,-1.0553613901138306,21.144102096557617,-31.61347770690918,29.944616317749023
0,802862,-4.803133487701416,-11.591793060302734,-24.58247947692871,-70.24064636230469
0,802863,27.344263076782227,-23.70553970336914,87.72647094726562,-11.547527313232422
0,802866,14.109222412109375,28.013961791992188,6.349084377288818,-14.920479774475098
0,802867,-68.35188293457031,-8.169916152954102,-113.18307495117188,-33.43345642089844
0,802870,-9.372859954833984,-23.217010498046875,13.362602233886719,-8.12263011932373
0,802871,66.32693481445312,16.17975425720215,59.278343200683594,97.63230895996094
0,802874,16.68801498413086,-1.7646064758300781,-1.0189330577850342,33.00938034057617
0,802875,-26.36565399169922,7.42763614654541,18.530885696411133,-72.42668151855469
0,802878,-9.561012268066406,-1.1427901983261108,1.3902024030685425,-14.18655776977539
0,802879,-2.739576578140259,-6.278275489807129,-50.934879302978516,3.9921457767486572
0,802882,-12.714404106140137,-8.164837837219238,-4.580407619476318,-6.933040142059326
0,802883,38.54048538208008,-6.71328067779541,69.18594360351562,2.6535398960113525
0,802886,-13.09450626373291,25.989614486694336,-20.786457061767578,24.40015983581543
0,802887,-39.50625991821289,-3.551729679107666,-99.80158996582031,-3.354475975036621
0,802890,43.2848014831543,-5.201889991760254,26.043481826782227,-18.175113677978516
0,802893,-0.9762399196624756,22.802209854125977,66.15167236328125,27.2874813079834
0,802893,-30.19907569885254,0.6567585468292236,6.301002025604248,14.899727821350098
0,802896,18.86423683166504,-13.803579330444336,29.305570602416992,-17.737316131591797
0,802897,9.983407020568848,-16.931541442871094,-18.68107795715332,-29.172569274902344
0,802900,-36.61281967163086,-14.394725799560547,-88.96835327148438,-34.21531295776367
0,802901,-11.091032028198242,22.28496742248535,-0.7980740666389465,19.242666244506836
0,802904,37.836177825927734,13.362936019897461,82.31885528564453,39.8380126953125
0,802905,12.662385940551758,-15.133634567260742,18.452322006225586,-15.538492202758789
0,802908,-32.81428527832031,2.628814697265625,-79.10747528076172,-23.463777542114258
0,802909,-18.262453079223633,-29.612552642822266,-4.353165626525879,23.21027946472168
0,802912,50.83477020263672,16.389835357666016,93.9935531616211,55.777931213378906
0,802913,27.818256378173828,22.900083541870117,-45.63606643676758,-1.4938323497772217
0,802916,-27.651954650878906,-36.738746643066406,-41.351898193359375,-38.418434143066406
0,802917,-12.90323257446289,14.5902099609375,80.22216033935547,18.837736129760742
0,802920,-15.424270629882812,11.188902854919434,-38.637290954589844,13.862749099731445
0,802921,7.253324508666992,13.424203872680664,-57.3796272277832,-72.04228973388672
0,802924,37.106807708740234,15.949265480041504,79.87129974365234,-43.11722946166992
0,802925,-13.447661399841309,-14.608661651611328,32.789119720458984,78.29566955566406
0,802928,-50.563655853271484,-18.235782623291016,-102.2873764038086,102.94259643554688
0,802929,-0.9159294962882996,-4.823497772216797,-36.32998275756836,0.07528084516525269
0,802932,26.584692001342773,21.204309463500977,83.9200439453125,-125.92404174804688
0,802933,23.599761962890625,4.381800174713135,17.4408016204834,-30.977405548095703
0,802936,11.561125755310059,-10.21705150604248,-13.180891036987305,64.6726303100586
0,802937,-23.8617000579834,-8.347952842712402,13.64385986328125,-4.852716445922852
0,802940,-14.541895866394043,11.839908599853516,-33.095458984375,-18.874984741210938
0,802941,-8.635764122009277,-3.6326820850372314,-19.502756118774414,-12.345860481262207
0,802944,34.54300308227539,-18.465740203857422,45.43447494506836,-1.4858285188674927
0,802945,48.990699768066406,12.165000915527344,36.58664321899414,-2.1017696857452393
0,802948,-65.65159606933594,-6.618091106414795,-79.09632873535156,10.795610427856445
0,802949,-44.435577392578125,-9.20777702331543,-23.04473114013672,12.99113941192627
0,802952,52.79981994628906,12.80214786529541,78.0736083984375,-8.394001007080078
0,802953,5.372233867645264,-2.1585638523101807,-41.08448028564453,25.021329879760742
0,802956,-5.509329319000244,3.9511828422546387,4.390276908874512,21.444774627685547
0,802957,-9.791666984558105,6.635839462280273,54.0074348449707,-9.876462936401367
0,802960,-39.00617218017578,-26.28022003173828,-81.5013656616211,-51.63604736328125
0,802961,14.537679672241211,-16.137939453125,-40.79160690307617,-32.640113830566406
0,802964,32.8863410949707,41.15593719482422,72.90033721923828,59.19670104980469
0,802965,11.621070861816406,34.326900482177734,58.96647262573242,46.329017639160156
0,802968,-24.36469841003418,-23.88677978515625,-65.94197082519531,-32.13786697387695
0,802969,1.2428542375564575,-20.69405746459961,-52.74919891357422,-56.431297302246094
0,802972,40.7404670715332,-11.301042556762695,80.18083953857422,5.549276351928711
0,802973,-22.54912757873535,8.289373397827148,14.56016731262207,56.45804214477539
0,802976,-25.039011001586914,42.94546890258789,-15.498748779296875,-0.08837680518627167
0,802977,27.72479820251465,-10.450821876525879,17.950519561767578,-59.500885009765625
0,802980,-13.845243453979492,-55.21588897705078,-65.7894515991211,18.894147872924805
0,802981,-30.93439292907715,5.963386535644531,-39.746395111083984,83.86273956298828
0,802984,30.01882553100586,34.80109786987305,88.7907943725586,-13.631187438964844
0,802985,19.398616790771484,8.361438751220703,50.668785095214844,-44.4198112487793
0,802988,-8.708251953125,0.33618080615997314,-84.67269897460938,-0.22631743550300598
0,802989,-7.472607612609863,-1.5796804428100586,-35.76426315307617,-8.790655136108398
0,802992,-15.237236022949219,-22.179906845092773,59.082305908203125,-65.78131103515625
0,802993,-0.8577434420585632,-31.894184112548828,-17.889965057373047,-13.474783897399902
0,802996,12.079015731811523,36.90127182006836,-0.5707166194915771,101.40097045898438
0,802997,25.671432495117188,17.90378761291504,58.14780807495117,27.537200927734375
0,803000,-2.9614057540893555,-22.78703498840332,-46.014041900634766,8.141253471374512
0,803001,-36.59850311279297,22.866212844848633,-57.39979934692383,-18.472265243530273
0,803004,18.99245834350586,-13.60326862335205,55.94712448120117,-74.49284362792969
0,803005,3.173795700073242,-39.093563079833984,41.97257614135742,-21.140993118286133
0,803008,-56.62351989746094,22.557565689086914,-54.593685150146484,47.43619918823242
0,803009,9.491079330444336,45.93300247192383,-23.45501136779785,57.850547790527344
0,803012,66.92578125,-11.000870704650879,33.726375579833984,-23.660829544067383
0,803013,9.823444366455078,-32.46015930175781,12.791119575500488,-3.5056591033935547
0,803016,-13.699576377868652,-2.8270318508148193,-6.906805515289307,1.5062519311904907
0,803017,13.883633613586426,13.078001976013184,3.574038028717041,-43.027732849121094
0,803020,-42.22613525390625,1.9408444166183472,-29.655107498168945,-15.584736824035645
0,803021,-49.10089111328125,0.13791775703430176,-27.49304962158203,35.57463073730469
0,803024,56.36105728149414,16.256317138671875,81.53927612304688,61.109012603759766
0,803025,35.966339111328125,-11.368645668029785,45.689056396484375,-24.150968551635742
0,803028,-56.41271209716797,-9.9038667678833,-96.5718002319336,-53.49276351928711
0,803029,-9.353711128234863,2.9638547897338867,-32.58415603637695,6.635215759277344
0,803032,42.324188232421875,-27.81488800048828,65.61882019042969,-3.288555145263672
0,803033,-13.432241439819336,-6.208226680755615,-16.840333938598633,-3.056828260421753
0,803036,-23.60401153564453,38.47378158569336,-16.918651580810547,27.66497230529785
0,803037,11.563863754272461,16.376718521118164,29.688278198242188,0.35721641778945923
0,803040,6.784555912017822,-7.895381450653076,-14.434277534484863,-42.07379150390625
0,803041,7.6246724128723145,0.9748887419700623,-27.343204498291016,-8.04161262512207
0,803044,20.97677993774414,1.3145086765289307,44.984466552734375,73.95293426513672
0,803045,8.20500373840332,4.057276248931885,52.253028869628906,14.212217330932617
0,803048,-57.523475646972656,-38.0296630859375,-103.67804718017578,-54.31781005859375
0,803049,-6.3960137367248535,-18.182170867919922,-25.956403732299805,-15.562216758728027
0,803052,61.12106704711914,72.9264907836914,118.62355041503906,5.60292387008667
0,803053,-25.334632873535156,-3.490694522857666,-24.820566177368164,51.6202278137207
0,803056,-25.894851684570312,-53.23484420776367,-42.735992431640625,-2.5755457878112793
0,803057,19.927528381347656,4.142012596130371,22.079952239990234,-32.902992248535156
0,803060,-4.703673839569092,2.802434206008911,-39.25086975097656,2.625645637512207
0,803061,-1.928458571434021,7.091676712036133,6.857631683349609,-6.237113952636719
0,803064,21.95108985900879,11.87984848022461,61.861087799072266,4.6004109382629395
0,803065,10.102738380432129,20.425180435180664,-27.64516258239746,-43.87904357910156
0,803068,-48.716976165771484,-23.911420822143555,-76.22107696533203,73.96363067626953
0,803069,-5.128267765045166,-21.113969802856445,27.592561721801758,108.39155578613281
0,803072,64.85810852050781,35.73538589477539,85.83126068115234,-133.41688537597656
0,803073,-10.290066719055176,-12.819999694824219,-22.156185150146484,-123.02310180664062
0,803076,-25.10797691345215,-5.906486511230469,-25.545866012573242,59.802894592285156
0,803078,2.144200086593628,-3.027069330215454,28.5623722076416,101.42900085449219
0,803080,-32.9713020324707,-24.781330108642578,-63.44535446166992,-18.31953239440918
0,803082,11.820798873901367,22.833267211914062,-0.2508663535118103,-54.478538513183594
0,803084,47.38969039916992,10.11434268951416,88.02528381347656,6.121481895446777
0,803086,-0.10199075937271118,-4.981335639953613,-22.94794273376465,10.03348159790039
0,803088,-30.416059494018555,-7.8127546310424805,-81.42030334472656,14.957718849182129
0,803090,-29.822206497192383,-25.51620864868164,8.109015464782715,13.388028144836426
0,803091,20.454782485961914,30.38791847229004,79.99832916259766,28.88840103149414
0,803094,29.05299949645996,43.65802001953125,-25.751052856445312,-24.683807373046875
0,803095,-30.146055221557617,-18.790616989135742,-45.559608459472656,-59.06077575683594
0,803098,-13.814135551452637,-9.639167785644531,39.04994201660156,32.73063278198242
0,803099,10.19822883605957,-2.2272262573242188,-18.338191986083984,45.395599365234375
0,803102,1.0408610105514526,-12.889425277709961,1.53983473777771,-18.95199203491211
0,803103,32.807491302490234,-28.086719512939453,102.02411651611328,-6.1576666831970215
0,803106,11.50280475616455,0.4070119559764862,-54.79136657714844,3.6659555435180664
0,803107,-51.17019271850586,59.580665588378906,-128.39341735839844,-23.804744720458984
0,803110,-0.29418429732322693,-20.021848678588867,67.10723876953125,-57.7158317565918
0,803111,69.36900329589844,-6.126622676849365,81.86344909667969,12.54036808013916
0,803114,1.9091386795043945,34.69331741333008,-24.11536407470703,102.47191619873047
0,803115,-43.24003601074219,-38.07925796508789,-39.18337631225586,-40.72111892700195
0,803118,-20.19278907775879,2.281967878341675,-17.875072479248047,-56.49049758911133
0,803119,-7.646731376647949,21.2392578125,-3.102172374725342,52.31534194946289
0,803122,27.93657112121582,-26.744043350219727,39.764404296875,-9.008185386657715
0,803123,38.70276641845703,8.120173454284668,51.551719665527344,-10.697395324707031
0,803126,-37.47400665283203,7.637159824371338,-49.21189498901367,70.36695861816406
0,803127,-61.46326446533203,-31.90616798400879,-77.49015808105469,12.931501388549805
0,803130,19.567829132080078,8.104402542114258,43.74641799926758,-87.27099609375
0,803131,41.46707534790039,12.568560600280762,52.935543060302734,-59.97488784790039
0,803134,17.08523941040039,6.255542278289795,-23.08493423461914,25.46887969970703
0,803135,-3.9192421436309814,19.366256713867188,7.900644302368164,109.80097198486328
0,803138,-25.807767868041992,-15.784111022949219,-32.92244338989258,51.81291961669922
0,803139,-20.83452033996582,-14.008635520935059,-63.090721130371094,-87.28131866455078
0,803142,25.13475799560547,-1.849923014640808,106.30961608886719,-84.05243682861328
0,803143,34.83858871459961,11.121074676513672,80.84953308105469,29.52410125732422
0,803146,-21.50185775756836,10.87540340423584,-134.40811157226562,19.777103424072266
0,803147,-25.910463333129883,-16.269611358642578,-60.92765808105469,-23.003883361816406
0,803150,-10.160920143127441,-7.506162166595459,72.36561584472656,49.93170166015625
0,803151,8.8441162109375,5.9988508224487305,47.265380859375,34.31878662109375
0,803154,33.51942443847656,11.301945686340332,15.437841415405273,-60.764286041259766
0,803155,-15.183262825012207,-22.708629608154297,-38.19317626953125,-57.78620529174805
0,803158,-30.98348617553711,-19.055070877075195,-52.02494812011719,67.09829711914062
0,803159,23.418333053588867,24.3197021484375,-27.489883422851562,71.63275146484375
0,803162,46.98576354980469,21.726076126098633,67.17400360107422,-42.70878219604492
0,803163,17.806194305419922,3.9069173336029053,92.68630981445312,-25.673307418823242
0,803166,-48.84568786621094,-14.567581176757812,-89.69316101074219,20.721572875976562
0,803167,-56.025672912597656,11.279040336608887,-94.36264038085938,-22.413305282592773
0,803170,7.51580810546875,10.566448211669922,90.12722778320312,-22.09476661682129
0,803171,40.574737548828125,-9.674005508422852,61.60683822631836,29.044944763183594
0,803174,23.493507385253906,-30.95269775390625,-46.971099853515625,10.923436164855957
0,803175,1.8158900737762451,-2.806662082672119,-1.1784385442733765,-7.8439178466796875
0,803178,-11.134575843811035,55.61040115356445,-1.3253685235977173,2.4959731101989746
0,803179,-18.937862396240234,-20.861793518066406,-33.95908737182617,-11.76992130279541
0,803182,-2.9705965518951416,-30.614526748657227,31.096349716186523,-44.70265579223633
0,803183,-2.702303409576416,12.174277305603027,30.848054885864258,-6.490933418273926
0,803186,-24.291112899780273,-15.690308570861816,-56.98594284057617,76.58441162109375
0,803187,-10.514790534973145,10.467658042907715,-38.07310485839844,9.234862327575684
0,803190,48.18138122558594,17.86588478088379,21.77370834350586,-68.7997055053711
0,803191,6.823412895202637,-36.962066650390625,-5.62099027633667,-20.11060905456543
0,803194,-26.513702392578125,-16.662763595581055,29.695201873779297,32.24969482421875
0,803195,25.76502227783203,33.953617095947266,64.4222640991211,71.86096954345703
0,803198,-8.204288482666016,33.01795959472656,-28.478166580200195,55.95962905883789
0,803199,-9.512243270874023,24.19683074951172,-50.059791564941406,-43.93412399291992
0,803202,9.545085906982422,-23.627426147460938,55.06895065307617,-94.31973266601562
0,803203,10.969616889953613,-18.4207763671875,68.03701782226562,-14.660213470458984
0,803206,-3.8701796531677246,4.584992408752441,-77.84449768066406,42.95899963378906
0,803207,-23.677366256713867,-12.368929862976074,-75.52684020996094,8.146513938903809
0,803210,30.522130966186523,1.3455629348754883,47.22157669067383,-8.28583812713623
0,803211,21.34313201904297,0.1295531690120697,47.2365608215332,-26.797264099121094
0,803214,-17.383411407470703,20.01822280883789,2.4564995765686035,11.792522430419922
0,803215,-25.447338104248047,4.082272529602051,-37.3021354675293,31.858238220214844
0,803218,-35.48839569091797,-25.954198837280273,-31.061309814453125,-15.654509544372559
0,803219,3.0879855155944824,-5.163552761077881,-28.203222274780273,-2.3624560832977295
0,803222,15.16566276550293,-22.882442474365234,40.33976364135742,-13.538154602050781
0,803223,17.653409957885742,7.069765090942383,85.22830200195312,33.32074737548828
0,803226,14.160094261169434,65.16168212890625,-54.806827545166016,52.0549201965332
0,803227,-26.534698486328125,3.845940589904785,-70.77538299560547,-27.59808921813965
0,803230,3.8013617992401123,-64.82096099853516,19.719039916992188,-25.5552921295166
0,803231,11.65394401550293,-16.56610679626465,33.18547821044922,-12.943169593811035
0,803234,-9.125600814819336,28.146907806396484,45.5994987487793,-20.758054733276367
0,803235,27.482912063598633,6.3027873039245605,-3.817826986312866,14.875967979431152
0,803238,-4.5847086906433105,-1.387826919555664,-62.324771881103516,46.92519760131836
0,803239,-42.25098419189453,-10.175580024719238,-45.364234924316406,-15.141749382019043
0,803242,28.47927474975586,-15.132505416870117,56.469627380371094,-88.8603515625
0,803243,46.9113655090332,29.746448516845703,75.96700286865234,-34.52324676513672
0,803246,-43.61806869506836,31.40349578857422,-68.93602752685547,111.05561828613281
0,803247,-26.02299690246582,-27.73578453063965,-47.340206146240234,58.86989974975586
0,803250,29.675630569458008,-27.255414962768555,57.30833435058594,-73.96665954589844
0,803251,6.418149948120117,28.190967559814453,45.86914825439453,4.307368755340576
0,803254,2.795511245727539,26.543182373046875,3.6905593872070312,48.88999557495117
0,803255,0.8168381452560425,-21.71245574951172,-47.46217727661133,-16.31545639038086
0,803258,-8.150050163269043,-21.062856674194336,-42.12649917602539,-75.81851196289062
0,803259,-51.435516357421875,15.986108779907227,-9.49417495727539,0.07766113430261612
0,803262,28.533369064331055,10.647969245910645,72.23126983642578,81.89080047607422
0,803263,76.53368377685547,-19.321208953857422,54.594940185546875,-3.619450807571411
0,803266,-64.67272186279297,8.068394660949707,-130.74618530273438,-39.39127731323242
0,803267,-44.28489303588867,15.177043914794922,-38.56924819946289,-17.6155948638916
0,803270,41.55005645751953,-30.83116340637207,93.6425552368164,17.54288673400879
0,803272,11.076536178588867,-18.017993927001953,15.993425369262695,24.572444915771484
0,803274,-7.168667316436768,42.95835494995117,25.156410217285156,-29.712787628173828
0,803276,2.4925901889801025,14.849396705627441,-22.145788192749023,-26.3430233001709
0,803278,-16.804019927978516,-43.03486251831055,-65.45283508300781,74.57890319824219
0,803280,-14.84118938446045,-9.084893226623535,-15.230829238891602,41.072059631347656
0,803282,50.80500030517578,32.54056930541992,60.39908981323242,-130.5995330810547
0,803284,32.983375549316406,4.883446216583252,71.58755493164062,-15.28002643585205
0,803285,-44.50676345825195,-24.535465240478516,-59.8057746887207,70.52294921875
0,803288,-15.450204849243164,13.240278244018555,-45.588436126708984,-19.683591842651367
0,803289,14.3829927444458,-2.307924509048462,6.457406520843506,5.887790203094482
0,803292,-8.220995903015137,-13.70378589630127,3.17242431640625,-15.825366973876953
0,803293,-11.003416061401367,26.86343002319336,24.593700408935547,2.8348007202148438
0,803296,-9.05686092376709,-7.313633441925049,-10.03329086303711,56.373939514160156
0,803297,-2.407198905944824,-31.668170928955078,-18.378263473510742,1.5778424739837646
0,803300,5.19683837890625,16.51224708557129,-23.504268646240234,-50.92049789428711
0,803301,10.401389122009277,21.07831573486328,-5.012819290161133,-52.21073913574219
0,803304,19.698671340942383,-0.45351752638816833,71.91938018798828,40.2855110168457
0,803305,-2.4499008655548096,12.149364471435547,53.196006774902344,96.02826690673828
0,803308,-22.087621688842773,-19.330862045288086,-76.94972229003906,-37.500526428222656
0,803309,6.353487014770508,-27.280672073364258,-54.222991943359375,-67.26486206054688
0,803312,35.89704513549805,26.472076416015625,98.23687744140625,30.922313690185547
0,803313,-7.078808307647705,6.70769739151001,15.677160263061523,15.062997817993164
0,803316,-31.575902938842773,-5.358148097991943,-64.31214141845703,-10.462689399719238
0,803317,4.697572708129883,13.14785099029541,24.204273223876953,4.530891418457031
0,803320,-11.20211124420166,-26.60594367980957,-21.383512496948242,-14.388179779052734
0,803321,3.2295773029327393,-13.42004680633545,-31.008750915527344,3.5410876274108887
0,803324,31.665884017944336,37.290489196777344,76.35113525390625,53.94645309448242
0,803325,-14.23287296295166,0.003458196995779872,14.590001106262207,15.872142791748047
0,803328,-44.60517120361328,-28.620018005371094,-92.1200942993164,-50.616825103759766
0,803329,-1.4523152112960815,33.65935134887695,2.6164395809173584,-42.219444274902344
0,803332,54.43474578857422,-5.562950611114502,57.42588806152344,-52.549827575683594
0,803333,24.282726287841797,-43.66912078857422,3.52474308013916,46.50531768798828
1,803337,-27.22866439819336,26.399538040161133,6.437617301940918,113.86045837402344
1,803338,-15.58715534210205,12.086474418640137,-41.41477584838867,-103.4698486328125
1,803339,3.477419137954712,-0.6351497173309326,-53.7330322265625,-96.45873260498047
1,803342,6.279811382293701,5.9516730308532715,76.74718475341797,170.9067840576172
1,803343,18.022836685180664,-30.65886878967285,59.19927215576172,91.78485870361328
1,803346,-20.486955642700195,-10.4176025390625,-77.89134979248047,-157.18978881835938
1,803347,-41.2447395324707,17.7695255279541,-52.2739143371582,-50.32223892211914
1,803350,19.539573669433594,-2.62001895904541,38.540199279785156,78.70940399169922
1,803351,22.501760482788086,-6.72811222076416,26.892818450927734,12.944293022155762
1,803354,21.961713790893555,35.95017623901367,9.245311737060547,-5.928089618682861
1,803355,-3.926610231399536,-1.8821221590042114,0.07522056996822357,-29.885305404663086
1,803358,-47.761024475097656,-43.568450927734375,-28.393314361572266,-24.211002349853516
1,803359,9.64846420288086,26.550378799438477,-23.529033660888672,12.908561706542969
1,803362,33.4434814453125,21.25929069519043,48.79598617553711,4.2390007972717285
1,803363,11.454122543334961,-6.827208995819092,76.48465728759766,28.355863571166992
1,803366,-23.216766357421875,-3.4497334957122803,-95.61739349365234,4.261485576629639
1,803367,-44.048828125,-25.450477600097656,-100.48568725585938,-36.91576385498047
1,803370,11.849447250366211,-16.216100692749023,83.098876953125,16.646371841430664
1,803371,36.91281509399414,31.914655685424805,75.84614562988281,28.543357849121094
1,803374,21.639375686645508,40.855735778808594,-17.898103713989258,-17.641338348388672
1,803375,-21.965347290039062,-10.597180366516113,-27.793785095214844,10.46743106842041
1,803378,-44.38430404663086,-22.50135612487793,-31.996767044067383,18.151430130004883
1,803379,14.915787696838379,-22.055923461914062,-59.79311752319336,-47.82239532470703
1,803382,26.714746475219727,-32.458003997802734,51.27449417114258,-15.353226661682129
1,803383,13.402450561523438,36.60332489013672,102.8702163696289,30.009469985961914
1,803386,-17.323965072631836,38.94144058227539,-73.80532836914062,1.3242284059524536
1,803387,-28.813304901123047,-35.87458801269531,-58.45765686035156,7.3212080001831055
1,803390,30.403104782104492,2.5402660369873047,84.43792724609375,-3.2289278507232666
1,803391,13.455533981323242,29.68756675720215,25.61159896850586,-37.91231155395508
1,803394,-6.9502668380737305,-9.965062141418457,-15.256861686706543,-8.245160102844238
1,803395,-2.2836287021636963,-22.865299224853516,-15.273627281188965,33.43611145019531
1,803398,-12.339330673217773,-2.0758492946624756,-37.598175048828125,36.65400695800781
1,803399,0.29571816325187683,7.710317611694336,-10.50044059753418,-35.531700134277344
1,803402,37.06178283691406,2.5706331729888916,72.51531219482422,-33.4660530090332
1,803403,25.50415802001953,15.938618659973145,52.883018493652344,60.83113098144531
1,803406,-86.63928985595703,6.350395202636719,-124.00650787353516,7.678244113922119
1,803407,-34.36246871948242,-15.382101058959961,-61.692142486572266,-26.047286987304688
1,803410,47.502376556396484,-1.9681916236877441,87.52139282226562,-6.445309638977051
1,803411,17.43625259399414,1.216666579246521,35.684329986572266,-3.5101938247680664
1,803414,20.22125816345215,-20.788330078125,-16.641752243041992,29.234289169311523
1,803415,-16.014543533325195,-10.202573776245117,-22.33334732055664,17.351961135864258
1,803418,-39.12337112426758,20.415283203125,2.401921510696411,-28.205310821533203
1,803419,-30.552949905395508,16.530521392822266,-6.013803005218506,-39.1671028137207
1,803422,38.50518798828125,-12.351249694824219,25.68378257751465,29.96797752380371
1,803423,75.94310760498047,3.2036609649658203,34.683204650878906,2.1745264530181885
1,803426,-18.631250381469727,9.087264060974121,-98.08497619628906,-44.577030181884766
1,803427,-48.801204681396484,-29.198314666748047,-34.7806396484375,49.30033493041992
1,803430,25.690950393676758,10.383971214294434,97.38634490966797,4.51991081237793
1,803685,45.72200012207031,22.82721710205078,46.00225067138672,-34.88618087768555
1,803686,-10.986160278320312,-32.17890548706055,-11.79637336730957,34.55227279663086
1,803689,-35.7467041015625,6.879100799560547,-17.87714195251465,2.6481921672821045
1,803690,-39.713417053222656,17.52635955810547,-46.545536041259766,5.683915138244629
1,803693,11.643574714660645,-7.082547664642334,-0.33477339148521423,-75.0804672241211
1,803694,36.18435287475586,6.618847846984863,43.8154296875,-52.396759033203125
1,804905,-93.18877410888672,-25.9124813079834,-113.42359924316406,138.71945190429688
1,804905,-29.118635177612305,-9.807747840881348,-47.43639373779297,34.13322830200195
1,804908,114.4037857055664,37.99531555175781,128.9803466796875,-112.95916748046875
1,804909,18.81260871887207,17.39259147644043,53.53418731689453,-3.7744534015655518
1,804912,-30.791114807128906,-39.10265350341797,-4.480563640594482,81.43191528320312
1,804913,7.849821090698242,-11.445911407470703,-13.204498291015625,2.9308505058288574
1,804916,10.248863220214844,32.52852249145508,-25.164945602416992,-48.107933044433594
1,804917,-18.78355598449707,-9.632857322692871,-41.87641906738281,1.5402874946594238
1,804920,27.05909538269043,-1.037855625152588,71.75537872314453,20.672714233398438
1,804921,32.510440826416016,-1.3415095806121826,87.78137969970703,-104.61209869384766
1,804924,-97.83587646484375,-25.614845275878906,-155.65460205078125,68.8930435180664
1,804925,-15.172449111938477,16.062484741210938,-79.28517150878906,221.4896240234375
1,804928,100.4190902709961,38.06481170654297,115.7650146484375,-159.28871154785156
1,804929,-3.3185455799102783,-11.074947357177734,43.65419387817383,-126.93319702148438
1,804932,-49.543758392333984,-19.565242767333984,-20.901897430419922,106.8705825805664
1,804933,5.368453025817871,11.167247772216797,1.5175316333770752,-1.750971794128418
1,804936,-1.2786849737167358,-5.242829322814941,-22.281965255737305,-3.6532130241394043
1,804937,-33.68989944458008,-2.17053484916687,-78.21188354492188,-1.811061978340149
1,804940,9.097247123718262,-5.887299060821533,28.916589736938477,-10.30046558380127
1,804941,67.27758026123047,-15.237046241760254,107.08924865722656,19.785633087158203
1,804944,-28.724943161010742,23.023916244506836,-70.43174743652344,-55.29523849487305
1,804945,-82.03327941894531,-7.51334285736084,-77.16085052490234,-34.721004486083984
1,804948,65.77507781982422,-6.333563804626465,87.24262237548828,74.88761138916016
1,804949,70.2105712890625,37.695213317871094,34.88608932495117,27.2613582611084
1,804952,-28.960128784179688,-14.560697555541992,-18.918733596801758,-36.800724029541016
1,804953,-25.97406768798828,-5.8323869705200195,-2.6639528274536133,1.6117478609085083
1,804956,-27.07679557800293,0.7044196128845215,-33.788448333740234,13.189018249511719
1,804957,-14.268884658813477,-31.050323486328125,-28.998050689697266,-5.626044273376465
1,804960,51.0399284362793,16.465351104736328,63.40637969970703,-3.6897172927856445
1,804961,19.451047897338867,28.94367790222168,73.80317687988281,-5.610099792480469
1,804964,-40.20274353027344,-11.116868019104004,-97.16352081298828,7.336369037628174
1,804965,-8.396937370300293,-7.689596176147461,-60.91325378417969,8.5585298538208
1,804968,11.284303665161133,9.136860847473145,79.13041687011719,-2.6618998050689697
1,804969,9.482946395874023,-3.7081661224365234,-10.0845947265625,-8.030839920043945
1,804972,-0.5804441571235657,-8.758509635925293,-3.223039150238037,6.686052322387695
1,804973,-13.659903526306152,2.7879016399383545,42.65754699707031,17.732845306396484
1,804976,-10.59368896484375,3.2157936096191406,-58.148284912109375,-22.52882957458496
1,804977,-6.753479957580566,1.524385690689087,-42.55631637573242,-19.621694564819336
1,804980,39.43361282348633,-2.4788973331451416,71.99369049072266,16.936660766601562
1,804981,13.92951488494873,-19.53636360168457,59.922794342041016,32.012996673583984
1,804984,-60.1025276184082,1.0647679567337036,-95.30693054199219,-24.770658493041992
1,804985,-15.612407684326172,11.072449684143066,-54.25339889526367,-55.85185241699219
1,804988,23.867048263549805,0.7491430044174194,74.69937133789062,25.190673828125
1,804989,33.34007263183594,13.16087818145752,25.216402053833008,13.516377449035645
1,804992,6.229582786560059,-42.67239761352539,-26.062969207763672,6.387872219085693
1,804993,-22.653564453125,3.907057285308838,-6.858962059020996,42.93020248413086
1,804996,-8.444864273071289,46.83583068847656,39.08872604370117,-6.490756034851074
1,804997,8.438121795654297,-15.272668838500977,-40.97592544555664,-25.015430450439453
1,805000,33.47453308105469,36.515602111816406,-4.014474868774414,-11.431950569152832
1,805001,3.334080457687378,-19.80750274658203,65.68036651611328,-6.832461833953857
1,805004,-42.82890701293945,-33.42691421508789,-35.278160095214844,7.901285648345947
1,805005,-18.498693466186523,41.215938568115234,-54.522239685058594,35.538516998291016
1,805008,34.090476989746094,-18.98384666442871,-9.040005683898926,-18.87220001220703
1,805009,10.623438835144043,-12.941211700439453,75.754150390625,-42.83395767211914
1,805012,-12.292405128479004,16.2127742767334,27.211519241333008,47.46733474731445
1,805013,8.035208702087402,-8.924062728881836,-54.30733871459961,-7.690236568450928
1,805016,-31.051362991333008,-9.808270454406738,-14.621760368347168,-39.408809661865234
1,805017,-40.8494873046875,-4.447807788848877,-33.74113845825195,49.13813781738281
1,805020,54.06245040893555,17.712263107299805,63.533447265625,7.865169048309326
1,805021,49.12424850463867,10.568137168884277,95.22746276855469,-22.376649856567383
1,805024,-65.18167877197266,-20.88773536682129,-127.92973327636719,-74.71019744873047
1,805026,-23.278268814086914,10.657875061035156,-77.7727279663086,-3.9748594760894775
1,805027,52.3715705871582,6.017690181732178,113.49382019042969,143.16973876953125
1,805029,15.414889335632324,-19.976720809936523,22.98279571533203,-22.577579498291016
1,805032,-1.217254877090454,-9.940643310546875,-42.30078887939453,-99.63251495361328
1,805033,0.00855332612991333,-7.825355052947998,2.8461594581604004,19.029794692993164
1,805036,-40.28623580932617,18.43578338623047,-26.404146194458008,44.2677001953125
1,805037,-12.416263580322266,12.714117050170898,-38.731040954589844,14.704181671142578
1,805040,40.61799240112305,-14.595008850097656,67.21693420410156,-10.992999076843262
1,805041,1.8499703407287598,3.0889358520507812,72.2778549194336,-7.778809070587158
1,805044,-28.975994110107422,17.329927444458008,-99.88142395019531,-1.8185206651687622
1,805045,3.9290390014648438,-8.478991508483887,-54.15888977050781,-16.068540573120117
1,805048,30.669681549072266,-10.40802001953125,82.86759948730469,-0.19166433811187744
1,805049,2.3267810344696045,15.224242210388184,33.84255599975586,20.37428855895996
1,805052,-2.1053121089935303,-2.7886435985565186,-1.738673210144043,3.9642696380615234
1,805053,4.047456741333008,6.737022399902344,-3.1538310050964355,-17.115148544311523
1,805056,-21.321439743041992,10.532196998596191,-35.36933898925781,-19.49118995666504
1,805057,-27.032299041748047,-31.25951385498047,-63.82303237915039,-4.355228900909424
1,805060,25.742298126220703,11.474678993225098,57.63130569458008,64.46857452392578
1,805061,29.726160049438477,18.681812286376953,99.72533416748047,38.88946533203125
1,805064,-42.476863861083984,-33.24040985107422,-103.3131103515625,-94.49738311767578
1,805065,-4.429091930389404,-4.993129253387451,-57.529823303222656,-10.07270336151123
1,805068,19.90152359008789,14.315994262695312,73.01055145263672,62.67919921875
1,805069,-27.21209716796875,7.293398380279541,26.00654411315918,-37.519500732421875
1,805072,16.069351196289062,-0.32738277316093445,11.692995071411133,-27.193340301513672
1,805073,21.77556610107422,-14.391589164733887,-33.72053527832031,14.038357734680176
1,805076,-18.180927276611328,11.030189514160156,-45.1714973449707,4.432354927062988
1,805077,-2.1979479789733887,23.9140567779541,-14.064433097839355,24.846050262451172
1,805080,21.37917709350586,-5.485786437988281,76.35626220703125,29.385801315307617
1,805081,16.45781707763672,-12.10339069366455,84.57511901855469,-28.213478088378906
1,805084,-31.687969207763672,-16.426834106445312,-142.89144897460938,-47.75150680541992
1,805085,-33.11531448364258,-4.439351558685303,-97.53626251220703,13.22169303894043
1,805088,29.791166305541992,17.30738067626953,114.20636749267578,38.75263214111328
1,805089,24.85529136657715,10.817822456359863,57.0865592956543,4.481723308563232
1,805092,5.0022149085998535,6.8062005043029785,-17.286157608032227,-16.06827163696289
1,805093,-27.466548919677734,-13.427423477172852,-9.0026273727417,-17.058395385742188
1,805096,-33.555694580078125,-15.581925392150879,-14.140508651733398,16.44687843322754
1,805097,28.49541473388672,0.9498952627182007,-34.22600173950195,23.979225158691406
1,805100,29.839717864990234,-7.228867530822754,21.951007843017578,-31.69031524658203
1,805101,0.9525578022003174,-2.926149845123291,86.57228088378906,-25.853038787841797
1,805104,-29.033884048461914,13.948687553405762,-60.669307708740234,4.194655418395996
1,805105,-21.696367263793945,4.187142372131348,-76.73248291015625,24.95738983154297
1,805108,22.877544403076172,-10.179125785827637,62.7055549621582,3.000872850418091
1,805109,14.788087844848633,2.577606439590454,33.145938873291016,-32.40846252441406
1,805112,-0.8974677920341492,11.104449272155762,-11.009821891784668,37.97189712524414
1,805113,-2.350943088531494,-0.8278239965438843,-13.030145645141602,24.998088836669922
1,805116,-24.260265350341797,-18.395519256591797,-33.96577453613281,-47.269718170166016
1,805117,-3.7695045471191406,9.766776084899902,-29.314237594604492,-2.8059091567993164
1,805120,39.09892654418945,29.120376586914062,70.08546447753906,37.13642883300781
1,805121,23.337120056152344,-6.424459457397461,68.31269073486328,9.209358215332031
1,805124,-59.20869445800781,-26.032442092895508,-98.4808578491211,-48.98210144042969
1,805125,-37.52189254760742,-5.803942680358887,-69.3640365600586,-34.84420394897461
1,805128,68.92357635498047,14.998653411865234,89.37210845947266,76.4158935546875
1,805129,16.911314010620117,22.671283721923828,60.3651008605957,41.20244598388672
1,805132,-27.548120498657227,2.703716516494751,-27.300661087036133,-96.79621887207031
1,805133,-4.543261528015137,-38.27105712890625,-27.488136291503906,-61.491180419921875
1,805136,-28.633373260498047,5.477268218994141,-20.09260368347168,94.89717864990234
1,805137,18.30474853515625,16.391265869140625,-50.61474609375,65.8929443359375
1,805140,43.51947784423828,-20.597179412841797,44.200721740722656,-62.43234634399414
1,805141,-12.191717147827148,-0.5318952798843384,85.80027770996094,1.8866804838180542
1,805144,-38.4300537109375,5.96560525894165,-90.03282928466797,21.46415138244629
1,805145,-12.783943176269531,-1.6380919218063354,-66.776611328125,-23.59654426574707
1,805148,22.17802619934082,10.669973373413086,82.82672119140625,23.07344627380371
1,805149,22.488571166992188,3.8857061862945557,55.167945861816406,-2.159461498260498
1,805152,15.348956108093262,-21.512508392333984,-19.819175720214844,-44.124168395996094
1,805154,-3.1018943786621094,12.977851867675781,-29.181961059570312,-2.673961639404297
1,805156,-49.26588821411133,14.26414680480957,-23.815935134887695,20.80294418334961
1,805158,-17.465639114379883,0.4695107638835907,-8.670618057250977,5.911853790283203
1,805160,69.20652770996094,5.2089409828186035,77.88931274414062,27.746519088745117
1,805162,8.401847839355469,-31.904184341430664,36.20981216430664,7.239772319793701
1,805164,-60.124122619628906,2.9457435607910156,-129.23577880859375,-66.1160888671875
1,805166,-9.611788749694824,26.597253799438477,-15.799077987670898,-9.909769058227539
1,805167,28.264135360717773,-28.621938705444336,85.01993560791016,44.576194763183594
1,805171,18.114242553710938,0.1374310553073883,-9.723402976989746,10.594701766967773
1,805172,5.683340072631836,17.089126586914062,3.515556573867798,-21.93964195251465
1,805173,-3.4393136501312256,-26.51015853881836,-8.25005054473877,-22.687397003173828
1,805176,-21.32853889465332,14.647298812866211,-56.3709716796875,23.58656120300293
1,805177,-21.599924087524414,31.691640853881836,-16.87003517150879,-11.071657180786133
1,805180,23.13494873046875,-15.152374267578125,106.96770477294922,23.36029815673828
1,805181,49.63917922973633,-14.050899505615234,68.99234771728516,25.09105110168457
1,805184,-28.054725646972656,23.043582916259766,-100.12346649169922,-64.01384735107422
1,805185,-42.27231979370117,-0.766963005065918,-55.214202880859375,14.295087814331055
1,805188,33.21995544433594,-26.956085205078125,21.692739486694336,26.927627563476562
1,805189,8.849019050598145,-4.985744953155518,12.932085037231445,5.26721715927124
1,805192,-24.792673110961914,-4.927560806274414,15.300413131713867,-11.305569648742676
1,805193,9.186026573181152,17.051218032836914,5.032879829406738,-27.27018928527832
1,805196,-30.580764770507812,16.552579879760742,-20.297195434570312,27.62576675415039
1,805197,-27.611225128173828,-30.085163116455078,-45.99432373046875,-28.035240173339844
1,805200,90.57342529296875,15.26042366027832,60.48557662963867,-28.52475357055664
1,805201,31.278213500976562,25.098716735839844,44.723480224609375,50.30130386352539
1,805204,-91.83273315429688,-57.75132369995117,-132.8739013671875,54.04391860961914
1,805205,-36.605995178222656,6.484546661376953,16.426843643188477,9.645999908447266
1,805208,65.4038314819336,52.83197021484375,113.7234115600586,-76.23123931884766
1,805209,50.35084915161133,-5.090916156768799,-8.460339546203613,-19.12986946105957
1,805212,-8.297317504882812,-2.8901798725128174,-7.563729763031006,47.015838623046875
1,805213,17.41082000732422,2.447962522506714,-9.551416397094727,-1.7179911136627197
1,805216,-65.28750610351562,19.840147018432617,-57.20111083984375,-75.29773712158203
1,805217,-101.087646484375,0.033545199781656265,-18.032329559326172,-33.69332504272461
1,805220,56.4143180847168,-83.52932739257812,77.75971984863281,167.1721954345703
1,805221,69.41764831542969,-81.8033218383789,22.753955841064453,22.813501358032227
1,805224,-35.34990310668945,34.42784118652344,-76.62639617919922,-173.5363006591797
1,805225,10.210055351257324,122.8944320678711,-2.595815420150757,10.300015449523926
1,805228,54.206180572509766,31.952768325805664,65.54712677001953,162.6481170654297
1,805229,-43.64350128173828,-62.740760803222656,0.14921283721923828,-25.044689178466797
1,805232,-16.588134765625,-10.537752151489258,-18.885435104370117,-111.5827865600586
1,805233,18.079788208007812,-4.192582607269287,3.2265396118164062,50.39580535888672
1,805236,-15.901787757873535,-20.846174240112305,-40.95841598510742,7.616119861602783
1,805237,17.964771270751953,58.83488082885742,-21.74005889892578,-11.50419807434082
1,805240,5.890976905822754,70.29859161376953,98.0208511352539,-13.213468551635742
1,805241,20.49064064025879,-27.216949462890625,46.271934509277344,-80.65826416015625
1,805244,-26.658079147338867,-64.21890258789062,-134.84698486328125,46.59299087524414
1,805245,-75.6639633178711,-13.63793659210205,-52.208744049072266,85.41571807861328
1,805248,10.606199264526367,62.53703308105469,78.61792755126953,-35.105308532714844
1,805249,46.98578643798828,-6.000738143920898,3.5209996700286865,-11.157191276550293
1,805252,48.46080017089844,-154.9630126953125,8.513625144958496,23.96481704711914
1,805253,3.8620927333831787,-21.533506393432617,20.903730392456055,2.211735248565674
1,805256,-63.442203521728516,156.95651245117188,-50.2761344909668,-1.4563102722167969
1,805257,-50.05820846557617,12.725120544433594,-33.07096481323242,-26.136226654052734
1,805260,61.97505569458008,-106.45024871826172,70.9159164428711,13.136604309082031
1,805261,77.54285430908203,20.964996337890625,67.65645599365234,34.055809020996094
1,805264,-66.93273162841797,77.84769439697266,-86.0870132446289,-68.59673309326172
1,805265,-26.20098114013672,-1.4996585845947266,-36.066123962402344,-23.240259170532227
1,805268,64.38650512695312,-20.76560401916504,77.8507308959961,59.84269332885742
1,805269,-12.975764274597168,39.76768112182617,-11.52170467376709,-10.036524772644043
1,805272,-48.058712005615234,-9.264318466186523,-42.48283004760742,11.78011417388916
1,805273,-16.874027252197266,-65.32587432861328,21.1643123626709,9.955713272094727
1,805276,21.841007232666016,-6.5531535148620605,-2.4010679721832275,-50.27679443359375
1,805277,39.02293014526367,23.01822853088379,-50.51871871948242,-2.4677655696868896
1,805280,15.647218704223633,3.1395456790924072,41.01115417480469,67.73318481445312
1,805282,-9.957831382751465,-35.40559387207031,65.67646789550781,29.462724685668945
1,805284,-70.41400909423828,3.3381283283233643,-87.16920471191406,-55.08955764770508
1,805286,-29.178007125854492,19.004234313964844,-38.1201171875,-35.648433685302734
1,805288,54.011844635009766,28.174287796020508,13.589116096496582,-47.60625076293945
1,805290,15.756280899047852,33.15217971801758,28.577625274658203,18.976036071777344
1,805292,52.020469665527344,-11.82584285736084,139.0445556640625,122.77313995361328
1,805294,20.732519149780273,16.52906036376953,-12.51361083984375,-42.55158996582031
1,805295,-78.02869415283203,-5.449203014373779,-106.76695251464844,-65.3087387084961
1,805298,-56.96385955810547,-16.514562606811523,-35.83707809448242,31.748485565185547
1,805299,2.3981547355651855,21.293176651000977,35.174034118652344,-13.54139232635498
1,805302,98.25679779052734,-65.29354095458984,73.05152130126953,25.20285415649414
1,805303,17.715599060058594,-116.04032135009766,-33.89079284667969,63.59449005126953
1,805306,-116.86506652832031,25.460432052612305,-70.46438598632812,-21.207775115966797
1,805307,9.667848587036133,133.24127197265625,10.821682929992676,-93.39202117919922
1,805310,90.27811431884766,3.0295920372009277,33.277130126953125,8.148923873901367
1,805311,-4.711341857910156,-58.412471771240234,1.3040242195129395,135.72682189941406
1,805314,-20.600706100463867,70.60896301269531,14.816876411437988,-29.246517181396484
1,805315,22.377254486083984,46.21943664550781,-26.906471252441406,-156.9764862060547
1,805318,-45.69987106323242,22.542804718017578,-57.552608489990234,-25.901540756225586
1,805319,-41.26679229736328,44.830322265625,77.78414916992188,71.25887298583984
1,805322,104.7394790649414,-104.98954772949219,42.76277542114258,61.467769622802734
1,805323,48.44092559814453,-159.3269500732422,-81.1934585571289,-7.888932704925537
1,805328,-140.5199432373047,1.0910930633544922,-9.37496280670166,3.895845651626587
1,805328,-72.63570404052734,98.1511001586914,35.47496032714844,10.229913711547852
1,805330,79.22985076904297,6.0157999992370605,28.402942657470703,-6.427122592926025
1,805331,21.107778549194336,-36.17654800415039,-11.317761421203613,-15.158419609069824
1,805334,22.784931182861328,-13.742545127868652,-31.153545379638672,-25.346384048461914
1,805335,38.89676284790039,5.198587417602539,0.2821350693702698,35.36406707763672
1,805338,-86.74027252197266,58.796627044677734,-7.058958053588867,25.441089630126953
1,805339,-38.03511428833008,66.97518157958984,26.66806983947754,-59.168968200683594
1,805342,114.81571960449219,-3.2760422229766846,57.46973419189453,-1.7594479322433472
1,805343,48.091285705566406,-69.59080505371094,-9.69099235534668,61.51239776611328
1,805346,-96.2711181640625,-48.05672073364258,-75.70726013183594,-22.415740966796875
1,805347,-51.906532287597656,21.552404403686523,-13.006925582885742,-37.82068634033203
1,805350,41.43779754638672,59.61634063720703,41.5556755065918,-2.1891326904296875
1,805351,25.343658447265625,2.307687759399414,-4.762879848480225,-12.902414321899414
1,805354,19.251583099365234,-52.07874298095703,16.1615047454834,44.05315017700195
1,805355,9.007284164428711,-47.285194396972656,-23.463905334472656,58.356895446777344
1,805358,-50.341609954833984,-35.949466705322266,-100.23081970214844,-43.06106185913086
1,805359,-4.097072601318359,57.47410202026367,58.70506286621094,-47.091766357421875
1,805362,72.6444320678711,125.84495544433594,132.6612548828125,-5.166835784912109
1,805363,6.889649868011475,7.62236213684082,-46.94737243652344,-4.592158317565918
1,805366,-36.22883224487305,-89.87071990966797,-84.11437225341797,40.63601303100586
1,805367,-15.259987831115723,-89.749267578125,20.93522834777832,34.65764236450195
1,805370,-42.870487213134766,-30.72834587097168,35.03126525878906,-19.714385986328125
1,805371,-45.19270324707031,37.260963439941406,4.043244361877441,3.109072685241699
1,805374,-10.632939338684082,93.16766357421875,2.6052260398864746,-15.217873573303223
1,805375,41.80958938598633,83.24560546875,-18.17759132385254,-24.584718704223633
1,805378,59.65284729003906,-99.75300598144531,-48.40413284301758,-13.857940673828125
1,805379,35.742034912109375,-110.8882827758789,20.818586349487305,6.239486217498779
1,805382,9.748419761657715,128.50576782226562,73.50835418701172,30.27422332763672
1,805383,-48.164920806884766,95.9225082397461,-16.53295135498047,16.44786262512207
1,805386,-51.903526306152344,-37.22821044921875,-57.65841293334961,-10.129657745361328
1,805387,4.15205717086792,76.48987579345703,-2.95465350151062,-58.637081146240234
1,805390,36.93537139892578,-37.05397415161133,41.59134292602539,25.609386444091797
1,805391,74.87198638916016,-177.31842041015625,68.34600830078125,76.51630401611328
1,805394,39.96113967895508,-73.0484390258789,-21.896467208862305,-77.12138366699219
1,805395,-70.52327728271484,82.58251190185547,-103.4579086303711,-66.22776794433594
1,805398,-123.14492797851562,227.0120391845703,-10.405028343200684,112.94770812988281
1,805399,-37.243560791015625,-2.786943197250366,73.19953918457031,39.620906829833984
1,805402,51.72756576538086,-196.16470336914062,20.393306732177734,-78.17520904541016
1,805403,44.55423355102539,-70.52815246582031,-54.64624786376953,24.270092010498047
1,805406,83.00137329101562,-84.13578033447266,-29.79231834411621,39.67595291137695
1,805407,-6.161550998687744,-80.91070556640625,16.353923797607422,-87.8508071899414
1,805410,-93.40800476074219,247.68951416015625,43.45883560180664,2.9059178829193115
1,805411,-11.899292945861816,271.6160888671875,6.412205696105957,74.404541015625
1,805414,53.541988372802734,-147.58517456054688,-7.310497283935547,-37.04764175415039
1,805415,59.57557678222656,-221.01573181152344,-7.709953308105469,-33.667144775390625
1,805418,-30.9111385345459,8.831820487976074,-59.308197021484375,13.078699111938477
1,805419,-67.36869812011719,185.1427001953125,38.02252960205078,-24.69365882873535
1,805422,20.435380935668945,-9.696614265441895,75.94035339355469,50.25883483886719
1,805423,56.03432083129883,-207.35633850097656,-25.28066635131836,96.11892700195312
1,805426,-16.852739334106445,61.59557342529297,-42.883331298828125,-117.61028289794922
1,805427,-22.152523040771484,202.4738006591797,9.309552192687988,-107.17684936523438
1,805430,-9.250615119934082,-0.922387957572937,12.02395248413086,86.3805160522461
1,805431,-21.54896354675293,-76.75501251220703,-26.74519157409668,75.11918640136719
1,805434,22.41804313659668,-113.96923828125,28.090837478637695,0.1806022822856903
1,805435,10.475434303283691,-81.84330749511719,7.3684916496276855,-21.73101234436035
1,805438,-29.56859588623047,146.34710693359375,-66.06277465820312,-5.08746337890625
1,805439,2.872673511505127,64.54847717285156,49.66178512573242,16.21903419494629
1,805442,63.67960739135742,-66.40772247314453,67.37892150878906,-30.990859985351562
1,805443,-18.940296173095703,-7.150306701660156,-54.050804138183594,-43.194515228271484
1,805446,-24.97726058959961,68.93150329589844,-39.39548110961914,17.31393051147461
1,805447,60.76189041137695,40.166839599609375,-9.556161880493164,-19.60750961303711
1,805450,-11.967950820922852,-101.7262954711914,16.166231155395508,8.210728645324707
1,805451,-94.91818237304688,-70.12620544433594,15.225627899169922,113.29244995117188
1,805454,-61.39360046386719,-89.29521942138672,-4.346534729003906,5.887181282043457
1,805455,38.00776290893555,7.351722717285156,14.482454299926758,-92.8729019165039
1,805458,9.108635902404785,206.86883544921875,-37.783512115478516,-2.8514585494995117
1,805459,39.74333953857422,54.56012725830078,10.642927169799805,40.64970016479492
1,805462,93.10214233398438,-87.56463623046875,69.63873291015625,-22.020347595214844
1,805463,-48.083351135253906,-10.43529224395752,-26.558013916015625,-51.86231231689453
1,805466,-16.101198196411133,122.93741607666016,-53.029178619384766,-5.3100433349609375
1,805467,89.2131118774414,130.1850128173828,14.114819526672363,16.153539657592773
1,805470,-91.03899383544922,-229.63137817382812,9.202285766601562,31.51607322692871
1,805471,-53.595882415771484,-238.59019470214844,-14.247358322143555,15.982690811157227
1,805474,195.6644744873047,113.10051727294922,42.60396194458008,24.252246856689453
1,805475,-28.674365997314453,-104.85578155517578,-6.631652355194092,13.290813446044922
1,805478,-235.34909057617188,13.983606338500977,-56.6474494934082,-71.7900161743164
1,805479,-10.049942016601562,280.0884704589844,57.59968566894531,-4.154811382293701
1,805482,98.09841918945312,-38.261959075927734,37.219810485839844,28.151491165161133
1,805483,23.76146125793457,-71.33027648925781,-60.58012390136719,-13.594762802124023
1,805486,-23.299917221069336,35.54754638671875,-30.689828872680664,2.4352197647094727
1,805487,4.357780456542969,21.06745147705078,44.003997802734375,-20.75109100341797
1,805490,42.46728515625,53.16397476196289,42.746055603027344,12.489718437194824
1,805491,2.513082504272461,-8.218764305114746,-42.1885986328125,33.033790588378906
1,805494,29.691871643066406,-124.82664489746094,-12.324827194213867,4.77777099609375
1,805497,-11.67579174041748,-51.715667724609375,17.04861068725586,24.02048110961914
1,805497,-76.64339447021484,91.11064910888672,-55.178043365478516,-3.7538974285125732
1,805500,55.98767852783203,0.3427632749080658,30.325458526611328,-35.00777053833008
1,805501,67.83296966552734,-94.7788314819336,86.09284210205078,-35.22972106933594
1,805504,-116.27715301513672,-9.413214683532715,-92.66253662109375,15.948249816894531
1,805505,-127.69938659667969,92.7445068359375,-73.39531707763672,60.16624450683594
1,805508,89.73978424072266,15.528157234191895,93.14111328125,-34.36447525024414
1,805509,113.83027648925781,12.690874099731445,53.63499450683594,-41.27487564086914
1,805512,-43.451297760009766,192.2987823486328,-28.293521881103516,13.438084602355957
1,805513,9.222537994384766,4.342855930328369,-48.384063720703125,-4.165063381195068
1,805516,132.83970642089844,-386.340087890625,-31.730854034423828,3.7990756034851074
1,805517,23.159679412841797,-140.50933837890625,16.871097564697266,10.676593780517578
1,805520,-188.98313903808594,340.0865783691406,66.93276977539062,-39.194271087646484
1,805521,-110.84138488769531,135.75253295898438,28.435714721679688,-0.5146566033363342
1,805524,63.214813232421875,-160.3363800048828,-70.69509887695312,101.73712158203125
1,805525,47.00323486328125,-51.96843338012695,-33.55005645751953,5.9948601722717285
1,805528,9.851987838745117,-29.021821975708008,53.04328536987305,-48.38370132446289
1,805529,9.80402660369873,4.57928466796875,35.45632553100586,10.304908752441406
1,805532,11.77208423614502,134.19822692871094,-14.517488479614258,-23.544677734375
1,805533,-29.084379196166992,-2.3088645935058594,-27.739023208618164,-41.79761505126953
1,805536,-39.140621185302734,-44.11316680908203,-26.5916805267334,-24.339447021484375
1,805537,36.688880920410156,19.662799835205078,-22.48797607421875,40.321258544921875
1,805540,121.35643005371094,-83.45895385742188,45.64284133911133,111.7601318359375
1,805541,16.558547973632812,-20.714250564575195,53.84300231933594,-46.42052459716797
1,805544,-114.75233459472656,33.88032913208008,-74.61167907714844,-94.58462524414062
1,805545,-5.651455879211426,-2.5924251079559326,-25.51993751525879,78.5057601928711
1,805548,12.2825345993042,43.743350982666016,77.77574920654297,-25.495159149169922
1,805549,-40.31003189086914,29.568111419677734,-7.3912553787231445,-60.69264602661133
1,805552,14.813974380493164,-13.774561882019043,-16.486652374267578,80.6538314819336
1,805553,0.8754302859306335,15.18783950805664,15.498902320861816,12.778463363647461
1,805556,-32.364601135253906,38.8045654296875,-24.865154266357422,-50.94607162475586
1,805557,25.485092163085938,-6.278934955596924,-21.5932674407959,-28.228187561035156
1,805560,27.963422775268555,23.9526309967041,72.50452423095703,39.89634704589844
1,805561,-22.604360580444336,30.761734008789062,36.75347137451172,53.7979850769043
1,805564,-6.491293907165527,-171.26475524902344,-133.22132873535156,-36.70159149169922
1,805565,81.90370178222656,-184.0250701904297,-40.45789337158203,36.60746383666992
1,805568,18.730436325073242,52.99817657470703,69.21858978271484,7.1042280197143555
1,805569,-117.28227996826172,50.56135940551758,6.419201374053955,-87.33960723876953
1,805572,-2.7725541591644287,26.95415496826172,51.887939453125,22.296363830566406
1,805573,34.341941833496094,109.45320129394531,22.41986846923828,6.723081111907959
1,805576,-18.792682647705078,40.979610443115234,-90.89988708496094,-4.708218097686768
1,805577,10.18035888671875,46.9565315246582,-24.14223861694336,41.610443115234375
1,805580,34.36540603637695,50.13477325439453,87.88636016845703,-21.124143600463867
1,805581,45.87345504760742,-86.81831359863281,18.094369888305664,-61.694793701171875
1,805584,29.50896453857422,-133.59010314941406,-91.96837615966797,-58.42072296142578
1,805585,-69.73616790771484,26.281484603881836,-4.577846527099609,52.973838806152344
1,805588,-100.15792083740234,80.9048080444336,96.81207275390625,141.78424072265625
1,805589,44.85980224609375,-138.70306396484375,-0.25290581583976746,15.019987106323242
1,805592,51.33132553100586,9.88546371459961,-40.0572624206543,-99.40055084228516
1,805593,-77.78174591064453,236.246337890625,2.04687237739563,-69.42213439941406
1,805596,-39.36418533325195,-74.28693389892578,-64.6723403930664,59.43434524536133
1,805597,117.8005599975586,-112.06512451171875,4.59384298324585,99.04810333251953
1,805600,104.20502471923828,155.39630126953125,101.02324676513672,-31.26993179321289
1,805601,-1.5329543352127075,-51.274471282958984,-14.473001480102539,-80.6502685546875
1,805604,-90.11029815673828,-220.9916229248047,-62.97126388549805,17.130109786987305
1,805605,-86.34589385986328,110.85071563720703,21.232563018798828,21.116104125976562
1,805608,-76.82109832763672,208.66104125976562,19.59765625,-27.3782901763916
1,805609,-11.611084938049316,27.279077529907227,-35.76320266723633,41.73647689819336
1,805612,189.3046875,-8.105390548706055,-0.6946085095405579,-54.288394927978516
1,805613,74.14449310302734,-59.43205642700195,24.862438201904297,-152.49624633789062
1,805616,-5.001461029052734,-447.4301452636719,-36.11558151245117,158.60321044921875
1,805617,-8.255497932434082,-340.2062072753906,-40.09407424926758,226.80291748046875
1,805620,-164.18112182617188,531.9515380859375,73.49063110351562,-166.58204650878906
1,805621,-9.216788291931152,432.692626953125,85.16458129882812,-127.43526458740234
1,805624,92.12841796875,-179.86517333984375,-73.16010284423828,56.75572967529297
1,805625,12.301634788513184,-109.28033447265625,-73.08451080322266,-16.511476516723633
1,805628,-33.86904525756836,60.18572998046875,79.85975646972656,45.84306335449219
1,805629,3.208345890045166,86.62507629394531,58.76727294921875,3.7354395389556885
1,805632,-36.852325439453125,-32.435768127441406,-16.309324264526367,-46.843650817871094
1,805633,-102.00173950195312,-164.15516662597656,-42.91304016113281,43.19155502319336
1,805636,67.91431427001953,-192.36231994628906,-63.68799591064453,65.7119369506836
1,805637,-14.884943008422852,17.080703735351562,-18.01350975036621,-33.48366928100586
1,805640,-16.074880599975586,353.7234191894531,59.40023422241211,-85.5658950805664
1,805641,135.6939239501953,144.82676696777344,56.31117248535156,59.950225830078125
1,805644,-22.497756958007812,-236.02626037597656,-77.5570297241211,45.74911880493164
1,805645,-29.781490325927734,-200.4336700439453,-52.80828857421875,-56.59076690673828
1,805648,116.90306091308594,-33.43616485595703,69.54080963134766,-10.016314506530762
1,805649,9.923497200012207,81.2242202758789,22.413150787353516,20.18532371520996
1,805652,16.779878616333008,178.2383575439453,12.710509300231934,-14.660399436950684
1,805653,76.5803451538086,116.60269927978516,39.31131362915039,18.264545440673828
1,805656,-237.55101013183594,-81.32942199707031,-70.25614166259766,-34.68850326538086
1,805657,-179.51417541503906,-104.94049072265625,-74.93354797363281,-46.221492767333984
1,805660,188.53463745117188,-21.189172744750977,92.37220001220703,87.41136169433594
1,805661,72.33269500732422,-7.50250768661499,72.54401397705078,-41.08662796020508
1,805664,-123.6808853149414,-1.8581352233886719,-102.416259765625,24.10866355895996
1,805665,-27.896160125732422,-9.855111122131348,-83.23422241210938,138.43270874023438
1,805668,103.93589782714844,54.28993606567383,86.61714172363281,-126.79867553710938
1,805669,65.50767517089844,45.59733963012695,63.822776794433594,-107.70809936523438
1,805672,-22.36008644104004,-86.36872100830078,-33.50716781616211,35.54545593261719
1,805673,-55.2808837890625,-23.916723251342773,-2.840015411376953,62.24387741088867
1,805676,-28.23848533630371,52.164215087890625,-65.5403060913086,55.403663635253906
1,805677,28.782716751098633,-88.5361328125,-64.71565246582031,1.4659146070480347
1,805682,-53.459354400634766,-25.49949073791504,104.28963470458984,27.320100784301758
1,805682,-25.45455551147461,133.4286346435547,97.34661102294922,-17.793088912963867
1,805683,92.2516098022461,-33.369964599609375,-76.16102600097656,-83.50438690185547
1,805686,4.8030476570129395,-26.07892608642578,-59.2201042175293,-48.36005401611328
1,805687,-1.0464764833450317,107.59760284423828,69.63639068603516,0.7250961065292358
1,805690,18.990203857421875,56.85533905029297,15.301225662231445,17.018413543701172
1,805691,-51.42621612548828,40.18869400024414,2.216538429260254,59.51793670654297
1,805694,-10.539885520935059,-63.11502456665039,7.043440341949463,-6.567422866821289
1,805695,83.06541442871094,-215.69528198242188,-92.65097045898438,-43.850643157958984
1,805698,112.02987670898438,-108.92182922363281,0.4489530026912689,29.255189895629883
1,805699,25.572221755981445,110.47545623779297,134.08621215820312,-18.446977615356445
1,805702,-178.57484436035156,104.92867279052734,-29.53790283203125,-12.8475980758667
1,805703,-184.99159240722656,-38.44050979614258,-120.43321990966797,23.273427963256836
1,805706,85.9959945678711,-66.51463317871094,25.06781005859375,36.46260452270508
1,805707,89.8105239868164,55.69593811035156,17.49237823486328,57.40948486328125
1,805710,-47.585960388183594,138.14073181152344,-18.78084373474121,-26.769121170043945
1,805711,15.569149017333984,59.75997543334961,46.98407745361328,-48.3731689453125
1,805714,44.944725036621094,-44.75685119628906,44.62147903442383,-21.47235870361328
1,805715,-28.69329261779785,-1.62326979637146,-61.193973541259766,-32.66748046875
1,805718,43.3711051940918,-67.10873413085938,-44.77499008178711,48.82316207885742
1,805719,37.16805648803711,-34.58458709716797,131.36663818359375,23.93518829345703
1,805722,-144.34861755371094,255.95822143554688,9.174595832824707,-90.93379211425781
1,805723,-41.67100524902344,-38.255008697509766,-177.87380981445312,1.2333039045333862
1,805726,175.78482055664062,-352.6309814453125,17.371315002441406,83.89551544189453
1,805727,60.63047409057617,-65.06986236572266,92.7793960571289,42.704036712646484
1,805730,-69.83883666992188,-37.931270599365234,-34.23423767089844,45.810142517089844
1,805731,-38.9609375,-7.866078853607178,14.302542686462402,-15.529304504394531
1,805734,-78.81915283203125,303.2251892089844,44.99611282348633,-153.35989379882812
1,805735,14.559273719787598,143.8728790283203,-24.735416412353516,-44.35462188720703
1,805738,13.451058387756348,-188.7982940673828,-44.97643280029297,181.96383666992188
1,805739,12.003096580505371,-51.25893020629883,42.32632064819336,7.151693820953369
1,805742,103.43419647216797,134.0142059326172,37.05800247192383,-137.1434326171875
1,805743,-2.0287668704986572,-33.401466369628906,-88.0272216796875,18.928903579711914
1,805746,-30.935302734375,-97.22406005859375,-19.72162628173828,46.26400375366211
1,805747,28.780065536499023,18.715309143066406,65.52247619628906,33.6551399230957
1,805750,-34.0467414855957,-10.642990112304688,-10.61061954498291,-61.1221923828125
1,805751,-93.35162353515625,17.42536163330078,-20.249696731567383,-116.14848327636719
1,805754,56.94893264770508,63.794612884521484,27.712038040161133,84.38334655761719
1,805755,61.10744857788086,15.312255859375,-18.53913116455078,136.9674072265625
1,805758,-123.63906860351562,34.317138671875,-22.758577346801758,-45.9853630065918
1,805759,-20.171478271484375,4.676562786102295,50.527870178222656,-113.73588562011719
1,805762,197.69290161132812,-192.1417999267578,9.982377052307129,80.8182144165039
1,805763,54.933021545410156,-244.9156951904297,-26.192075729370117,120.23552703857422
1,805766,-207.3990478515625,141.03453063964844,-16.136432647705078,-108.83198547363281
1,805767,-91.45185852050781,310.2716979980469,-4.806270599365234,-75.03101348876953
1,805770,90.78932189941406,-25.170644760131836,45.84658432006836,26.935348510742188
1,805771,45.1907844543457,-86.19879913330078,13.376861572265625,37.61079025268555
1,805774,-15.05716323852539,58.77305221557617,-13.701383590698242,44.649452209472656
1,805775,2.8092219829559326,63.73919677734375,-10.937895774841309,-46.43595886230469
1,805778,33.8170166015625,-45.50888442993164,-45.961204528808594,-49.818031311035156
1,805779,81.28620147705078,-218.2362823486328,37.24520492553711,24.518352508544922
1,805782,-61.76447677612305,28.90900993347168,47.324188232421875,35.52638626098633
1,805783,-196.7482147216797,291.13494873046875,-100.07949829101562,-50.89351272583008
1,805786,-3.685791492462158,-159.72564697265625,-43.33409118652344,1.8607532978057861
1,805787,132.5147705078125,-245.99368286132812,89.66082763671875,75.1863021850586
1,805790,95.63024139404297,149.85922241210938,31.914648056030273,-14.447410583496094
1,805791,-15.005005836486816,71.37591552734375,-27.84316635131836,-19.623838424682617
1,805794,-49.40085220336914,6.160008907318115,19.05657958984375,-2.215055465698242
1,805795,-11.307233810424805,65.40930938720703,-24.329805374145508,1.5170339345932007
1,805798,-17.57912254333496,-26.123092651367188,-56.13374328613281,-66.59873962402344
1,805799,25.968891143798828,7.399405479431152,102.99691772460938,-2.6399996280670166
1,805802,30.778148651123047,41.37107849121094,27.07433319091797,112.95525360107422
1,805803,-43.97264862060547,-15.663185119628906,-153.5430450439453,-70.14154815673828
1,805806,-27.543598175048828,29.94947052001953,24.804962158203125,-46.35755157470703
1,805807,75.2771224975586,-100.29286193847656,100.98546600341797,126.95359802246094
1,805810,64.68468475341797,-336.0897216796875,-16.96399688720703,32.78350830078125
1,805811,-40.84716796875,20.537763595581055,-39.6915168762207,-68.48980712890625
1,805814,-90.63043212890625,382.28851318359375,13.069372177124023,-51.0876350402832
1,805815,-59.663875579833984,83.20201873779297,-8.390369415283203,-32.113765716552734
1,805818,-0.2641410827636719,-109.38600158691406,-29.242189407348633,37.409671783447266
1,805819,86.25434875488281,-51.48214340209961,94.40953826904297,35.32847213745117
1,805822,80.85174560546875,26.785634994506836,10.60232925415039,-4.617278575897217
1,805823,-31.803192138671875,-28.050966262817383,-89.22394561767578,23.66232681274414
1,805826,-37.37815856933594,-58.4161376953125,1.5426887273788452,-37.108314514160156
