Aktueller Finger,timestamp_ms,sensor_0,sensor_1,sensor_2,sensor_3
0,1802551,0.06566938757896423,-1.344774842262268,26.169586181640625,53.79598617553711
0,1802551,19.802242279052734,-16.903244018554688,13.632209777832031,-30.267742156982422
0,1802554,-26.75286865234375,-10.08576488494873,-36.00632858276367,-14.153032302856445
0,1802555,-1.9348366260528564,8.003633499145508,1.1611052751541138,31.793590545654297
0,1802558,30.52324676513672,3.4101181030273438,2.3489785194396973,-53.77251434326172
0,1802559,0.16680972278118134,6.079343795776367,-0.5482607483863831,-41.177642822265625
0,1802562,-27.03143310546875,-12.078047752380371,14.996553421020508,98.92267608642578
0,1802563,-12.97940444946289,-8.73380184173584,-16.632001876831055,49.74380874633789
0,1802566,1.256022572517395,10.46950912475586,-6.565637111663818,-70.7522964477539
0,1802567,14.933391571044922,7.6496381759643555,-1.5586464405059814,-19.074527740478516
0,1802570,3.6050312519073486,-9.878335952758789,10.293314933776855,4.166234493255615
0,1802571,-1.7736296653747559,-5.673319339752197,11.677160263061523,-7.58181619644165
0,1802574,30.745290756225586,23.97732162475586,-7.755312442779541,69.97404479980469
0,1802575,-11.393330574035645,-5.655702590942383,-11.820623397827148,-40.595821380615234
0,1802578,-26.88984489440918,-19.791833877563477,-0.0985620766878128,-85.389404296875
0,1802579,13.908414840698242,16.31725311279297,17.154293060302734,84.94003295898438
0,1802834,-52.595458984375,5.433966636657715,66.88717651367188,187.72671508789062
0,1802836,-58.37397003173828,-11.691980361938477,60.04083251953125,54.19152069091797
0,1802838,81.80342102050781,-4.121279239654541,-106.1070785522461,-300.37786865234375
0,1802840,64.25282287597656,-18.333005905151367,-114.94071960449219,-170.34710693359375
0,1802842,8.036646842956543,-0.440881609916687,-11.814468383789062,21.24238395690918
0,1802844,51.23313522338867,20.97568702697754,-31.068859100341797,-112.58746337890625
0,1802846,15.720680236816406,-16.48781967163086,11.562060356140137,125.4201431274414
0,1857183,-54.29771423339844,6.123198509216309,95.9273681640625,314.7312316894531
0,1857185,-79.88402557373047,56.150909423828125,77.3471450805664,105.2679443359375
0,1857187,-30.559852600097656,12.288532257080078,20.320310592651367,-20.936826705932617
0,1857189,-3.4544999599456787,-41.479225158691406,20.99844741821289,-16.57840347290039
0,1857191,-15.045398712158203,-25.424274444580078,-21.446500778198242,-85.27300262451172
0,1857193,33.806827545166016,-10.228327751159668,-82.63208770751953,-234.3024444580078
0,1857195,38.01976013183594,-0.7117242217063904,-16.101346969604492,-99.44049835205078
0,1857197,31.233142852783203,22.94097900390625,-7.020553112030029,108.55562591552734
0,1857199,30.804134368896484,24.11962127685547,-32.162925720214844,-63.60465621948242
0,1857201,-21.543397903442383,1.6846901178359985,6.7884368896484375,7.4007744789123535
0,1857203,0.8726931214332581,-21.34434700012207,8.334818840026855,216.18170166015625
0,1857205,-48.039913177490234,-23.599529266357422,62.02877426147461,120.54037475585938
0,1857207,-41.23844909667969,11.538176536560059,62.53448486328125,1.9906316995620728
0,1857209,43.49220657348633,17.014514923095703,-19.234575271606445,-71.7522201538086
0,1857211,-43.66792297363281,-36.77997970581055,-23.664140701293945,-44.92767333984375
0,1857213,8.455562591552734,-0.08759833127260208,-23.836017608642578,-67.25395202636719
0,1857215,66.15925598144531,47.383296966552734,-41.44380187988281,-69.5810317993164
0,1857217,-16.223812103271484,-12.560270309448242,-21.38882064819336,-4.867944717407227
0,1857219,19.173246383666992,-19.618101119995117,18.117860794067383,-59.38737487792969
0,1857221,33.444580078125,9.04961109161377,11.496564865112305,54.4492301940918
0,1857223,-15.518915176391602,-0.8165877461433411,-8.911048889160156,121.20140075683594
0,1857225,-56.95332717895508,1.7290267944335938,49.46955871582031,61.40497589111328
0,1857227,-32.713905334472656,9.008600234985352,37.39275360107422,47.64839172363281
0,1857229,18.810932159423828,-3.4682061672210693,-16.104684829711914,-88.01140594482422
0,1857231,-6.6073198318481445,-12.76661491394043,-3.7626421451568604,-36.2048225402832
0,1857233,31.182138442993164,3.44671630859375,-54.86367416381836,-23.14386749267578
0,1857235,28.848617553710938,29.287168502807617,-18.092960357666016,-44.912803649902344
0,1857237,-24.501148223876953,-2.737405300140381,43.396217346191406,48.85084915161133
0,1857239,-11.0972318649292,-44.91632843017578,-42.025447845458984,-155.30812072753906
0,1857241,12.069990158081055,14.67172908782959,-17.639047622680664,-11.59703540802002
0,1857243,17.8677921295166,34.445701599121094,48.6049690246582,254.67449951171875
0,1857246,-42.78056716918945,-34.99361038208008,51.269935607910156,68.77471160888672
0,1857248,-16.8607177734375,-15.780692100524902,13.897424697875977,-33.08863067626953
0,1857249,20.696073532104492,17.48114776611328,-60.82430648803711,-103.23267364501953
0,1857250,-5.190179824829102,7.718045234680176,-8.836524963378906,-57.550331115722656
0,1857253,22.687284469604492,15.848213195800781,8.417439460754395,3.25099778175354
0,1857254,3.502018928527832,-5.741443634033203,-2.8206748962402344,11.897549629211426
0,1857257,-12.917405128479004,-16.529481887817383,40.01490020751953,74.7018051147461
0,1857258,4.689035415649414,-10.266692161560059,-26.656200408935547,-76.06636047363281
0,1857261,15.166074752807617,12.69320297241211,-50.18549346923828,-72.20915985107422
0,1857262,15.523770332336426,13.826791763305664,3.055567502975464,80.65050506591797
0,1857265,-16.922182083129883,-17.335041046142578,35.34001541137695,78.81351470947266
0,1857266,-9.433682441711426,-4.114345073699951,25.49579620361328,-18.987375259399414
0,1857269,-4.305983543395996,18.953317642211914,-9.319448471069336,-80.43428039550781
0,1857270,-11.107763290405273,3.073594093322754,-6.887157917022705,26.42939567565918
0,1857273,39.86634063720703,-20.060693740844727,-41.8407096862793,-6.537116050720215
0,1857274,11.06278133392334,0.35237863659858704,-4.4256768226623535,7.375892639160156
0,1857277,-63.13136672973633,2.277562379837036,46.42071533203125,75.01290893554688
0,1857278,-4.515133380889893,-15.9271821975708,-5.7643632888793945,-113.79962158203125
0,1857281,50.85951614379883,34.21474838256836,-10.376466751098633,-41.493507385253906
0,1857282,11.602219581604004,31.112327575683594,-8.161486625671387,101.88240814208984
0,1857285,-33.31081771850586,-31.357297897338867,11.140922546386719,56.46926498413086
0,1857286,-24.616943359375,-25.276933670043945,22.64211654663086,-2.9602088928222656
0,1857289,5.797664165496826,-0.09629478305578232,4.908616065979004,-72.27555084228516
0,1857290,2.072543144226074,20.480039596557617,6.947732925415039,16.160608291625977
0,1857293,21.44009780883789,7.383580684661865,-35.82081985473633,-26.911216735839844
0,1857294,11.200616836547852,-9.595820426940918,-10.082849502563477,-1.99446439743042
0,1857297,-25.50275993347168,-4.989590167999268,36.03511428833008,124.5542984008789
0,1857298,-2.9265525341033936,6.481833457946777,-0.023478250950574875,-100.84910583496094
0,1857301,5.1127166748046875,-11.23179817199707,-40.00960159301758,-119.1611099243164
0,1857302,-4.095542907714844,-15.341714859008789,-27.597558975219727,75.71894073486328
0,1857305,8.6731595993042,31.573997497558594,59.465667724609375,91.0997543334961
0,1857307,14.418889999389648,-7.818741798400879,25.06145668029785,6.844578742980957
0,1857309,12.70448112487793,-13.373601913452148,-40.925601959228516,-70.13609313964844
0,1857311,-2.7900848388671875,48.99452209472656,19.415443420410156,-7.336760520935059
0,1857313,9.576085090637207,-19.477968215942383,2.5850260257720947,-6.67755651473999
0,1857315,-9.187150001525879,-62.036800384521484,-20.522611618041992,16.157794952392578
0,1857317,-40.279354095458984,28.775054931640625,3.0384488105773926,71.37619018554688
0,1857319,7.880257606506348,38.66404724121094,-22.163414001464844,-78.44971466064453
0,1857321,18.352128982543945,-19.635513305664062,-21.234086990356445,-55.56136703491211
0,1857323,-5.08225679397583,-8.668978691101074,21.61682891845703,107.7607650756836
0,1857325,-22.531869888305664,18.285539627075195,59.21204376220703,37.849674224853516
0,1857327,-11.671000480651855,-15.820764541625977,7.472726821899414,-73.1465072631836
0,1857329,25.053503036499023,-10.106668472290039,-50.58609390258789,-30.314640045166016
0,1857331,13.947997093200684,27.01117706298828,-16.982873916625977,-20.993871688842773
0,1857333,-0.42220339179039,-13.748812675476074,14.93000316619873,-38.19035339355469
0,1857335,0.48489058017730713,-24.584367752075195,17.002300262451172,78.09048461914062
0,1857337,-6.358437538146973,21.771142959594727,19.230806350708008,79.72178649902344
0,1857339,12.479310989379883,30.614669799804688,-20.215486526489258,-42.46803665161133
0,1857341,2.801969528198242,-14.606440544128418,-56.371795654296875,-77.26885986328125
0,1857343,-36.61315155029297,-45.65821838378906,46.38450622558594,81.10431671142578
0,1857345,11.137519836425781,-19.840177536010742,48.239532470703125,50.81047439575195
0,1857347,25.95017433166504,46.0328369140625,-44.2364387512207,-99.60360717773438
0,1857349,-36.298038482666016,34.69922637939453,-23.550039291381836,16.006370544433594
0,1857351,8.3223237991333,-28.764326095581055,4.3901166915893555,-22.936809539794922
0,1857353,41.90876388549805,0.971876859664917,23.985530853271484,-30.18963050842285
0,1857355,-21.061405181884766,-1.2831693887710571,-9.889535903930664,95.502197265625
0,1857357,-34.32166290283203,-21.36505889892578,-3.0806655883789062,35.427669525146484
0,1857359,23.062911987304688,22.82722282409668,30.28266143798828,-87.54932403564453
0,1857361,46.29664611816406,22.06496810913086,-15.192907333374023,-100.88300323486328
0,1857363,-30.704370498657227,-7.678713798522949,-14.54279613494873,115.55442810058594
0,1857365,-25.171371459960938,-7.893095016479492,-6.71821403503418,116.47102355957031
0,1857367,16.45037078857422,-22.812278747558594,9.585692405700684,-107.74442291259766
0,1857369,-14.260698318481445,2.343695640563965,33.77017593383789,-28.22907066345215
0,1857371,12.138570785522461,36.5501823425293,-41.091556549072266,8.406291007995605
0,1857373,2.5205554962158203,-22.473674774169922,-42.06208038330078,-39.2634162902832
0,1857375,-18.30323600769043,-34.06727981567383,33.70225524902344,32.17844772338867
0,1857377,-12.955029487609863,22.71943473815918,28.546367645263672,38.164024353027344
0,1857379,3.731572151184082,17.156082153320312,3.4893927574157715,-33.23505401611328
0,1857381,46.116085052490234,-4.122582912445068,-0.4938199818134308,-54.22150802612305
0,1857383,-13.87745475769043,0.8258461356163025,-4.951893329620361,114.790283203125
0,1857385,-19.514711380004883,3.704296350479126,-18.347902297973633,37.26124572753906
0,1857387,20.29374885559082,3.4806675910949707,15.010664939880371,-126.68958282470703
0,1857389,-6.662346839904785,-9.043840408325195,5.812715530395508,22.121829986572266
0,1857391,5.640854358673096,-15.918411254882812,-30.828758239746094,0.7682996392250061
0,1857393,-4.551236629486084,15.172837257385254,9.084240913391113,-27.65999984741211
0,1857395,0.14762760698795319,30.766027450561523,6.178340435028076,80.70016479492188
0,1857397,-7.571428298950195,-26.461349487304688,15.887374877929688,38.720550537109375
0,1857399,-5.2728800773620605,-37.53335952758789,7.171410083770752,-70.09840393066406
0,1857401,15.129308700561523,9.20704460144043,-38.252681732177734,-84.86112213134766
0,1857403,-22.19501304626465,23.693920135498047,19.558616638183594,98.38009643554688
0,1857405,-0.24746474623680115,0.6808899641036987,6.601108551025391,68.97450256347656
0,1857407,2.1231753826141357,-20.13324546813965,-12.430173873901367,-95.3419189453125
0,1857409,4.740440845489502,14.364282608032227,30.27528190612793,13.899428367614746
0,1857411,25.978931427001953,10.759332656860352,-39.09651565551758,-33.2437858581543
0,1857413,-18.485029220581055,-10.076712608337402,-5.287646770477295,-36.371646881103516
0,1857415,20.546506881713867,12.955477714538574,45.617916107177734,110.30126953125
0,1857417,7.414803981781006,5.547305583953857,-24.38312339782715,16.9540958404541
0,1857419,-28.784103393554688,-0.9599645137786865,-7.0027875900268555,-77.4698257446289
0,1857421,14.539139747619629,-0.5741087794303894,-0.23672839999198914,-50.71083450317383
0,1857423,-14.459826469421387,-4.738636493682861,3.6047587394714355,82.42108917236328
0,1857425,-6.871870040893555,-8.312973022460938,18.116403579711914,56.62579345703125
0,1857427,15.013667106628418,-8.937108993530273,11.108295440673828,-103.62301635742188
0,1857430,-8.865909576416016,10.809549331665039,9.750553131103516,-25.47003173828125
0,1857431,-9.33872127532959,-7.972286701202393,-31.79629898071289,58.96001434326172
0,1857434,23.552722930908203,-1.8379738330841064,-16.502399444580078,-10.841559410095215
0,1857435,-0.03826180845499039,19.685598373413086,21.542312622070312,16.603302001953125
0,1857438,-35.17901611328125,-29.01426887512207,-0.5451785922050476,53.2142333984375
0,1857439,5.824767112731934,-11.563385963439941,-3.4733951091766357,-102.9541244506836
0,1857442,33.95981979370117,22.98090171813965,-3.241793155670166,-17.144569396972656
0,1857443,5.344729423522949,22.488454818725586,-30.06651496887207,63.23249816894531
0,1857446,-47.23521423339844,-15.489777565002441,5.4084696769714355,-1.398557424545288
0,1857447,-0.49372240900993347,-39.80009460449219,26.09191131591797,31.598670959472656
0,1857450,31.441978454589844,27.76911163330078,-11.623812675476074,-58.986061096191406
0,1857451,-5.679216384887695,13.163302421569824,5.168004035949707,12.092071533203125
0,1857454,20.001239776611328,8.451488494873047,6.964972019195557,21.51156997680664
0,1857455,-16.212003707885742,3.3228254318237305,-16.80709457397461,-22.79250717163086
0,1857458,-27.19493865966797,-34.06988525390625,14.578973770141602,57.93170166015625
0,1857459,31.712575912475586,4.037378311157227,6.300061225891113,-72.60549926757812
0,1857462,0.1743292510509491,19.812788009643555,-21.577478408813477,-29.652185440063477
0,1857463,-18.12468910217285,20.74894142150879,18.023855209350586,97.78498077392578
0,1857466,-7.6673712730407715,-10.158857345581055,32.485450744628906,37.138545989990234
0,1857467,5.427645206451416,-31.40900421142578,-21.859222412109375,-43.4472770690918
0,1857470,28.35601043701172,18.869678497314453,-24.023544311523438,-93.92311096191406
0,1857471,5.205952167510986,23.56416130065918,18.277902603149414,32.91876220703125
0,1857474,-20.519302368164062,-27.306184768676758,-11.072039604187012,-6.140992641448975
0,1857475,-6.868737697601318,-7.037298679351807,0.07985733449459076,-6.482137203216553
0,1857478,3.198953628540039,1.942704677581787,9.804328918457031,112.45231628417969
0,1857479,0.6789464354515076,-9.284903526306152,-35.06003189086914,-67.16191101074219
0,1857482,13.998546600341797,12.837048530578613,6.223083972930908,-35.811302185058594
0,1857483,2.9040632247924805,8.080307006835938,24.76266098022461,50.96985626220703
0,1857486,-15.658182144165039,21.73858642578125,26.82161521911621,16.09525489807129
0,1857487,0.13348150253295898,-6.57882022857666,-13.662792205810547,9.827786445617676
0,1857490,-15.641556739807129,-25.797433853149414,-63.97687530517578,-85.30361938476562
0,1857491,-3.902305841445923,-14.378175735473633,28.761178970336914,5.452648162841797
0,1857494,31.46498680114746,-1.6389610767364502,15.20223617553711,13.300667762756348
0,1857495,-21.132692337036133,23.0788516998291,6.858970642089844,27.595104217529297
0,1857498,-10.013413429260254,6.306870937347412,26.9537410736084,76.3172378540039
0,1857499,29.060274124145508,-10.409278869628906,-59.059783935546875,-125.8328628540039
0,1857502,4.103403568267822,-10.849817276000977,12.285934448242188,-25.497949600219727
0,1857503,-3.9290716648101807,10.636603355407715,43.081722259521484,105.04225158691406
0,1857506,-36.743038177490234,-1.9912253618240356,-25.64728355407715,1.2117128372192383
0,1857507,-16.150672912597656,-14.364651679992676,-6.618309497833252,-25.123863220214844
0,1857510,41.661624908447266,5.50280237197876,-8.785955429077148,-73.18900299072266
0,1857511,30.687562942504883,22.262325286865234,6.955420970916748,20.87371253967285
0,1857514,20.873802185058594,16.388408660888672,17.9066104888916,40.283050537109375
0,1857515,-41.923118591308594,-12.577555656433105,-6.591372966766357,-0.6521557569503784
0,1857518,-50.58540725708008,6.978143215179443,7.963221073150635,48.31217575073242
0,1857519,49.69795608520508,-9.153447151184082,14.586785316467285,-81.1009292602539
0,1857522,9.12057876586914,-28.058977127075195,-30.764232635498047,-18.758872985839844
0,1857523,-35.18531036376953,-3.3474886417388916,-40.382301330566406,84.09375
0,1857526,13.290745735168457,4.771596908569336,45.015499114990234,7.038571834564209
0,1857527,9.137786865234375,8.105600357055664,17.63784408569336,-30.025245666503906
0,1857530,-1.989041805267334,4.087213516235352,-29.869937896728516,-61.75822067260742
0,1857531,0.8502327799797058,1.1800050735473633,18.696762084960938,9.231131553649902
0,1857532,-5.548105716705322,-1.3593682050704956,5.425929069519043,85.48246765136719
0,1857535,-1.853737235069275,3.370567560195923,-17.19615936279297,32.29327392578125
0,1857536,-10.328362464904785,2.11814546585083,15.431588172912598,-33.63285827636719
0,1857540,13.562057495117188,-0.43274980783462524,1.3012936115264893,-63.765872955322266
0,1857540,31.28687858581543,-10.11652946472168,-62.2384033203125,-104.28687286376953
0,1857543,-14.849628448486328,17.695953369140625,39.73915100097656,69.4616928100586
0,1857544,-15.80496883392334,26.376333236694336,46.16614532470703,115.00711822509766
0,1857547,0.6406574845314026,-28.096738815307617,-40.76011276245117,-77.77095031738281
0,1857548,12.502817153930664,-9.375601768493652,5.6987738609313965,14.334697723388672
0,1857551,8.22317886352539,6.346546173095703,-7.791371822357178,18.89167594909668
0,1857552,-15.101425170898438,-17.938007354736328,0.16600367426872253,-31.629568099975586
0,1857555,-13.013358116149902,8.549478530883789,8.495058059692383,40.690879821777344
0,1857556,-28.836814880371094,1.351761817932129,3.0134992599487305,26.231477737426758
0,1857559,14.586202621459961,-16.987173080444336,-1.9610838890075684,-33.67729568481445
0,1857560,54.093833923339844,12.587685585021973,-20.492904663085938,-96.11012268066406
0,1857563,-20.636266708374023,22.19287872314453,29.104957580566406,61.522823333740234
0,1857564,-12.675028800964355,-11.082295417785645,7.384365558624268,72.13378143310547
0,1857567,10.52214241027832,-5.138301849365234,-22.644712448120117,-67.33468627929688
0,1857568,-37.02081298828125,4.183069705963135,5.261291027069092,24.680458068847656
0,1857571,16.5071964263916,-17.692676544189453,-21.739768981933594,-22.093053817749023
0,1857572,32.82468795776367,17.47872543334961,5.095829010009766,-21.515432357788086
0,1857575,-16.80614471435547,21.060911178588867,35.52045440673828,78.22320556640625
0,1857576,-35.94258499145508,-6.23952054977417,-3.160898208618164,10.813450813293457
0,1857579,8.690909385681152,-27.78795623779297,-28.685026168823242,-67.35238647460938
0,1857580,56.88663864135742,-26.56840705871582,-33.30312728881836,-68.80386352539062
0,1857583,-14.164467811584473,42.266666412353516,51.297515869140625,87.82669830322266
0,1857584,-27.458288192749023,26.051198959350586,23.52630615234375,49.16834259033203
0,1857587,-1.6613686084747314,-31.752565383911133,-37.14738082885742,-106.44197845458984
0,1857588,12.63179874420166,12.935728073120117,26.879030227661133,40.43376922607422
0,1857591,7.130237579345703,-6.333474636077881,-25.52180290222168,26.139814376831055
0,1857592,-33.67677688598633,-34.75882339477539,-13.464936256408691,-54.439144134521484
0,1857595,14.616026878356934,20.03554344177246,33.6629638671875,36.43937301635742
0,1857596,13.185525894165039,7.274738311767578,1.9550485610961914,39.62046432495117
0,1857599,-10.872382164001465,11.523355484008789,-10.235344886779785,-20.3243408203125
0,1857600,21.234683990478516,22.11216163635254,-5.499622344970703,-85.56562805175781
0,1857603,-16.466106414794922,-15.558213233947754,6.081640720367432,55.49356460571289
0,1857604,0.13097655773162842,-16.517765045166016,-16.90089988708496,80.2981185913086
0,1857607,1.1875120401382446,-24.1148681640625,1.2233471870422363,-81.5240707397461
0,1857608,-29.258922576904297,-0.9339232444763184,-0.044208675622940063,17.874767303466797
0,1857611,36.184112548828125,33.20036315917969,-19.464948654174805,12.102745056152344
0,1857612,3.654201030731201,14.86023235321045,21.184423446655273,-58.96269607543945
0,1857615,-15.572908401489258,-23.247337341308594,14.781695365905762,62.36894607543945
0,1857616,27.987272262573242,-25.090608596801758,2.0017926692962646,45.864810943603516
0,1857619,-5.702126979827881,31.0676326751709,8.932283401489258,-84.56684875488281
0,1857620,-30.022247314453125,7.406429767608643,-31.7574462890625,-87.42134857177734
0,1857623,-8.231452941894531,-16.914783477783203,2.77953839302063,96.33761596679688
0,1857624,37.57661056518555,14.459439277648926,13.947871208190918,79.69735717773438
0,1857627,-8.010252952575684,-13.398050308227539,-10.891630172729492,-74.02485656738281
0,1857628,-31.581018447875977,-0.12684136629104614,20.728439331054688,-15.920669555664062
0,1857631,22.15513038635254,-13.02757453918457,-21.021299362182617,-32.36294174194336
0,1857632,7.457355499267578,-13.854822158813477,-15.81253433227539,9.887155532836914
0,1857635,2.8449649810791016,36.785518646240234,34.21847152709961,78.6758804321289
0,1857636,-28.9263973236084,-0.1776638925075531,20.708274841308594,5.1611328125
0,1857639,-7.592823028564453,-10.75152587890625,-19.97640037536621,-47.06110763549805
0,1857640,58.60149383544922,-0.9957863092422485,-28.585472106933594,-45.38479232788086
0,1857643,-8.414928436279297,18.714664459228516,27.12669563293457,86.73798370361328
0,1857644,-29.47672462463379,33.958717346191406,2.5294137001037598,22.677705764770508
0,1857647,5.569293975830078,-28.85721778869629,-28.0761775970459,-91.63256072998047
0,1857649,4.007923603057861,-20.63884162902832,9.863139152526855,42.91997146606445
0,1857651,15.484002113342285,7.281065464019775,3.8569483757019043,-31.08417320251465
0,1857653,0.400168776512146,-18.3726863861084,-2.82962703704834,-58.902828216552734
0,1857655,-8.261926651000977,18.94251823425293,8.299814224243164,119.08673095703125
0,1857657,-35.1733512878418,2.13680362701416,6.253274917602539,58.041412353515625
0,1857659,0.43145740032196045,-6.182308197021484,-21.05474853515625,-99.86811828613281
0,1857661,54.30232238769531,15.391491889953613,2.620445966720581,-84.67272186279297
0,1857663,-22.67023277282715,-34.084659576416016,25.222057342529297,103.25138092041016
0,1857665,-37.036781311035156,-22.72869873046875,-20.0668888092041,80.02252197265625
0,1857668,-6.288354873657227,11.749284744262695,8.811861991882324,-90.37779998779297
0,1857669,3.2048869132995605,22.0722599029541,20.82134437561035,-30.53667640686035
0,1857671,42.69279479980469,17.017927169799805,-19.46497344970703,16.588701248168945
0,1857673,29.404939651489258,-1.1566537618637085,-17.34819221496582,-31.11521339416504
0,1857675,-41.357627868652344,-1.5757811069488525,6.8769636154174805,33.345699310302734
0,1857677,-43.20613098144531,-15.018671989440918,5.6246418952941895,54.40001678466797
0,1857679,44.9868278503418,4.057879447937012,-22.52365493774414,-99.39447784423828
0,1857681,24.461135864257812,14.435991287231445,3.6367270946502686,-22.272947311401367
0,1857683,-37.37936782836914,-24.351396560668945,5.221150875091553,90.5195083618164
0,1857685,4.419678688049316,2.5168285369873047,13.238603591918945,52.853694915771484
0,1857687,26.02351951599121,36.74992370605469,31.720626831054688,9.506814956665039
0,1857689,7.020314693450928,-9.033159255981445,-19.325672149658203,-125.68165588378906
0,1857691,-23.279029846191406,-45.849609375,-36.80280303955078,-73.60271453857422
0,1857693,5.1055755615234375,14.281246185302734,5.575493812561035,77.77333068847656
0,1857695,11.769562721252441,45.523014068603516,21.46234130859375,125.61669921875
0,1857697,-52.16536331176758,-24.363174438476562,-7.010005950927734,6.406881809234619
0,1857699,1.069708228111267,-24.51441192626953,9.350714683532715,-156.75430297851562
0,1857701,46.425209045410156,26.870391845703125,29.151893615722656,-2.9439213275909424
0,1857703,-5.01507568359375,-12.910615921020508,-26.39107894897461,95.52471923828125
0,1857705,-7.239448070526123,-24.844636917114258,-13.7966890335083,29.57062339782715
0,1857707,16.177526473999023,37.053062438964844,21.79581069946289,-1.6567533016204834
0,1857709,-15.35944938659668,-10.725163459777832,-52.35459899902344,-117.74552917480469
0,1857711,-23.615766525268555,-30.44717788696289,-18.348012924194336,12.149791717529297
0,1857713,25.91802978515625,55.28221893310547,46.73337936401367,80.1044921875
0,1857715,14.280965805053711,28.913190841674805,42.54454803466797,-6.915094375610352
0,1857717,-9.127808570861816,-27.50965690612793,19.665451049804688,48.83951950073242
0,1857719,2.5399038791656494,-22.617511749267578,-62.09317398071289,-91.81246948242188
0,1857721,-18.61827278137207,-20.20022201538086,-39.040164947509766,-74.23295593261719
0,1857723,-26.791702270507812,-5.226337909698486,13.670455932617188,85.87403106689453
0,1857725,11.53720760345459,33.90030288696289,31.38054084777832,47.534542083740234
0,1857727,26.29001235961914,8.492194175720215,18.433225631713867,4.956140995025635
0,1857729,21.08873176574707,-40.61640167236328,4.8702826499938965,-68.46678924560547
0,1857731,2.4515597820281982,18.640857696533203,29.720199584960938,-4.574592113494873
0,1857733,-26.21196174621582,14.973002433776855,-54.936946868896484,32.8449821472168
0,1857735,-8.372897148132324,-27.653295516967773,-26.553619384765625,2.7890658378601074
0,1857737,-7.993391990661621,18.19435691833496,43.5341682434082,38.419044494628906
0,1857739,-18.09246826171875,-5.850002765655518,-36.70390701293945,-79.3479232788086
0,1857741,26.228397369384766,-18.93212127685547,-17.260412216186523,-12.391383171081543
0,1857743,28.253183364868164,15.455047607421875,35.609066009521484,80.36893463134766
0,1857745,-17.786775588989258,13.529326438903809,34.215171813964844,-6.5632171630859375
0,1857747,-20.1429443359375,7.2825236320495605,-2.2849340438842773,-10.491302490234375
0,1857749,4.334603309631348,-17.337162017822266,-49.88173294067383,-41.59458541870117
0,1857751,8.209811210632324,-10.07039737701416,-15.633508682250977,-25.651962280273438
0,1857753,8.86104679107666,-19.67689323425293,18.828577041625977,13.433262825012207
0,1857755,20.85066795349121,13.24063777923584,48.970802307128906,100.16625213623047
0,1857757,-11.580108642578125,59.606571197509766,20.76154899597168,42.47402572631836
0,1857759,-25.39051628112793,-22.943988800048828,-47.540008544921875,-158.25315856933594
0,1857761,-16.821208953857422,-39.25889587402344,-18.17279052734375,-7.036263465881348
0,1857763,3.735105514526367,45.71830368041992,3.845097303390503,83.63455200195312
0,1857765,43.579017639160156,4.881970405578613,5.815552711486816,-9.339395523071289
0,1857767,15.399397850036621,-43.26426696777344,15.337650299072266,-32.05012130737305
0,1857769,-27.325000762939453,26.841764450073242,-1.1596565246582031,0.08645553141832352
0,1857771,-35.83702087402344,-3.962050437927246,-10.33615493774414,49.394100189208984
0,1857773,14.783388137817383,-26.686588287353516,-2.7821924686431885,-48.87126159667969
0,1857775,21.13465118408203,7.326582908630371,8.013671875,11.66897201538086
0,1857777,-11.210740089416504,13.7548246383667,-9.962584495544434,73.7658462524414
0,1857779,18.4895076751709,10.254284858703613,-17.8594913482666,-110.63326263427734
0,1857781,5.507328510284424,-19.840778350830078,-4.594032287597656,-34.44734191894531
0,1857783,-26.8587589263916,3.1008594036102295,7.445560455322266,109.92191314697266
0,1857785,-18.29136085510254,5.8420538902282715,43.62040328979492,13.375937461853027
0,1857787,27.533451080322266,5.488638877868652,26.96172332763672,-42.200313568115234
0,1857789,35.619232177734375,27.35307502746582,-10.14162826538086,-16.72076416015625
0,1857791,-26.177255630493164,5.497909069061279,-1.0356086492538452,45.088768005371094
0,1857793,-38.071922302246094,-47.24459457397461,-66.5870361328125,-50.40577697753906
0,1857795,-7.278369426727295,-26.002395629882812,-50.18218231201172,-59.02375793457031
0,1857797,18.691707611083984,44.4930419921875,75.04592895507812,88.84466552734375
0,1857799,17.838197708129883,-25.25124740600586,7.422420501708984,-30.719463348388672
0,1857801,-1.0918357372283936,-25.743894577026367,-30.573688507080078,6.70196533203125
0,1857803,1.864405870437622,31.951915740966797,40.40452194213867,89.10984802246094
0,1857806,-14.11116886138916,3.085111379623413,51.27885055541992,3.277552604675293
0,1857807,-12.736538887023926,6.033630847930908,-6.795705318450928,-34.51329803466797
0,1857808,14.964584350585938,5.73740291595459,-91.3919677734375,-70.24235534667969
0,1857811,-13.30744457244873,-21.125587463378906,-38.48429870605469,-54.38630294799805
0,1857813,14.252693176269531,-1.4634138345718384,34.03052520751953,-15.46512222290039
0,1857815,39.55423355102539,29.879411697387695,47.097930908203125,133.859619140625
0,1857817,-4.095213413238525,0.6083961725234985,29.10166358947754,75.5242919921875
0,1857819,3.1179075241088867,6.549142360687256,1.1892284154891968,-152.57638549804688
0,1857821,-19.88139533996582,5.278916835784912,-25.674612045288086,-13.867633819580078
0,1857823,-28.407997131347656,-25.312747955322266,-16.366437911987305,80.13080596923828
0,1857825,-35.09581756591797,-17.420045852661133,4.945838451385498,-60.84069061279297
0,1857827,-1.718742847442627,6.707064151763916,-52.843196868896484,12.850632667541504
0,1857829,95.3952865600586,7.891045093536377,6.779185771942139,43.43568801879883
0,1857831,36.22799301147461,14.839253425598145,85.0226821899414,-6.56367301940918
0,1857833,-76.84272003173828,27.685596466064453,-35.32637405395508,-14.408591270446777
0,1857835,-69.93399047851562,-52.924076080322266,-75.88399505615234,-24.660154342651367
0,1857837,50.53523635864258,-42.22606658935547,88.59099578857422,98.16587829589844
0,1857839,54.40968704223633,30.243408203125,63.38582992553711,-80.64898681640625
0,1857841,-33.893402099609375,5.6859636306762695,-93.99378204345703,-134.05760192871094
0,1857843,18.751644134521484,23.961055755615234,-38.17395782470703,124.36798858642578
0,1857845,-14.768014907836914,40.006683349609375,66.66352081298828,95.60948944091797
0,1857847,-39.70589065551758,-11.658391952514648,0.654415488243103,-22.45901107788086
0,1857849,34.22941589355469,-48.81776428222656,-41.07246398925781,-108.53315734863281
0,1857851,0.9707804322242737,-10.449840545654297,16.943347930908203,20.656232833862305
0,1857853,7.392062187194824,2.9855258464813232,1.6306288242340088,34.511409759521484
0,1857855,17.68621826171875,21.51612091064453,42.6963996887207,-35.1457633972168
0,1857857,-42.375675201416016,34.9499626159668,22.703588485717773,53.583316802978516
0,1857859,-10.613340377807617,-10.67155647277832,-53.37510299682617,-51.07636260986328
0,1857861,-1.621252417564392,-21.725984573364258,-82.2303695678711,-15.500626564025879
0,1857863,-7.834787845611572,-21.641416549682617,-50.2808952331543,104.92911529541016
0,1857865,15.761458396911621,-31.87482261657715,79.2889633178711,10.074934005737305
0,1857867,-1.5762975215911865,3.071080446243286,62.66497039794922,-49.065067291259766
0,1857869,36.36000442504883,59.698265075683594,61.765586853027344,-80.0373306274414
0,1857871,41.708984375,36.746334075927734,68.45872497558594,-2.506723165512085
0,1857873,-25.572187423706055,-25.29439926147461,-148.81712341308594,20.392589569091797
0,1857875,-49.915992736816406,-28.493022918701172,-128.4716033935547,11.882528305053711
0,1857877,-12.418136596679688,-0.14823642373085022,97.37289428710938,81.5648193359375
0,1857879,19.713685989379883,7.072407245635986,83.88784790039062,-51.99058151245117
0,1857881,41.91203689575195,22.682355880737305,0.08297819644212723,21.59561538696289
0,1857883,25.08371925354004,5.246004104614258,-45.965518951416016,64.5118408203125
0,1857885,-41.039886474609375,-8.556544303894043,42.46796798706055,-56.55042266845703
0,1857887,-59.220359802246094,-15.330116271972656,33.414833068847656,-84.11357116699219
0,1857889,-52.32051086425781,-37.690528869628906,-164.78054809570312,-90.0981674194336
0,1857891,39.54741668701172,5.495796203613281,-87.58206939697266,119.06073760986328
0,1857893,147.85214233398438,14.93945026397705,108.56944274902344,111.65847778320312
0,1857895,-8.805317878723145,-1.8660908937454224,102.50182342529297,-22.833513259887695
0,1857897,-134.17115783691406,3.2033705711364746,9.12879467010498,-45.16421127319336
0,1857899,5.897666931152344,-21.013397216796875,25.93574333190918,-155.82730102539062
0,1857901,74.94855499267578,25.93170738220215,-20.491626739501953,105.20156860351562
0,1857903,31.806116104125977,40.26777267456055,-146.5404052734375,128.77764892578125
0,1857905,-57.660362243652344,-34.58595657348633,9.211833000183105,-142.32896423339844
0,1857907,-56.86668014526367,8.068001747131348,110.82064056396484,3.797538995742798
0,1857909,64.02009582519531,52.78525161743164,5.845898628234863,24.355228424072266
0,1857911,2.765594005584717,-33.770606994628906,-15.749165534973145,6.890304088592529
0,1857913,-37.33380126953125,-56.03897476196289,-3.2661638259887695,14.727522850036621
0,1857915,-10.578605651855469,1.2469136714935303,4.988742828369141,-12.3256254196167
0,1857918,1.9459493160247803,32.57459259033203,-24.63237762451172,55.974613189697266
0,1857919,110.18870544433594,50.51725387573242,60.510318756103516,26.233400344848633
0,1857922,-18.58564567565918,-29.281532287597656,14.25783634185791,-2.405993938446045
0,1857923,-111.14720916748047,-69.73141479492188,-173.92727661132812,-82.87557983398438
0,1857926,39.504981994628906,0.6535719037055969,20.51750946044922,-16.536636352539062
0,1857927,21.88818359375,-6.3583807945251465,108.44823455810547,88.56123352050781
0,1857930,-30.703022003173828,2.3922083377838135,-29.149812698364258,-88.12427520751953
0,1857931,11.943601608276367,46.09970474243164,12.063042640686035,-88.97882080078125
0,1857932,12.403257369995117,29.64543914794922,20.324260711669922,113.41870880126953
0,1857935,-11.398751258850098,-24.5200138092041,-25.352754592895508,50.696632385253906
0,1857936,26.190673828125,-6.42934513092041,2.631183624267578,-39.9996223449707
0,1857939,9.06590461730957,73.58338165283203,35.161197662353516,-69.6069107055664
0,1857940,-39.62004089355469,-4.999236106872559,-34.26423645019531,-99.3389892578125
0,1857943,14.82841682434082,-83.20696258544922,-13.042684555053711,129.39013671875
0,1857944,52.999000549316406,21.885242462158203,55.13780212402344,89.09660339355469
0,1857947,-23.85465431213379,34.440277099609375,-20.3779296875,-15.95470905303955
0,1857948,-80.40829467773438,-64.96773529052734,-77.44667053222656,78.64651489257812
0,1857951,11.523514747619629,-26.19603157043457,-19.025554656982422,-121.0035629272461
0,1857952,29.420351028442383,55.59746170043945,72.66783905029297,-99.59645080566406
0,1857955,-9.87427043914795,12.336231231689453,38.87214279174805,118.93952941894531
0,1857956,11.036909103393555,-28.723657608032227,-44.17599868774414,92.43639373779297
0,1857959,-1.028296709060669,-9.678393363952637,-49.3659553527832,-111.04277801513672
0,1857960,0.9473885893821716,11.129386901855469,-40.1231803894043,-180.2137451171875
0,1857963,14.387052536010742,31.976947784423828,113.92350006103516,176.07412719726562
0,1857964,35.224708557128906,22.250722885131836,175.13844299316406,180.1276092529297
0,1857969,-4.746898651123047,-20.568429946899414,-111.13269805908203,-245.6400604248047
0,1857969,-39.44020080566406,-27.667831420898438,-147.5140380859375,-165.91995239257812
0,1857971,-4.599177837371826,-3.657148599624634,7.00835657119751,122.27102661132812
0,1857974,-2.7028629779815674,-29.933074951171875,-9.373563766479492,151.36483764648438
0,1857975,-6.21980619430542,-3.703481912612915,31.1865291595459,84.08226013183594
0,1857978,-10.884471893310547,59.06183624267578,62.26905822753906,-61.970062255859375
0,1857979,37.4544677734375,12.568462371826172,13.21994686126709,-61.29832458496094
0,1857982,3.9029767513275146,-24.84014320373535,-86.56475830078125,-3.0276598930358887
0,1857983,-38.99250030517578,-13.746392250061035,-72.7268295288086,-36.523040771484375
0,1857986,2.4681429862976074,-53.67033767700195,134.40875244140625,95.6191635131836
0,1857987,22.140066146850586,26.17540740966797,130.08851623535156,101.2449951171875
0,1857990,16.872915267944336,80.52867889404297,-137.8585205078125,-140.1549530029297
0,1857991,-31.222660064697266,-40.553489685058594,-189.4636993408203,-66.38954162597656
0,1857994,10.129778861999512,23.81067657470703,80.03883361816406,11.324347496032715
0,1857995,2.665140151977539,34.677913665771484,140.61900329589844,-20.54874038696289
0,1857998,-12.343744277954102,-86.43397521972656,10.316011428833008,174.59642028808594
0,1857999,-1.8995345830917358,-63.7524528503418,-44.06745910644531,-48.509056091308594
0,1858002,28.65141487121582,45.183860778808594,-35.27787780761719,-150.1539306640625
0,1858003,52.51951599121094,86.30091094970703,29.02190589904785,100.52832794189453
0,1858006,-98.5404052734375,-14.511529922485352,24.25539207458496,-1.6334961652755737
0,1858007,-19.448137283325195,-21.195249557495117,20.39958381652832,-70.25523376464844
0,1858010,81.5008773803711,-4.278580188751221,-42.49079895019531,-38.15026092529297
0,1858011,-27.578523635864258,-18.973718643188477,-22.46599006652832,59.43433380126953
0,1858014,26.837886810302734,44.53487014770508,79.02957153320312,47.118431091308594
0,1858015,19.362478256225586,33.135986328125,-1.3528144359588623,2.998685359954834
0,1858018,-77.99849700927734,-40.26628112792969,-77.62324523925781,25.73957061767578
0,1858019,1.763478398323059,-18.999433517456055,-20.700862884521484,-81.0332260131836
0,1858022,25.027685165405273,-14.711295127868652,33.7158203125,-18.54320526123047
0,1858023,-7.083293437957764,-15.875346183776855,4.196095943450928,-18.142902374267578
0,1858026,-1.1394224166870117,-13.450154304504395,-36.50590133666992,28.618471145629883
0,1858027,-18.431182861328125,-18.948284149169922,-3.360405206680298,117.17256927490234
0,1858030,33.5665397644043,52.74517822265625,65.6527328491211,-3.058614492416382
0,1858031,22.875717163085938,20.212919235229492,17.952821731567383,14.957510948181152
0,1858034,3.1269595623016357,10.22887134552002,-58.33382797241211,-50.93854904174805
0,1858035,-0.34469276666641235,19.712886810302734,-11.978333473205566,-46.12944412231445
0,1858038,-39.56918716430664,-34.1403694152832,48.11288070678711,18.846784591674805
0,1858039,2.8195371627807617,-16.390117645263672,0.6511780023574829,-84.9781265258789
0,1858042,-8.513230323791504,5.780083656311035,-40.657833099365234,78.95951080322266
0,1858043,-17.591596603393555,-9.19914722442627,-15.324915885925293,50.28594970703125
0,1858046,47.39509963989258,4.499488353729248,108.02264404296875,-24.624601364135742
0,1858047,6.283939361572266,43.909332275390625,51.140594482421875,83.48329162597656
0,1858050,-56.41993713378906,6.4806952476501465,-225.82130432128906,-137.6807403564453
0,1858051,-19.479307174682617,-14.328490257263184,-52.222511291503906,-37.85551834106445
0,1858054,45.02973175048828,-58.11763000488281,172.95016479492188,35.16123580932617
0,1858055,4.667609214782715,-74.25834655761719,17.530418395996094,-146.5271759033203
0,1858058,5.895651817321777,75.98899841308594,-41.694759368896484,106.35264587402344
0,1858059,94.76727294921875,91.7280502319336,38.72307586669922,96.55768585205078
0,1858062,-27.4270076751709,-21.02364730834961,3.8837978839874268,19.18205451965332
0,1858063,-110.42288208007812,-35.05155944824219,-98.91876983642578,91.80096435546875
0,1858066,-7.3167243003845215,-42.02629089355469,10.16153335571289,-83.27259826660156
0,1858067,38.69996643066406,-0.0041189296171069145,116.3030776977539,-76.0097427368164
0,1858070,50.16633224487305,59.29297637939453,-18.889211654663086,-90.94400024414062
0,1858071,26.284555435180664,-8.16694164276123,-109.10553741455078,25.93223762512207
0,1858074,-37.24403762817383,-35.46211242675781,16.520055770874023,200.66781616210938
0,1858075,-68.39033508300781,18.06924819946289,97.13713836669922,-7.295652866363525
0,1858078,-9.219342231750488,2.834595203399658,-38.59527587890625,-120.35665893554688
0,1858079,44.14636993408203,-6.051331043243408,-43.92576217651367,-58.22098922729492
0,1858082,5.794020175933838,20.146947860717773,3.129490613937378,60.01244354248047
0,1858083,8.660512924194336,9.870725631713867,24.9815616607666,31.262874603271484
0,1858086,-7.857063293457031,-28.789121627807617,67.33892059326172,-53.06706237792969
0,1858087,-19.085981369018555,-19.043712615966797,-52.20709228515625,37.90742111206055
0,1858090,33.50914001464844,58.6820182800293,-7.8963942527771,-25.795671463012695
0,1858091,-8.42349624633789,15.798291206359863,47.059268951416016,-21.883026123046875
0,1858092,-20.786880493164062,-64.86516571044922,-33.61743927001953,163.19952392578125
0,1858095,24.375816345214844,-16.467147827148438,-22.31725311279297,34.75100326538086
0,1858096,-35.02717971801758,-3.194492816925049,-38.96131134033203,-168.46365356445312
0,1858099,-20.699865341186523,-23.569988250732422,1.6534297466278076,-49.03022003173828
0,1858100,76.0240478515625,33.85882568359375,30.692790985107422,20.511886596679688
0,1858103,-0.5681431293487549,39.035743713378906,-0.8199806213378906,1.804579496383667
0,1858104,-31.801143646240234,-28.564992904663086,19.69744300842285,0.10526864975690842
0,1858107,-0.15761861205101013,-10.389823913574219,-8.879478454589844,12.554387092590332
0,1858108,-8.96381664276123,63.47679901123047,-40.22486877441406,84.073486328125
0,1858111,6.666143417358398,0.5919203758239746,25.410457611083984,-13.532715797424316
0,1858112,22.893157958984375,-69.90332794189453,102.99971008300781,-15.672057151794434
0,1858115,-1.1082834005355835,12.099523544311523,12.473978042602539,35.60297775268555
0,1858116,-57.28631591796875,40.84333419799805,-104.64916229248047,-56.27094650268555
0,1858119,25.271242141723633,-0.7871179580688477,-36.41164779663086,-54.44282913208008
0,1858120,47.36091232299805,-18.618555068969727,-9.957690238952637,-18.812240600585938
0,1858123,-23.079235076904297,-25.319416046142578,9.575263023376465,77.36358642578125
0,1858124,-7.480578899383545,31.353792190551758,96.8282241821289,74.8403549194336
0,1858127,-19.988853454589844,20.234521865844727,-26.819257736206055,-194.2569580078125
0,1858128,-19.459156036376953,-58.177589416503906,-89.79878234863281,-82.50349426269531
0,1858131,51.59747314453125,-16.878856658935547,54.60671615600586,287.2189636230469
0,1858132,2.3788914680480957,-5.408151149749756,14.56533432006836,110.06842803955078
0,1858135,-51.32088088989258,-14.14002513885498,-51.18655014038086,-153.8681640625
0,1858137,-1.003743290901184,32.19019317626953,61.152984619140625,-65.83501434326172
0,1858139,38.72147750854492,43.720298767089844,26.259920120239258,-24.340240478515625
0,1858141,36.36227798461914,21.367904663085938,-74.80198669433594,-46.34204864501953
0,1858143,-43.59447479248047,-0.5989559888839722,24.51419448852539,110.81908416748047
0,1858145,-6.071349620819092,11.114805221557617,52.57712936401367,39.27333450317383
0,1858147,31.483173370361328,-27.81865692138672,-20.09126853942871,-134.7698516845703
0,1858149,-10.225616455078125,-43.084102630615234,-30.448373794555664,51.086997985839844
0,1858151,20.814050674438477,26.01811408996582,-12.016813278198242,24.97317886352539
0,1858153,-6.4284467697143555,26.99661636352539,16.655344009399414,-74.65880584716797
0,1858155,-38.96333694458008,-9.199470520019531,-8.326179504394531,52.15559005737305
0,1858157,-27.21561622619629,-21.793771743774414,-4.979504585266113,60.092708587646484
0,1858159,15.206408500671387,-19.22960090637207,7.067499160766602,-17.687305450439453
0,1858161,46.587039947509766,11.441747665405273,-3.095081090927124,-86.29570770263672
0,1858163,-18.206073760986328,17.885616302490234,38.63742446899414,80.03829956054688
0,1858165,-23.067861557006836,-13.150116920471191,-7.6881022453308105,106.97147369384766
0,1858167,-1.1520195007324219,-16.33030891418457,-45.67392349243164,-127.88021087646484
0,1858169,10.45040512084961,10.390290260314941,10.840170860290527,-35.443572998046875
0,1858171,38.043758392333984,34.146949768066406,20.09307861328125,11.782550811767578
0,1858173,-25.33652114868164,19.519533157348633,21.898670196533203,-27.592529296875
0,1858175,-30.079782485961914,-32.111297607421875,4.68187952041626,73.56800842285156
0,1858177,-8.27606201171875,-50.329750061035156,-43.5551872253418,41.265689849853516
0,1858179,26.509349822998047,-12.447582244873047,-76.62601470947266,-55.77067947387695
0,1858181,70.27771759033203,58.14952850341797,-3.2043445110321045,-160.03884887695312
0,1858183,-17.246070861816406,16.509798049926758,83.95781707763672,98.31493377685547
0,1858185,-44.688968658447266,-49.56684494018555,16.849864959716797,206.2777099609375
0,1858187,-14.801894187927246,21.84958839416504,19.24274253845215,-100.37067413330078
0,1858189,-17.29591178894043,40.99675750732422,27.567398071289062,-57.75214385986328
0,1858191,32.7712516784668,-17.783954620361328,-69.49906158447266,-49.42899703979492
0,1858193,33.01125717163086,-29.71352767944336,3.986750364303589,9.688002586364746
0,1858195,-20.31220054626465,6.789566993713379,64.83805847167969,84.05329895019531
0,1858197,-24.17264747619629,40.70844268798828,12.963482856750488,39.77503204345703
0,1858199,-2.2997729778289795,-5.180999279022217,-73.31790161132812,-42.14943313598633
0,1858201,6.29768705368042,-50.212135314941406,-96.9802474975586,-191.52479553222656
0,1858203,-3.421504020690918,1.2130732536315918,107.43374633789062,137.5381317138672
0,1858205,16.894819259643555,29.198638916015625,69.02593994140625,172.9562225341797
0,1858207,-8.520219802856445,-16.073200225830078,-102.58659362792969,-143.2496337890625
0,1858209,-34.8457145690918,-33.612091064453125,-8.408878326416016,-46.31149673461914
0,1858211,41.63633728027344,24.005210876464844,22.03997230529785,5.803195476531982
0,1858213,44.63804244995117,35.74942398071289,-8.318217277526855,-0.9483648538589478
0,1858215,-27.946807861328125,-11.26651382446289,13.264074325561523,64.4262924194336
0,1858217,-40.385963439941406,-21.842782974243164,13.179052352905273,17.506492614746094
0,1858219,10.507315635681152,11.869120597839355,21.340072631835938,-65.16100311279297
0,1858221,35.08427810668945,26.86962127685547,-5.951163291931152,-49.05813217163086
0,1858223,-25.164506912231445,-15.053689002990723,-0.581758439540863,78.22744750976562
0,1858225,-29.436721801757812,-13.082818031311035,-13.5618896484375,39.591617584228516
0,1858227,35.48838424682617,9.368329048156738,-30.381061553955078,-56.59096908569336
0,1858229,14.950654983520508,-31.62480926513672,7.89483118057251,-1.2986924648284912
0,1858231,-16.9263973236084,-13.476025581359863,-9.745118141174316,-36.37627410888672
0,1858233,5.095055103302002,55.846378326416016,17.010318756103516,7.721299171447754
0,1858235,-4.636233329772949,1.8887434005737305,17.67177963256836,59.7019157409668
0,1858237,-48.084327697753906,-59.47856903076172,-7.45952033996582,-34.71598434448242
0,1858239,5.912227153778076,12.266131401062012,21.3767147064209,-6.357748985290527
0,1858241,67.57671356201172,50.22578430175781,-60.02390670776367,-6.5889811515808105
0,1858243,-17.547616958618164,10.94994068145752,-10.175498008728027,53.67544174194336
0,1858245,-25.046728134155273,3.6110353469848633,99.8429183959961,71.3885726928711
0,1858247,14.849506378173828,-26.658578872680664,-14.473834991455078,-166.99417114257812
0,1858249,-1.9079668521881104,-15.72378921508789,-52.77769088745117,-60.75325012207031
0,1858251,8.001656532287598,13.522686958312988,-19.138044357299805,121.12410736083984
0,1858253,2.7702229022979736,-0.8300744891166687,26.410606384277344,21.098873138427734
0,1858255,-15.565816879272461,11.100668907165527,57.039154052734375,26.203472137451172
0,1858257,-17.092830657958984,9.015305519104004,2.053631544113159,0.5766884684562683
0,1858259,29.9904727935791,-7.738204479217529,-54.261173248291016,-59.79920196533203
0,1858261,35.90898895263672,-51.622047424316406,-58.09782028198242,-29.855104446411133
0,1858263,-59.80315399169922,-30.413105010986328,42.214603424072266,51.240013122558594
0,1858265,-27.51841926574707,59.16185760498047,50.847476959228516,48.30089569091797
0,1858267,37.60546875,23.1561279296875,-33.47488021850586,-39.9030876159668
0,1858269,-3.810947895050049,-38.696510314941406,-21.430580139160156,-13.65648078918457
0,1858271,5.613087177276611,-0.21073953807353973,11.234416007995605,-38.86968994140625
0,1858273,3.651331663131714,20.720535278320312,2.2465035915374756,-21.320446014404297
0,1858275,4.362966537475586,11.373359680175781,7.696510314941406,68.03762817382812
0,1858277,16.84885597229004,20.901317596435547,59.92322540283203,23.021787643432617
0,1858279,-3.3724918365478516,-16.380712509155273,-8.869138717651367,-45.26308822631836
0,1858281,-5.528588771820068,-25.427417755126953,-87.7600326538086,-52.728546142578125
0,1858283,-25.798480987548828,10.758644104003906,14.859131813049316,84.93973541259766
0,1858285,-15.704075813293457,-12.867949485778809,39.0983772277832,72.50326538085938
0,1858287,23.98113250732422,-8.544116973876953,-16.19463348388672,-91.17095184326172
0,1858289,-4.035982608795166,-1.7368415594100952,-4.089541435241699,-32.8113899230957
0,1858291,1.4893970489501953,-17.348712921142578,17.356576919555664,-46.33650207519531
0,1858293,6.657767295837402,-5.746559143066406,-10.689504623413086,-46.012176513671875
0,1858295,-4.095205307006836,44.840850830078125,-76.60637664794922,168.96937561035156
0,1858297,37.001129150390625,59.97824478149414,38.47291946411133,118.03834533691406
0,1858299,-7.664924144744873,-21.691539764404297,93.16991424560547,-157.3079833984375
0,1858301,-37.579994201660156,-35.290008544921875,-48.330909729003906,-151.10348510742188
0,1858303,7.219326019287109,-12.339107513427734,-5.0114521980285645,158.95570373535156
0,1858305,15.195426940917969,-1.1858367919921875,26.174346923828125,129.12924194335938
0,1858307,6.135995864868164,32.48369216918945,-22.286911010742188,-128.58563232421875
0,1858309,-4.437887668609619,8.464129447937012,-6.258647441864014,-4.981321811676025
0,1858311,8.818914413452148,-29.46949005126953,-10.242941856384277,-2.8685250282287598
0,1858313,-16.784896850585938,-25.757118225097656,-24.165393829345703,-112.63343811035156
0,1858316,-52.628143310546875,-9.40585994720459,22.857439041137695,8.803919792175293
0,1858317,-14.222193717956543,10.276272773742676,48.7645378112793,58.61712646484375
0,1858320,54.61492919921875,7.374739646911621,-28.807706832885742,21.446353912353516
0,1858321,36.77088165283203,0.06127755716443062,-24.529827117919922,-10.51663589477539
0,1858322,-33.01245880126953,25.802812576293945,19.769302368164062,35.981964111328125
0,1858326,-27.43452262878418,5.477727890014648,-7.992138862609863,106.40850830078125
0,1858327,18.30706024169922,-36.15264129638672,-7.83698844909668,-65.15682983398438
0,1858330,58.88777160644531,-8.789448738098145,-0.96942538022995,-143.9669952392578
0,1858331,-1.0772106647491455,51.531837463378906,6.952553749084473,69.86880493164062
0,1858334,-30.351255416870117,25.22357177734375,7.515511512756348,116.68701171875
0,1858335,-0.18888619542121887,-29.244741439819336,1.3143436908721924,30.0938720703125
0,1858338,-3.0436084270477295,-6.476840496063232,-3.40899395942688,-95.500244140625
0,1858339,2.1397342681884766,0.3969404697418213,-10.92313289642334,-109.07694244384766
0,1858342,-23.33155059814453,-7.15718936920166,17.419300079345703,104.21630096435547
0,1858343,-26.26177978515625,-28.65273094177246,-0.8380391597747803,42.81268310546875
0,1858346,-12.105731010437012,-27.98125648498535,-1.6698275804519653,-101.32527160644531
0,1858347,15.333202362060547,21.98186492919922,-5.83953332901001,-27.92291259765625
0,1858350,42.61643981933594,49.37571334838867,-11.191887855529785,-11.055904388427734
0,1858351,4.891709327697754,16.914539337158203,31.014772415161133,52.62540817260742
0,1858354,-5.4132161140441895,-46.303466796875,-31.105459213256836,55.07290267944336
0,1858355,-2.767244815826416,-12.433155059814453,-2.638213634490967,40.64718246459961
0,1858358,-13.179956436157227,29.75858497619629,57.31308364868164,-75.4532470703125
0,1858359,8.617222785949707,-15.545234680175781,-38.76636505126953,-176.4951171875
0,1858362,-3.4826109409332275,-18.931291580200195,-29.2586612701416,143.37709045410156
0,1858363,5.337691783905029,38.72158432006836,30.097719192504883,164.34169006347656
0,1858366,14.341065406799316,1.509655237197876,-9.499500274658203,-44.82278823852539
0,1858367,11.882146835327148,-25.112512588500977,-3.9852092266082764,-54.16004943847656
0,1858370,9.432597160339355,58.25469970703125,29.75082015991211,-64.79208374023438
0,1858371,-48.55770492553711,-0.23538972437381744,-28.072586059570312,0.7880796194076538
0,1858374,-22.37729263305664,-71.59990692138672,-37.30671691894531,10.614798545837402
0,1858375,18.904296875,4.658380031585693,63.785308837890625,15.282801628112793
0,1858378,11.733978271484375,24.10197639465332,23.857906341552734,35.080936431884766
0,1858379,24.519994735717773,-24.816930770874023,-85.43206787109375,-28.616769790649414
0,1858382,-32.04644775390625,-11.095815658569336,18.640853881835938,4.268518924713135
0,1858383,-20.883237838745117,43.6441650390625,78.38192749023438,4.745431900024414
0,1858386,30.9744930267334,9.928947448730469,-24.38248062133789,-10.438935279846191
0,1858387,4.456202983856201,-37.04398727416992,-46.37248229980469,48.2652473449707
0,1858390,-0.37956246733665466,2.8428587913513184,-8.293647766113281,-56.145076751708984
0,1858391,-3.4377713203430176,24.063507080078125,14.244004249572754,-46.678707122802734
0,1858394,12.718957901000977,5.0015339851379395,23.42190933227539,60.78813171386719
0,1858395,-1.5487823486328125,1.7215081453323364,5.769376277923584,26.869325637817383
0,1858398,-3.1791937351226807,-27.197956085205078,-42.0192985534668,-4.982969284057617
0,1858399,18.30567169189453,-53.87025833129883,-29.81440544128418,-87.07437896728516
0,1858402,-42.699989318847656,33.82236862182617,42.65633010864258,30.21952247619629
0,1858403,-38.29708480834961,79.21887969970703,41.9318733215332,114.23310852050781
0,1858406,38.963497161865234,-17.294591903686523,-4.179418563842773,-45.9947509765625
0,1858407,26.77865982055664,-17.397733688354492,-17.245426177978516,-76.11207580566406
0,1858410,-6.75574254989624,4.865481853485107,-12.74234676361084,-45.957176208496094
0,1858411,-4.66800594329834,-57.35470199584961,3.515981674194336,49.18272018432617
0,1858414,-18.02715301513672,-20.681896209716797,-15.737131118774414,47.99669647216797
0,1858415,-7.916078567504883,50.306396484375,-1.7729285955429077,-8.11823558807373
0,1858418,29.0665340423584,50.02243423461914,33.06414794921875,28.73101806640625
0,1858419,29.002805709838867,-9.001315116882324,-10.845680236816406,-33.31399154663086
0,1858422,-22.372175216674805,-27.44027328491211,5.7809624671936035,33.1666145324707
0,1858423,-4.006779670715332,4.812849998474121,28.545331954956055,31.17749786376953
0,1858426,-13.975105285644531,-28.009000778198242,-19.952863693237305,-93.6958999633789
0,1858427,-13.862648963928223,-16.741159439086914,-38.84865951538086,-10.238555908203125
0,1858430,54.110435485839844,34.5153923034668,-0.2990797758102417,50.5834846496582
0,1858431,-29.05842399597168,-11.24071979522705,49.282073974609375,0.2518814504146576
0,1858434,-28.770732879638672,-11.287971496582031,-38.526790618896484,-63.184295654296875
0,1858435,40.066715240478516,37.79274368286133,-48.20732116699219,49.802547454833984
0,1858438,-12.299494743347168,-17.0461483001709,51.1913948059082,66.50654602050781
0,1858439,-22.850147247314453,-35.757137298583984,3.466292142868042,-4.692449569702148
0,1858442,28.741134643554688,52.7336540222168,20.809749603271484,25.97845458984375
0,1858443,33.18143844604492,39.63011932373047,24.75115966796875,-220.34603881835938
0,1858446,-51.385955810546875,-65.44332122802734,-56.35018539428711,19.393815994262695
0,1858447,-29.207839965820312,-10.18577766418457,-10.826491355895996,285.364990234375
0,1858450,44.81198501586914,44.81570816040039,23.881635665893555,-215.8034210205078
0,1858451,4.958376884460449,-6.489546298980713,10.617382049560547,-137.8707275390625
0,1858454,-20.981660842895508,-23.561077117919922,-10.341984748840332,209.5227508544922
0,1858455,-6.6732988357543945,-16.328479766845703,-22.972000122070312,83.52175903320312
0,1858458,35.29359436035156,25.8689022064209,21.136932373046875,-71.2450942993164
0,1858459,16.36524200439453,7.582496643066406,5.787678241729736,-85.78160858154297
0,1858462,-38.6596565246582,-13.309029579162598,-19.101716995239258,74.6191177368164
0,1858463,-2.1989495754241943,-9.141045570373535,-8.578351020812988,15.04336929321289
0,1858466,-10.31436824798584,-14.25234603881836,18.002944946289062,-56.87612533569336
0,1858467,-8.01729965209961,36.7929801940918,19.23997688293457,48.09108352661133
0,1858470,40.79701232910156,-6.518143653869629,-24.81454086303711,-15.084989547729492
0,1858471,-7.754158020019531,-55.283016204833984,1.1543649435043335,-35.468807220458984
0,1858474,-17.657062530517578,27.788015365600586,18.830135345458984,-22.104246139526367
0,1858475,1.7537956237792969,50.04095458984375,10.147492408752441,31.00193214416504
0,1858478,-11.270905494689941,7.723133563995361,-8.363507270812988,32.84932327270508
0,1858479,15.149635314941406,-19.48491859436035,-18.27708625793457,-100.57198333740234
0,1858482,-6.487196445465088,-34.27964401245117,10.605031967163086,69.72305297851562
0,1858483,1.9251153469085693,9.188871383666992,-0.4367232024669647,120.35462951660156
0,1858486,14.326645851135254,29.007041931152344,1.7682979106903076,-114.3598861694336
0,1858487,-13.568973541259766,-5.8134541511535645,-11.137043952941895,-90.35916900634766
0,1858490,-2.1878702640533447,-48.003265380859375,-17.875896453857422,57.22269058227539
0,1858491,-13.798637390136719,-14.657550811767578,30.178560256958008,94.99431610107422
0,1858494,20.443397521972656,55.89274215698242,7.416741371154785,-41.179840087890625
0,1858495,15.223297119140625,31.147912979125977,1.5154908895492554,-42.06000518798828
0,1858496,-40.310726165771484,-29.2010498046875,7.738272190093994,119.78876495361328
0,1858499,37.815399169921875,-31.86233139038086,-26.381736755371094,-85.66043853759766
0,1858500,54.849674224853516,11.301533699035645,-25.44316291809082,-183.68943786621094
0,1858503,-58.46296691894531,-5.103752613067627,-6.390224456787109,104.35675811767578
0,1858504,-22.923959732055664,-17.066905975341797,18.487186431884766,97.61221313476562
0,1858507,48.933860778808594,42.17613983154297,26.784900665283203,-13.435525894165039
0,1858508,-3.7850868701934814,49.725852966308594,8.33556079864502,49.810787200927734
0,1858511,-17.765602111816406,-11.945466995239258,-10.47957992553711,0.6623420715332031
0,1858512,-8.954697608947754,-30.130340576171875,18.312612533569336,-32.1926155090332
0,1858515,-48.160892486572266,-26.35902976989746,-16.371389389038086,-28.396635055541992
0,1858516,-27.51104164123535,-5.078608989715576,-16.0937557220459,-19.896869659423828
0,1858519,73.75154113769531,18.141639709472656,40.03192138671875,13.824739456176758
0,1858520,56.96293640136719,-19.231765747070312,-39.42555618286133,-59.66328811645508
0,1858525,-108.42168426513672,-0.5761073231697083,-7.734642505645752,115.22926330566406
0,1858525,-46.9331169128418,14.959809303283691,25.183982849121094,87.85693359375
0,1858526,118.4749984741211,3.9407269954681396,-47.822662353515625,-208.29100036621094
0,1858529,31.549711227416992,13.288923263549805,16.305824279785156,-25.463340759277344
0,1858530,-48.52703857421875,-21.00872039794922,37.14897155761719,78.02717590332031
0,1858533,6.972768783569336,-27.41095542907715,-22.970312118530273,-15.978704452514648
0,1858534,4.568523406982422,14.160958290100098,-7.30004358291626,55.386539459228516
0,1858537,-32.308563232421875,40.755367279052734,18.403587341308594,-1.577596664428711
0,1858538,28.237924575805664,-2.3501763343811035,0.20457668602466583,-83.5576400756836
0,1858541,42.90206527709961,-35.186397552490234,-4.837405681610107,40.331214904785156
0,1858542,-25.59349822998047,11.683761596679688,-30.35552406311035,26.15952491760254
0,1858545,-48.08887481689453,21.404218673706055,21.78444480895996,-28.702909469604492
0,1858546,-11.749195098876953,-12.226072311401367,52.239967346191406,24.65199089050293
0,1858549,16.85327911376953,-16.810829162597656,-33.188419342041016,-6.013367176055908
0,1858550,6.649804592132568,-1.6952250003814697,-6.629302024841309,-0.08015462756156921
0,1858553,13.018598556518555,11.967131614685059,-12.983843803405762,22.184080123901367
0,1858554,-7.574527263641357,0.6265757083892822,3.1526236534118652,37.50151443481445
0,1858557,-22.849130630493164,8.665066719055176,43.785675048828125,-17.6440486907959
0,1858558,19.979406356811523,8.021154403686523,-30.786808013916016,-122.19816589355469
0,1858561,38.228416442871094,-34.61094284057617,-58.3359375,10.187544822692871
0,1858562,18.564573287963867,0.38761022686958313,-2.5550107955932617,76.35153198242188
0,1858565,-49.27473068237305,31.36551856994629,75.2742919921875,-2.4754011631011963
0,1858566,-41.61886215209961,-22.310102462768555,8.923974990844727,9.90256118774414
0,1858569,52.99628829956055,2.5571024417877197,-44.316802978515625,10.737174034118652
0,1858570,10.456740379333496,25.815778732299805,25.146150588989258,17.61212158203125
0,1858573,-20.75399398803711,-18.090965270996094,-16.585262298583984,-47.04029083251953
0,1858574,-7.645533084869385,5.073209762573242,-3.034414529800415,25.84440040588379
0,1858577,-20.975814819335938,7.973689079284668,43.55248260498047,17.760759353637695
0,1858578,14.207529067993164,-11.152156829833984,-37.884525299072266,-150.0345458984375
0,1858581,18.517044067382812,4.701561450958252,-13.729401588439941,75.39999389648438
0,1858582,-3.3813068866729736,6.133838176727295,19.439659118652344,122.53280639648438
0,1858585,-33.998897552490234,-44.3751335144043,-7.262465000152588,-73.84748077392578
0,1858586,2.2545533180236816,-27.66965103149414,7.743809700012207,-3.739210844039917
0,1858589,40.44292068481445,62.76518630981445,-2.832883596420288,-14.176766395568848
0,1858590,-12.164541244506836,33.74544906616211,3.8873095512390137,-6.515247344970703
0,1858593,8.111002922058105,-26.21582794189453,-4.411591053009033,27.12920379638672
0,1858594,2.8450067043304443,-21.50279998779297,10.113968849182129,-6.046988010406494
0,1858597,-45.75117492675781,19.596010208129883,10.856334686279297,-2.045762300491333
0,1858598,31.56243133544922,-12.689045906066895,-31.922197341918945,-71.19364166259766
0,1858601,31.062602996826172,-21.69452476501465,-5.706075191497803,29.612831115722656
0,1858602,-42.56829833984375,34.82004928588867,5.992706775665283,58.51725769042969
0,1858605,-2.9401047229766846,8.537785530090332,11.053675651550293,-29.17732048034668
0,1858606,37.761207580566406,-12.367254257202148,-3.094555139541626,0.5213100910186768
0,1858609,4.416757583618164,-4.1730055809021,-0.08416306227445602,-12.238164901733398
0,1858610,-14.90555191040039,8.662211418151855,15.06546401977539,46.568199157714844
0,1858613,13.297723770141602,-22.550809860229492,-30.284149169921875,-9.338868141174316
0,1858614,-20.462217330932617,-5.333253383636475,13.161078453063965,-6.052000522613525
0,1858617,-35.9168701171875,17.344846725463867,30.11375617980957,27.345848083496094
0,1858618,28.202444076538086,-42.491939544677734,-27.22200584411621,-102.75601196289062
0,1858621,20.155269622802734,19.714004516601562,-18.800844192504883,29.0653133392334
0,1858622,9.024405479431152,51.333560943603516,18.134544372558594,71.43436431884766
0,1858625,-20.19657325744629,-22.298503875732422,14.08397102355957,-24.522001266479492
0,1858626,-40.36472702026367,-2.4707448482513428,-7.517980098724365,6.565245151519775
0,1858629,35.018836975097656,9.225591659545898,-10.37833309173584,-39.244789123535156
0,1858630,10.573981285095215,-27.462560653686523,-15.43998908996582,2.2169137001037598
0,1858633,-32.73982238769531,-11.194977760314941,-7.368500709533691,49.317962646484375
0,1858634,-16.001630783081055,28.41110610961914,12.79448413848877,16.357376098632812
0,1858637,9.674381256103516,7.438982963562012,54.690101623535156,-27.662038803100586
0,1858638,42.232337951660156,-18.90008544921875,13.190497398376465,-80.90325164794922
0,1858641,10.475128173828125,18.815311431884766,-76.15497589111328,28.6334285736084
0,1858642,-22.3459415435791,2.5309512615203857,-14.320172309875488,45.64299011230469
0,1858645,-5.644441604614258,-18.176719665527344,60.13615417480469,-10.114425659179688
0,1858646,7.928206920623779,21.392623901367188,10.337443351745605,-2.000439405441284
0,1858649,-10.66401481628418,-18.154165267944336,-39.89932632446289,-40.37075424194336
0,1858650,-2.442547082901001,-27.153032302856445,-17.825422286987305,6.875261306762695
0,1858653,39.900543212890625,9.654430389404297,27.207134246826172,38.66538619995117
0,1858654,-14.852136611938477,-4.145641326904297,6.768043041229248,48.50078201293945
0,1858657,-56.058563232421875,13.144278526306152,-31.26119613647461,-32.88175964355469
0,1858658,31.25722885131836,5.174497604370117,1.0232263803482056,-111.75698852539062
0,1858661,40.88475036621094,14.93281078338623,37.09895324707031,70.23986053466797
0,1858662,-12.240121841430664,21.372770309448242,-0.786052942276001,92.18338775634766
0,1858665,-25.51629638671875,-22.88423728942871,-16.041885375976562,-38.85063552856445
0,1858666,-14.439652442932129,-29.894351959228516,4.461766242980957,-20.04293441772461
0,1858669,21.976940155029297,11.714890480041504,4.486496925354004,-46.31221008300781
0,1858670,16.412723541259766,30.141603469848633,15.722060203552246,0.7920376062393188
0,1858673,11.692363739013672,-11.5845365524292,-20.825416564941406,49.52808380126953
0,1858674,-13.146510124206543,23.095455169677734,-3.8495090007781982,17.730751037597656
0,1858677,-33.689266204833984,7.68295955657959,18.407527923583984,-3.0237174034118652
0,1858678,3.002302408218384,-64.64856719970703,-30.896705627441406,-84.28173065185547
0,1858681,4.846816539764404,-17.814170837402344,-3.2831478118896484,-52.80528259277344
0,1858682,4.041933059692383,14.644850730895996,8.238422393798828,45.100196838378906
0,1858685,-2.7108490467071533,16.494415283203125,11.688904762268066,135.0244140625
0,1858686,1.8827017545700073,4.538131237030029,19.169130325317383,20.607982635498047
0,1858689,8.183955192565918,-2.239278554916382,-16.607620239257812,-141.7321319580078
0,1858690,-5.662066459655762,34.79262924194336,-7.542579174041748,1.6396434307098389
0,1858693,11.40733528137207,17.136240005493164,-3.7173070907592773,49.79701614379883
0,1858694,10.159774780273438,-25.522441864013672,10.310348510742188,9.750027656555176
0,1858697,-18.493799209594727,-31.65545082092285,3.5974831581115723,2.0089917182922363
0,1858698,1.6355023384094238,-4.802387237548828,-22.263484954833984,-58.51758575439453
0,1858701,8.709918975830078,27.490264892578125,0.36113235354423523,54.46065902709961
0,1858702,-10.132439613342285,14.479241371154785,2.5037362575531006,65.57305908203125
0,1858705,-7.815960884094238,-13.496784210205078,11.18833065032959,-52.31132888793945
0,1858707,6.107285499572754,-3.339139699935913,12.817296981811523,-42.73707580566406
0,1858709,29.48951530456543,7.739870548248291,-10.949841499328613,-48.934814453125
0,1858711,-24.396495819091797,-13.443537712097168,-12.474740028381348,13.008971214294434
0,1858713,-20.99272918701172,-30.430986404418945,-5.614987373352051,32.00129699707031
0,1858715,12.754566192626953,-9.399168968200684,15.864739418029785,23.893152236938477
0,1858717,4.512231349945068,27.22846221923828,1.565288782119751,-2.2749228477478027
0,1858719,24.498201370239258,9.043617248535156,-1.158380150794983,-64.30699157714844
0,1858721,-31.859601974487305,5.094089031219482,31.566238403320312,103.78873443603516
0,1858723,-25.797752380371094,6.384795665740967,-20.787433624267578,70.7643814086914
0,1858725,18.648752212524414,-7.275698184967041,-20.834840774536133,-99.0631332397461
0,1858727,-1.4584697484970093,8.758718490600586,10.792933464050293,-30.219511032104492
0,1858729,23.368009567260742,-19.01173973083496,8.10202407836914,-25.219745635986328
0,1858731,18.465118408203125,-6.474881649017334,13.00833797454834,-5.97670841217041
0,1858734,-18.779870986938477,22.977407455444336,-34.983455657958984,12.024434089660645
1,1858737,-5.946967124938965,3.7482190132141113,-27.290904998779297,-14.910643577575684
1,1858737,3.0348496437072754,-15.773575782775879,38.60686492919922,70.33729553222656
1,1858740,-6.780750274658203,-11.758160591125488,20.19742202758789,55.09564208984375
1,1858741,1.1738295555114746,28.05135154724121,-24.80588150024414,-39.53915023803711
1,1858744,-17.01569175720215,5.960463523864746,22.300256729125977,10.16170883178711
1,1858745,-5.994996547698975,-21.3560848236084,17.035654067993164,-7.426012992858887
1,1858748,39.8322868347168,0.9410982728004456,-38.98960494995117,-73.0121078491211
1,1858749,5.4700164794921875,-4.620668888092041,-13.695364952087402,-5.889908313751221
1,1858752,-7.815219402313232,-1.2218255996704102,1.76539146900177,-6.651732444763184
1,1858753,3.5071828365325928,12.753883361816406,-0.31887125968933105,33.967506408691406
1,1858756,-11.305500030517578,-9.71422004699707,11.47329330444336,60.702980041503906
1,1858757,-15.360034942626953,-10.923110961914062,9.887887954711914,-34.377933502197266
1,1858760,2.0513408184051514,37.19961929321289,9.945902824401855,-5.499819278717041
1,1858761,34.44911575317383,2.7391741275787354,4.0474348068237305,26.10675811767578
1,1858764,-11.797016143798828,-36.373538970947266,3.0718142986297607,-26.499065399169922
1,1858765,-23.41449546813965,13.950705528259277,-13.978689193725586,-13.315848350524902
1,1858768,10.146889686584473,-1.811893105506897,-19.984445571899414,1.3576760292053223
1,1858769,-5.076755046844482,-34.99446487426758,21.859825134277344,-13.752171516418457
1,1858772,7.202794551849365,10.930375099182129,-1.5678011178970337,-23.04942512512207
1,1858773,-4.121212959289551,41.48046875,-22.077564239501953,19.93064308166504
1,1858776,-1.0475642681121826,-3.245940923690796,1.832867980003357,54.24304962158203
1,1858777,-1.6648073196411133,-4.350969314575195,6.256265163421631,-13.584024429321289
1,1858780,-14.114058494567871,18.22829246520996,20.47452735900879,-34.97917938232422
1,1858781,38.82634735107422,-26.81553840637207,-5.719978332519531,-9.465723037719727
1,1858784,-4.139669418334961,-4.151856422424316,-0.15584661066532135,71.57769012451172
1,1858785,-46.129859924316406,30.0096492767334,19.556697845458984,14.685293197631836
1,1858788,-5.616032123565674,-24.061065673828125,-31.656429290771484,-96.20093536376953
1,1858789,25.43649673461914,-9.582850456237793,-13.570781707763672,7.156011581420898
1,1858792,43.415103912353516,38.1801643371582,13.07734203338623,-8.04409122467041
1,1858793,-39.05316925048828,-47.47608184814453,-6.607247352600098,-27.626375198364258
1,1858796,-33.89541244506836,-36.32170104980469,12.816649436950684,67.93923950195312
1,1858797,53.10926055908203,71.56159973144531,24.172889709472656,32.55731201171875
1,1858800,11.595220565795898,-6.6439900398254395,-17.082143783569336,-19.079126358032227
1,1858801,-16.650047302246094,-29.51878547668457,-39.02560806274414,-18.050823211669922
1,1858804,-20.97561264038086,20.748889923095703,24.824831008911133,8.48946475982666
1,1858805,-10.11956787109375,-16.106332778930664,30.783199310302734,14.284968376159668
1,1858808,28.162452697753906,-11.647650718688965,-14.073650360107422,-30.00648307800293
1,1858809,3.3270153999328613,17.718700408935547,-26.917144775390625,-3.958252191543579
1,1858812,-4.521658897399902,10.310637474060059,-18.333566665649414,-20.734161376953125
1,1858813,2.5002801418304443,5.341350078582764,23.170881271362305,17.296836853027344
1,1858816,-8.49111270904541,19.820480346679688,17.307514190673828,89.64324188232422
1,1858817,15.474562644958496,-8.190844535827637,14.131417274475098,-64.3796157836914
1,1858820,10.321318626403809,-26.716657638549805,0.06559134274721146,-84.71978759765625
1,1858821,-21.95742416381836,16.519500732421875,-17.046024322509766,47.51103210449219
1,1858824,-31.520761489868164,1.6705965995788574,22.177289962768555,71.26787567138672
1,1858825,1.829807162284851,-27.18225860595703,-17.777494430541992,-9.930429458618164
1,1858828,47.75518798828125,9.728750228881836,-20.10758399963379,-59.154232025146484
1,1858829,-3.4203903675079346,5.188342094421387,29.9865665435791,8.85561752319336
1,1858832,-35.52837371826172,-8.72772216796875,-28.221027374267578,-21.506492614746094
1,1858833,12.228646278381348,8.911949157714844,-24.71149253845215,33.942745208740234
1,1858836,11.34892749786377,-1.7519735097885132,24.26171112060547,98.32077026367188
1,1858837,-10.251956939697266,-9.02911376953125,20.265483856201172,-80.20477294921875
1,1858840,-11.64810848236084,-5.697604656219482,0.09668980538845062,-71.46074676513672
1,1858841,19.194292068481445,10.025571823120117,-18.1690673828125,69.82620239257812
1,1858844,4.971600532531738,17.9903621673584,13.985697746276855,-13.200892448425293
1,1858845,-21.051584243774414,-18.47336769104004,-6.5511603355407715,-71.86756134033203
1,1858848,17.34768295288086,-18.507192611694336,-3.3742055892944336,46.83216857910156
1,1858849,16.56646728515625,44.28032302856445,44.65462112426758,154.03338623046875
1,1858852,-15.651970863342285,12.584332466125488,-25.559274673461914,-78.77013397216797
1,1858853,-31.478788375854492,-52.368141174316406,-38.563453674316406,-180.71810913085938
1,1858856,4.396925926208496,-9.147452354431152,15.207985877990723,138.35855102539062
1,1858857,28.528635025024414,15.706570625305176,12.87946605682373,35.961891174316406
1,1858860,19.800098419189453,28.78685188293457,2.0132601261138916,-117.77703094482422
1,1858861,16.694904327392578,19.047836303710938,-26.09674644470215,64.25672149658203
1,1858864,-40.72108459472656,-22.658329010009766,7.444396018981934,77.16270446777344
1,1858865,-20.934329986572266,-3.3769264221191406,36.33946228027344,-21.652908325195312
1,1858868,24.326759338378906,-1.1383967399597168,-14.542512893676758,-58.13627624511719
1,1858869,-10.666162490844727,-5.95738410949707,-7.042877674102783,-19.008081436157227
1,1858872,16.516632080078125,26.183351516723633,7.452841758728027,1.470183253288269
1,1858873,14.258548736572266,-12.484455108642578,-10.764931678771973,20.502412796020508
1,1858876,-23.592193603515625,-20.429298400878906,9.61967945098877,54.616302490234375
1,1858877,-25.104999542236328,8.596531867980957,5.563766002655029,-25.36569595336914
1,1858880,0.7010225057601929,-21.433427810668945,-23.268362045288086,-59.86119842529297
1,1858881,25.15955352783203,-10.378321647644043,-15.010350227355957,18.768264770507812
1,1858884,-24.011232376098633,22.70404052734375,27.837295532226562,54.41842269897461
1,1858885,-4.844346523284912,15.672161102294922,14.431358337402344,4.496792316436768
1,1858888,23.804031372070312,-28.334545135498047,-27.69843864440918,-56.42133331298828
1,1858889,-6.818558692932129,-2.0412425994873047,4.3027849197387695,5.221473693847656
1,1858892,32.698524475097656,35.75705337524414,8.852386474609375,11.565166473388672
1,1858893,4.779024600982666,-15.25445556640625,-13.132685661315918,7.337636470794678
1,1858896,-40.76302719116211,8.354073524475098,11.76989459991455,23.17452621459961
1,1858897,1.598281979560852,37.236576080322266,29.463638305664062,-49.78596115112305
1,1858900,12.698216438293457,-41.03392028808594,-23.423120498657227,-11.501861572265625
1,1858901,8.496932983398438,-26.33771514892578,-45.748748779296875,21.221967697143555
1,1858904,-2.969952344894409,28.548851013183594,33.24958419799805,27.563486099243164
1,1858905,-10.814605712890625,-9.898263931274414,28.906322479248047,9.212100982666016
1,1858908,0.07641232758760452,-8.48189640045166,-27.91607093811035,-45.47634506225586
1,1858909,10.912110328674316,19.374149322509766,-4.7063775062561035,6.354376316070557
1,1858912,24.280885696411133,-6.528348922729492,5.4092817306518555,-12.715487480163574
1,1858913,-17.90506362915039,0.030354337766766548,8.762064933776855,12.52157211303711
1,1858916,-44.836395263671875,10.84874439239502,13.369977951049805,74.86630249023438
1,1858917,6.5724568367004395,-18.96179962158203,-0.5515267252922058,-46.14617919921875
1,1858920,36.68224334716797,6.035425662994385,-14.372509956359863,-43.986976623535156
1,1858921,6.899097919464111,17.03131103515625,-14.240570068359375,54.24844741821289
1,1858924,-23.331607818603516,-17.581876754760742,10.740925788879395,45.146793365478516
1,1858925,-19.824546813964844,-7.005314350128174,-10.179380416870117,-101.2934341430664
1,1858928,13.849189758300781,22.08035659790039,1.4313879013061523,-78.9396743774414
1,1858929,27.64874267578125,1.5205714702606201,26.709409713745117,131.32955932617188
1,1859184,77.51420593261719,-19.80574607849121,-92.99994659423828,-190.68739318847656
1,1859185,42.75052261352539,-3.9455325603485107,-66.84546661376953,-116.23334503173828
1,1859188,-145.78561401367188,5.632040977478027,147.395263671875,530.062255859375
1,1859189,-103.51771545410156,2.616175413131714,122.46915435791016,247.4949493408203
1,1859192,-8.706579208374023,10.60775089263916,11.546616554260254,-172.34506225585938
1,1859749,-4.205625534057617,6.6919846534729,-9.791484832763672,-189.41062927246094
1,1859749,72.1295394897461,-22.710063934326172,-95.09552764892578,-262.8483581542969
1,1859750,66.40754699707031,-12.11943531036377,-89.46576690673828,-155.13330078125
1,1859753,58.186397552490234,-5.047984600067139,3.678474187850952,-81.584716796875
1,1859754,43.507568359375,2.1230669021606445,-6.044693946838379,35.80474090576172
1,1859757,-19.005615234375,36.466880798339844,-32.65642166137695,151.12071228027344
1,1859758,-31.218523025512695,4.206150054931641,6.19911527633667,132.99510192871094
1,1859761,-72.82259368896484,-13.393256187438965,62.17219924926758,266.0915222167969
1,1859762,-68.82478332519531,1.9183533191680908,58.378414154052734,153.78619384765625
1,1859765,-21.074222564697266,-8.13515853881836,28.491985321044922,-109.77099609375
1,1859766,-4.39798641204834,-18.18328857421875,2.761636257171631,-104.7818603515625
1,1859769,50.25846862792969,-4.6619062423706055,-34.65496063232422,-186.16912841796875
1,1859770,71.58460235595703,21.102197647094727,-34.39701843261719,-188.7287139892578
1,1859773,26.62892723083496,0.4911600351333618,-31.427343368530273,10.120577812194824
1,1859774,-19.748275756835938,-13.677592277526855,-36.97475051879883,77.04953002929688
1,1859777,14.104057312011719,22.98887062072754,-1.5997713804244995,31.41775894165039
1,1859778,27.510772705078125,25.745487213134766,33.723419189453125,54.98019027709961
1,1859781,-82.91193389892578,-0.20093466341495514,63.98781204223633,192.3296661376953
1,1859782,-42.75054931640625,-5.808692932128906,46.6259651184082,92.18859100341797
1,1859785,47.48617935180664,-40.56204605102539,-12.914434432983398,-106.58851623535156
1,1859786,-16.633174896240234,-4.149647235870361,-13.09772777557373,-58.87834930419922
1,1859789,-6.123807430267334,27.898269653320312,-16.10768699645996,-68.06999969482422
1,1859790,36.985862731933594,-19.525609970092773,-24.53953742980957,-92.26924896240234
1,1859793,54.119590759277344,17.46706199645996,-31.61629295349121,-41.1951789855957
1,1859794,-7.324707984924316,5.900193691253662,-25.443115234375,37.928558349609375
1,1859797,-56.16658401489258,-55.978050231933594,14.537014961242676,24.051013946533203
1,1859798,22.01589012145996,9.742841720581055,-3.387054920196533,-42.30769729614258
1,1859801,-1.4837144613265991,53.150001525878906,16.55816078186035,164.26913452148438
1,1859802,-36.049442291259766,-2.2403042316436768,38.360538482666016,122.82372283935547
1,1859805,-6.3632049560546875,-11.690442085266113,14.602818489074707,-97.09392547607422
1,1859806,-17.701627731323242,0.24159452319145203,9.866503715515137,-24.43302345275879
1,1859809,-3.2057125568389893,-28.23200225830078,-35.170318603515625,-56.505062103271484
1,1859810,37.23920822143555,11.516027450561523,-10.513002395629883,-86.13723754882812
1,1859813,36.559051513671875,31.400691986083984,-6.602480888366699,-12.037642478942871
1,1859814,3.5113184452056885,-16.09821128845215,-17.405929565429688,35.43608856201172
1,1859817,-24.419095993041992,-2.809015989303589,17.263025283813477,21.412134170532227
1,1859818,1.8962854146957397,3.0805952548980713,-8.210958480834961,-23.007362365722656
1,1859821,22.73265838623047,-3.555612325668335,33.442867279052734,132.64898681640625
1,1859822,-24.947158813476562,-9.397686004638672,39.248382568359375,68.390625
1,1859825,-36.9987907409668,-2.04205322265625,-29.5721492767334,-116.59505462646484
1,1859826,-1.8145167827606201,7.5125041007995605,-20.46591567993164,-20.5286865234375
1,1859829,25.1352596282959,-20.743560791015625,-2.162508249282837,-53.90996551513672
1,1859830,17.64736557006836,8.234541893005371,-13.022149085998535,-12.512679100036621
1,1859833,35.984493255615234,16.36360740661621,-8.154218673706055,72.22733306884766
1,1859834,-23.38964080810547,-17.980693817138672,16.147302627563477,-6.762125015258789
1,1859837,-53.40099334716797,13.783470153808594,3.9544517993927,-11.890440940856934
1,1859838,44.9833984375,7.423754692077637,-14.119843482971191,-53.65463638305664
1,1859841,-13.619057655334473,-6.0840630531311035,0.5490765571594238,58.97184371948242
1,1859842,-22.254438400268555,28.982868194580078,4.7216796875,103.59957885742188
1,1859845,26.039148330688477,17.82173728942871,34.02566146850586,-33.37433624267578
1,1859846,-8.777799606323242,-34.81917190551758,3.9597713947296143,-29.110754013061523
1,1859849,13.10300064086914,-48.818851470947266,-30.517627716064453,-79.06781005859375
1,1859850,-2.652362585067749,31.094282150268555,7.083013534545898,-13.350666046142578
1,1859853,-2.558055877685547,22.4809513092041,-22.191131591796875,76.92166900634766
1,1859854,6.783280849456787,-33.250606536865234,3.6964757442474365,-10.232749938964844
1,1859857,-6.768058776855469,23.11882781982422,29.547054290771484,-30.015653610229492
1,1859858,5.623574733734131,-0.012918527238070965,-36.48759078979492,-34.211280822753906
1,1859861,-25.37444305419922,-31.060653686523438,16.975788116455078,94.57636260986328
1,1859862,-0.1607811003923416,12.20763111114502,35.332763671875,59.95943069458008
1,1859865,15.510498046875,8.932347297668457,-17.244617462158203,-92.45621490478516
1,1859866,-6.595136642456055,-4.831948280334473,10.784421920776367,27.382495880126953
1,1859869,11.127826690673828,17.35198974609375,-11.465311050415039,-26.63182830810547
1,1859870,-13.285318374633789,23.743022918701172,-14.305181503295898,-48.75273895263672
1,1859873,1.7214133739471436,-25.316837310791016,-8.759471893310547,48.175472259521484
1,1859874,18.905683517456055,-27.522624969482422,-4.7657647132873535,-0.37235456705093384
1,1859877,-11.779890060424805,-2.663130521774292,-3.5831189155578613,-39.68614196777344
1,1859878,17.88996696472168,23.23870086669922,-24.230836868286133,-34.43388366699219
1,1859881,2.4070653915405273,46.94316101074219,38.49725341796875,91.41584777832031
1,1859882,-29.244346618652344,-34.93628692626953,19.793230056762695,42.74053192138672
1,1859885,-2.5551629066467285,-50.26433563232422,-11.1268892288208,-110.38606262207031
1,1859886,12.922040939331055,30.5119686126709,3.9137964248657227,20.430328369140625
1,1859889,-3.8845343589782715,16.365646362304688,-17.394901275634766,28.923690795898438
1,1859890,-0.0024123997427523136,-13.760087013244629,4.160693645477295,-55.12056350708008
1,1859893,22.63405418395996,-18.488611221313477,0.7936180830001831,44.21696472167969
1,1859894,-27.91534423828125,14.36678409576416,4.941033840179443,71.22867584228516
1,1859897,-18.351327896118164,29.5092716217041,8.908431053161621,-73.43904876708984
1,1859898,47.75946044921875,-7.034413814544678,-2.121796131134033,-96.53675079345703
1,1859901,3.4379143714904785,3.58951473236084,12.527545928955078,134.2178955078125
1,1859902,-37.89218521118164,-6.856291770935059,-17.40622901916504,71.29808807373047
1,1859905,-2.1674067974090576,-28.850236892700195,-12.942814826965332,-104.5525894165039
1,1859906,13.316245079040527,3.7626593112945557,19.77284812927246,13.408935546875
1,1859909,19.643020629882812,22.409799575805664,-7.892974853515625,-3.143280506134033
1,1859910,-6.973690032958984,-3.2653183937072754,-12.875582695007324,-29.568090438842773
1,1859913,-23.560260772705078,-6.273848056793213,8.194506645202637,24.1866512298584
1,1859914,5.067899227142334,-11.612983703613281,9.073031425476074,10.038503646850586
1,1859917,16.240127563476562,-5.580773830413818,-4.663748741149902,-7.77977180480957
1,1859918,30.040803909301758,29.439870834350586,-11.986333847045898,-50.71806716918945
1,1859921,-40.15818786621094,-1.0567896366119385,14.850597381591797,61.022186279296875
1,1859922,-30.17559814453125,-18.885007858276367,-6.692742347717285,51.54676055908203
1,1859925,42.17367172241211,-1.0369902849197388,8.08774185180664,-74.0168685913086
1,1859926,-11.48912525177002,14.479304313659668,29.227272033691406,1.057062029838562
1,1859929,-11.058003425598145,-2.546825647354126,-57.204227447509766,-46.99404525756836
1,1859930,2.073064088821411,-23.714834213256836,-29.194477081298828,-34.99660110473633
1,1859933,22.79696273803711,30.200746536254883,50.53410720825195,106.39437103271484
1,1859935,14.616634368896484,25.819026947021484,52.19480514526367,52.527957916259766
1,1859937,-25.12662696838379,-25.12649917602539,-10.91776180267334,-54.147796630859375
1,1859939,8.579852104187012,-13.480101585388184,-79.6795883178711,-68.18842315673828
1,1859941,-31.689836502075195,-0.2584535777568817,-20.168272018432617,60.340633392333984
1,1859943,-27.40609359741211,-9.749321937561035,21.71481704711914,73.75704193115234
1,1859945,51.65401840209961,13.623556137084961,14.59195327758789,-36.87028121948242
1,1859947,-0.1298786699771881,12.866143226623535,21.41624641418457,-12.934109687805176
1,1859949,18.38507652282715,-7.630261421203613,16.249717712402344,-70.57350158691406
1,1859951,41.51925277709961,-1.4938983917236328,-5.303351402282715,-46.56843566894531
1,1859953,-41.86229705810547,15.415422439575195,-0.5595083832740784,84.60556030273438
1,1859955,-23.716838836669922,5.882145881652832,22.449697494506836,34.2679443359375
1,1859960,-15.59078311920166,-16.30328369140625,8.897135734558105,108.10612487792969
1,1859960,2.0071847438812256,15.424468994140625,10.47570514678955,57.581912994384766
1,1859962,16.895204544067383,-13.497631072998047,-12.43775749206543,-193.2584228515625
1,1859963,-17.05229377746582,-40.3869514465332,-58.984580993652344,-109.89075469970703
1,1859964,-6.328372955322266,2.639392614364624,-20.123828887939453,28.037830352783203
1,1859967,6.316876411437988,26.0006103515625,39.855953216552734,37.067649841308594
1,1859968,20.670482635498047,-0.5268471240997314,-5.439392566680908,50.68962097167969
1,1859971,15.760046005249023,-13.740202903747559,-33.81972122192383,-13.628861427307129
1,1859972,-0.4528712034225464,32.3424072265625,31.196210861206055,-6.1334662437438965
1,1859975,-27.340787887573242,-21.610273361206055,15.590400695800781,-12.271489143371582
1,1859976,-24.09156608581543,-39.35280990600586,-18.41539764404297,-113.50464630126953
1,1859979,49.116031646728516,51.2496337890625,13.024282455444336,21.09892463684082
1,1859980,19.94098663330078,16.57246971130371,-19.195560455322266,104.36526489257812
1,1859983,-40.89715576171875,-1.444076418876648,41.92982482910156,64.03190612792969
1,1859984,12.79065227508545,-0.4765481948852539,50.983158111572266,4.815306186676025
1,1859987,-6.3222551345825195,-41.47596740722656,-73.33700561523438,-93.20984649658203
1,1859988,-34.31769561767578,24.94043731689453,-21.5003604888916,29.02463722229004
1,1859991,46.95758819580078,4.349905014038086,15.575307846069336,29.603227615356445
1,1859992,8.430030822753906,-30.034332275390625,-7.727507591247559,-14.366277694702148
1,1859995,-69.29962921142578,44.861907958984375,3.8908355236053467,47.65892028808594
1,1859996,-5.859993934631348,1.6632107496261597,-22.337604522705078,-110.2560043334961
1,1859999,59.85767364501953,-36.50484848022461,-8.390499114990234,-68.44182586669922
1,1860000,44.918128967285156,8.445744514465332,34.92598342895508,148.92832946777344
1,1860003,-7.303321361541748,-8.707704544067383,32.318641662597656,79.9684066772461
1,1860004,-23.470590591430664,5.325448036193848,-8.803909301757812,-48.05445861816406
1,1860007,-24.163707733154297,15.891033172607422,-21.364206314086914,-50.659210205078125
1,1860008,-5.642754077911377,-14.599990844726562,7.531975746154785,0.09761758148670197
1,1860011,-3.433645009994507,0.009789831936359406,-1.0647841691970825,-65.89334869384766
1,1860012,-50.631256103515625,-7.834146499633789,-22.217329025268555,-16.35700225830078
1,1860015,4.9743876457214355,7.374695777893066,0.5455775260925293,131.6149444580078
1,1860016,47.85514450073242,13.336536407470703,10.175800323486328,-25.3035831451416
1,1860019,32.15494918823242,-13.610493659973145,6.588587760925293,-85.47574615478516
1,1860020,48.967628479003906,16.08728790283203,39.116825103759766,40.895965576171875
1,1860023,-11.012653350830078,21.64862823486328,37.934967041015625,42.13323211669922
1,1860024,-35.81392288208008,-18.612010955810547,-40.076576232910156,-10.689940452575684
1,1860027,-30.844741821289062,-27.937999725341797,-89.4714584350586,-68.96267700195312
1,1860028,-75.89330291748047,-21.7238826751709,-32.23140335083008,-25.848112106323242
1,1860031,-39.314205169677734,8.512800216674805,47.11809539794922,42.34042739868164
1,1860032,62.141353607177734,39.6956787109375,26.70081901550293,82.91999053955078
1,1860035,119.81829833984375,9.31887435913086,-19.622112274169922,52.63442611694336
1,1860036,15.769832611083984,-14.601310729980469,26.297494888305664,-120.79071807861328
1,1860039,-85.35388946533203,-20.231355667114258,24.993398666381836,-80.7578125
1,1860040,-3.1662423610687256,-7.588397979736328,-24.568674087524414,74.47279357910156
1,1860043,-7.059589385986328,36.06296920776367,11.63520336151123,37.57359313964844
1,1860044,-20.660850524902344,12.451021194458008,-4.001779556274414,8.952865600585938
1,1860047,67.62068939208984,-52.310665130615234,0.5737453103065491,28.205480575561523
1,1860048,11.065792083740234,-8.343964576721191,32.733482360839844,-27.42820167541504
1,1860051,13.833572387695312,55.98989486694336,25.85673713684082,-87.3851547241211
1,1860052,61.36241912841797,10.746172904968262,52.262535095214844,75.8447036743164
1,1860055,-91.746826171875,-25.093429565429688,-61.316558837890625,71.71881103515625
1,1860056,-89.04705810546875,-12.871821403503418,-124.80631256103516,-106.94454193115234
1,1860059,27.397762298583984,3.4655492305755615,7.456664562225342,-60.70150375366211
1,1860060,-9.177224159240723,16.45414924621582,56.34864807128906,-16.30474853515625
1,1860063,27.922353744506836,-1.9064022302627563,65.35784912109375,147.43557739257812
1,1860064,87.6343002319336,8.02323055267334,52.35871124267578,92.09814453125
1,1860067,-33.529563903808594,-5.464402675628662,-108.1773910522461,-174.3046875
1,1860068,-74.16854858398438,-44.997642517089844,-122.89456176757812,-41.7916374206543
1,1860071,-19.24240493774414,-1.3754618167877197,-42.09458923339844,20.88762855529785
1,1860072,-67.28491973876953,-0.5613840818405151,-29.839147567749023,23.47569465637207
1,1860075,54.91250228881836,13.090741157531738,106.19075012207031,186.4671630859375
1,1860076,124.04854583740234,33.20957565307617,124.4454345703125,-26.099445343017578
1,1860079,-7.071389675140381,-41.33842468261719,15.86348819732666,-202.09669494628906
1,1860080,-20.10904884338379,-5.764831066131592,18.764684677124023,0.8055540323257446
1,1860083,10.809768676757812,63.70380783081055,67.73514556884766,99.08342742919922
1,1860084,34.993587493896484,15.570499420166016,38.69352340698242,-14.0772705078125
1,1860087,-2.184739828109741,-12.320759773254395,-96.12599182128906,-85.79537963867188
1,1860088,-46.502471923828125,-3.556666374206543,-113.81224822998047,43.58399200439453
1,1860091,-63.225852966308594,-42.967315673828125,-96.0470962524414,0.9104890823364258
1,1860092,-46.21786880493164,-29.979581832885742,-62.893836975097656,15.758960723876953
1,1860095,39.47323989868164,31.499542236328125,190.73040771484375,168.78895568847656
1,1860096,18.736831665039062,17.47365379333496,164.03128051757812,-113.11128234863281
1,1860099,34.55663299560547,-20.965343475341797,-130.26258850097656,-159.30978393554688
1,1860100,35.07909393310547,-25.1385440826416,-133.10678100585938,67.91197204589844
1,1860103,-46.059505462646484,29.596355438232422,31.278003692626953,75.38220977783203
1,1860104,-12.695188522338867,41.53275680541992,42.573123931884766,32.2895622253418
1,1860107,12.264302253723145,-16.069862365722656,5.876171112060547,-79.1419448852539
1,1860108,25.431982040405273,-10.03491497039795,101.98341369628906,-7.69735050201416
1,1860111,49.04043960571289,6.765937805175781,42.11612319946289,15.53566837310791
1,1860112,-1.377105951309204,0.9454624652862549,-71.34908294677734,-17.229969024658203
1,1860115,-53.485923767089844,-3.197435140609741,-38.890071868896484,56.3313102722168
1,1860116,-27.796228408813477,1.024437665939331,-48.64142990112305,-35.49433517456055
1,1860119,2.266087770462036,-22.868824005126953,-16.29043960571289,-24.672130584716797
1,1860120,13.8941011428833,-0.8137964606285095,51.33565902709961,53.238582611083984
1,1860123,3.465268850326538,40.56541442871094,36.70111846923828,33.57100296020508
1,1860124,-60.03725814819336,-43.71251678466797,-54.17150115966797,-39.86742401123047
1,1860127,-31.901132583618164,-33.98289108276367,-165.6128692626953,-104.47591400146484
1,1860128,15.062027931213379,36.570396423339844,-25.512178421020508,82.76324462890625
1,1860131,61.626121520996094,7.076720714569092,179.2287139892578,104.27920532226562
1,1860132,62.92239761352539,-18.487747192382812,80.40316009521484,-68.8841781616211
1,1860135,-24.355411529541016,25.947404861450195,59.84989547729492,35.1563835144043
1,1860136,6.742373943328857,47.9774284362793,73.58094024658203,-54.36560821533203
1,1860139,1.1942880153656006,-11.921855926513672,-73.97061920166016,-112.75104522705078
1,1860140,-17.132522583007812,-18.576448440551758,-113.79412078857422,100.09318542480469
1,1860143,-38.64551544189453,-52.78810119628906,-132.71121215820312,56.54336166381836
1,1860144,-39.148502349853516,-37.74317169189453,-9.13154411315918,-22.672603607177734
1,1860147,37.95979690551758,55.367286682128906,169.83827209472656,-14.695159912109375
1,1860148,46.25718688964844,43.88603973388672,85.6554946899414,-18.176332473754883
1,1860151,33.239070892333984,-0.9780731201171875,0.7903249859809875,-63.00339889526367
1,1860152,-37.92293930053711,-28.660505294799805,-18.171030044555664,-48.649227142333984
1,1860155,-0.19740864634513855,5.964354515075684,-95.79598236083984,46.05867004394531
1,1860157,30.990463256835938,-1.3947358131408691,-142.99130249023438,29.222314834594727
1,1860159,-86.33767700195312,-37.66156005859375,-21.45589828491211,62.873661041259766
1,1860161,-51.02830123901367,14.408283233642578,123.17925262451172,50.17766571044922
1,1860163,47.29640579223633,44.15484619140625,69.97681427001953,-23.682518005371094
1,1860165,43.645263671875,22.25465965270996,-2.387659788131714,-9.661459922790527
1,1860167,-7.893957614898682,-25.647363662719727,18.55411148071289,-62.9315299987793
1,1860169,-18.342243194580078,-38.71894454956055,15.676542282104492,-60.97048568725586
1,1860171,48.076961517333984,20.09781837463379,-19.09003257751465,30.57930564880371
1,1860173,20.147043228149414,8.610471725463867,-52.64365005493164,67.3000717163086
1,1860175,-29.6558837890625,-6.157045841217041,-40.43746566772461,10.788336753845215
1,1860177,5.42841100692749,8.407638549804688,-13.531795501708984,-56.576480865478516
1,1860180,-60.081172943115234,-35.58907699584961,51.89064407348633,76.49396514892578
1,1860183,-54.6877326965332,12.207733154296875,231.5489044189453,173.8228759765625
1,1860183,72.72117614746094,34.887054443359375,87.2401351928711,-109.4004898071289
1,1860185,77.23754119873047,-23.5572452545166,-260.6623229980469,-244.90127563476562
1,1860187,-13.273345947265625,-34.40380859375,-322.8855895996094,80.30279541015625
1,1860189,-49.31948471069336,-31.03997230529785,-119.33790588378906,170.92784118652344
1,1860191,-23.5194091796875,44.39676284790039,300.6751708984375,-55.79246139526367
1,1860193,-21.038570404052734,65.3222427368164,250.71328735351562,-44.05222702026367
1,1860195,28.67678451538086,-14.960225105285645,-66.6495590209961,-61.014854431152344
1,1860197,49.4024658203125,-25.448755264282227,-23.590496063232422,-149.9481658935547
1,1860199,-3.7392125129699707,2.7729010581970215,-17.759557723999023,84.87427520751953
1,1860201,-8.675179481506348,-8.851728439331055,-34.008731842041016,97.11054992675781
1,1860203,-20.09214973449707,-9.80420970916748,-50.01766586303711,-10.6654634475708
1,1860205,-36.45146179199219,17.523624420166016,-64.2590560913086,40.826393127441406
1,1860207,-37.7696533203125,-25.924104690551758,46.47012710571289,-48.47208023071289
1,1860209,39.98951721191406,5.156402111053467,107.44450378417969,31.880773544311523
1,1860211,125.87236785888672,58.160621643066406,66.76747131347656,53.537994384765625
1,1860213,-11.128944396972656,-20.934030532836914,-14.345691680908203,-49.42418670654297
1,1860215,-83.27333068847656,-34.07442855834961,-32.32004165649414,5.219130039215088
1,1860217,10.203289985656738,-10.794376373291016,-17.243871688842773,-29.943920135498047
1,1860219,-7.811153411865234,17.31852149963379,-112.3956527709961,20.815292358398438
1,1860221,-3.817753314971924,45.08580780029297,-80.44371795654297,95.72346496582031
1,1860223,2.2028512954711914,-38.788700103759766,-26.352014541625977,-18.121530532836914
1,1860225,-28.03719711303711,-49.17892837524414,4.930942058563232,-79.1290512084961
1,1860227,27.788667678833008,26.08247947692871,208.66433715820312,-50.92676544189453
1,1860229,18.45860481262207,11.227740287780762,117.36798858642578,6.984907150268555
1,1860231,-21.775863647460938,12.325650215148926,-82.30892944335938,0.049758125096559525
1,1860233,-9.741711616516113,15.344196319580078,-60.863975524902344,38.36887741088867
1,1860235,6.534313678741455,-35.672454833984375,-73.61930084228516,82.57151794433594
1,1860237,3.9865734577178955,-14.34679126739502,-28.428936004638672,-52.50840377807617
1,1860239,-16.373544692993164,36.50569534301758,103.89631652832031,-45.57029342651367
1,1860241,35.8990364074707,34.64909362792969,94.36512756347656,63.21033477783203
1,1860243,38.58298110961914,-18.537220001220703,-72.7867660522461,2.632924795150757
1,1860245,-34.46588897705078,-15.23884391784668,-114.8342056274414,-74.30245971679688
1,1860247,-43.42429733276367,23.907268524169922,-2.1412882804870605,-48.14427185058594
1,1860249,16.882308959960938,-9.400115013122559,31.911211013793945,30.973527908325195
1,1860251,35.293827056884766,-34.00422286987305,52.90768814086914,28.301786422729492
1,1860253,-12.963305473327637,-16.43741226196289,57.34186553955078,42.627342224121094
1,1860255,-8.816819190979004,24.640289306640625,-38.45822525024414,-29.438947677612305
1,1860257,6.181829929351807,2.632472038269043,-86.20520782470703,-93.9914779663086
1,1860259,-20.913209915161133,-21.57777976989746,-24.02872657775879,76.04082489013672
1,1860261,-18.803503036499023,0.9127730131149292,129.62330627441406,30.04131507873535
1,1860263,37.34785842895508,42.143310546875,205.98460388183594,-6.300267219543457
1,1860265,62.683998107910156,22.655139923095703,-123.0350341796875,33.7461051940918
1,1860267,17.499570846557617,-22.08399200439453,-397.16961669921875,36.39874267578125
1,1860269,-102.84972381591797,-6.952464580535889,-70.4727554321289,76.20355987548828
1,1860271,-97.11473083496094,-37.43756103515625,266.4011535644531,-102.7265853881836
1,1860273,68.43206024169922,-2.263998031616211,155.22637939453125,-42.113624572753906
1,1860275,78.2731704711914,36.885154724121094,-13.966976165771484,11.82453727722168
1,1860277,-8.237292289733887,-17.12074089050293,-29.824485778808594,-111.91360473632812
1,1860279,-42.80862045288086,-24.764375686645508,-95.61447143554688,45.580020904541016
1,1860281,-18.05126953125,12.664036750793457,-12.815507888793945,65.99391174316406
1,1860283,11.748824119567871,42.811912536621094,154.05484008789062,-2.117723226547241
1,1860285,6.353121280670166,3.522789716720581,59.79315185546875,-8.6698637008667
1,1860287,18.695846557617188,-37.41484069824219,-41.97879409790039,-55.72467803955078
1,1860289,27.505809783935547,33.2257194519043,20.73348045349121,27.724790573120117
1,1860291,65.38771057128906,30.703943252563477,58.96454620361328,-42.09258270263672
1,1860293,-1.923659086227417,-32.814971923828125,-107.05305480957031,1.6200811862945557
1,1860295,-72.74352264404297,-24.290132522583008,-384.26104736328125,185.3271026611328
1,1860297,-44.455326080322266,-45.345401763916016,-236.9257049560547,-24.493709564208984
1,1860299,-67.9531021118164,5.532343864440918,331.2378845214844,-78.21074676513672
1,1860301,15.135895729064941,78.59374237060547,359.4084777832031,30.134050369262695
1,1860303,65.99661254882812,4.2446513175964355,-22.242176055908203,-21.356464385986328
1,1860305,12.22867202758789,-24.976051330566406,-46.32213592529297,-55.040794372558594
1,1860307,-1.302993655204773,-2.5669710636138916,22.024023056030273,-55.57658386230469
1,1860309,-23.4677734375,-38.649837493896484,9.412565231323242,39.01806640625
1,1860311,44.62803649902344,11.78911304473877,-72.42987060546875,36.185237884521484
1,1860313,51.936466217041016,45.84012222290039,-97.20570373535156,36.26203918457031
1,1860315,-69.33910369873047,-22.86490249633789,59.04801940917969,31.33370590209961
1,1860317,-37.320735931396484,3.1366617679595947,47.643802642822266,-100.94463348388672
1,1860319,37.47548294067383,20.825054168701172,-47.25497055053711,25.507225036621094
1,1860321,25.380477905273438,-47.63210678100586,8.986750602722168,88.21971130371094
1,1860323,-38.79897689819336,-62.961219787597656,-60.103797912597656,-59.396366119384766
1,1860325,-21.110309600830078,3.7287395000457764,-111.02629852294922,-52.52627944946289
1,1860327,49.18064498901367,61.18373107910156,93.98468780517578,4.719131946563721
1,1860329,-12.159501075744629,37.587955474853516,131.3779296875,25.80681610107422
1,1860331,-22.552261352539062,16.007720947265625,23.58713150024414,-40.020450592041016
1,1860333,-14.848028182983398,5.579692363739014,85.83280944824219,6.554389953613281
1,1860335,18.22186279296875,-14.699967384338379,-69.04975128173828,97.8474349975586
1,1860337,52.825870513916016,-64.99309539794922,-371.08074951171875,-104.00059509277344
1,1860339,-33.815914154052734,-7.8933844566345215,-30.78493881225586,45.53455352783203
1,1860341,-53.72567367553711,76.40882873535156,349.09552001953125,161.9288787841797
1,1860343,8.945649147033691,-34.653411865234375,81.1473617553711,-142.6195068359375
1,1860345,50.95124435424805,-33.33586502075195,-139.36685180664062,-44.227664947509766
1,1860347,-11.663690567016602,33.33665466308594,-10.858716011047363,-14.844097137451172
1,1860349,-18.841829299926758,7.078251361846924,123.23797607421875,3.818660020828247
1,1860351,52.39924621582031,17.48580551147461,31.097986221313477,83.68692779541016
1,1860353,-2.4133543968200684,3.9820055961608887,-104.59049987792969,-50.75767517089844
1,1860355,-28.581634521484375,-3.4520604610443115,-115.31694793701172,25.919893264770508
1,1860357,8.5208158493042,-19.957889556884766,-60.063838958740234,10.981067657470703
1,1860359,-3.4989795684814453,-8.554611206054688,49.651344299316406,30.54267120361328
1,1860361,-2.7284631729125977,47.80475997924805,109.31370544433594,51.152557373046875
1,1860363,-30.07181739807129,-33.92595672607422,55.79941177368164,-191.52655029296875
1,1860365,3.6170036792755127,-36.22802734375,-26.63006019592285,-143.6554718017578
1,1860367,54.59678649902344,39.611846923828125,-71.90057373046875,174.29698181152344
1,1860369,-20.37409210205078,-9.81578540802002,-15.620831489562988,195.23748779296875
1,1860372,-19.24088478088379,-20.581937789916992,30.82171058654785,-120.98302459716797
1,1860373,6.630898475646973,-15.97982406616211,34.18891525268555,-41.9796257019043
1,1860376,-5.8856353759765625,7.225970268249512,40.68243408203125,53.86463928222656
1,1860377,-1.3934743404388428,34.796382904052734,-32.465614318847656,-120.89192962646484
1,1860380,3.192500352859497,9.378796577453613,-4.244244575500488,75.70782470703125
1,1860381,20.732507705688477,-18.291719436645508,39.12986755371094,76.8786849975586
1,1860384,-28.90711212158203,-2.2764816284179688,-60.671043395996094,-48.939537048339844
1,1860385,-1.4151722192764282,13.777708053588867,-68.99395751953125,39.208133697509766
1,1860386,40.15178298950195,-21.683883666992188,-37.075714111328125,-34.50990295410156
1,1860389,-25.02507972717285,-2.0688319206237793,25.165374755859375,-39.89525604248047
1,1860390,-35.087501525878906,10.903406143188477,65.15369415283203,61.28303146362305
1,1860393,4.109886169433594,10.680625915527344,23.420778274536133,3.245027542114258
1,1860394,14.215808868408203,22.088937759399414,45.02839660644531,-60.903602600097656
1,1860397,9.741775512695312,-23.20713233947754,-27.91680145263672,-57.47024154663086
1,1860398,36.020198822021484,-31.048826217651367,-44.38822555541992,-63.376834869384766
1,1860401,5.7039666175842285,29.818038940429688,54.649330139160156,90.21221160888672
1,1860402,-43.62628173828125,8.427035331726074,-41.46809005737305,108.81362915039062
1,1860405,-15.187196731567383,-30.374881744384766,-69.193115234375,-74.54718017578125
1,1860406,40.16171646118164,20.447053909301758,35.002197265625,-61.819881439208984
1,1860409,15.695893287658691,11.479645729064941,18.217378616333008,-0.6282063722610474
1,1860410,-60.22185134887695,-18.344650268554688,5.568249225616455,138.57566833496094
1,1860413,-16.82448959350586,9.372613906860352,30.884719848632812,87.15726470947266
1,1860414,19.92332649230957,-1.8736839294433594,29.953622817993164,-127.93087005615234
1,1860420,3.8098056316375732,-12.669442176818848,-2.210569381713867,46.05303955078125
1,1860420,37.92006301879883,29.233558654785156,-22.08536148071289,25.56270408630371
1,1860421,10.689573287963867,-6.154665470123291,-13.52136516571045,-131.72120666503906
1,1860422,3.8252029418945312,-27.710336685180664,-18.73269271850586,-18.029891967773438
1,1860425,-15.568520545959473,4.542891025543213,-11.395812034606934,35.60355758666992
1,1860426,-41.38691329956055,-3.025346279144287,-21.82860565185547,47.70113754272461
1,1860429,25.136276245117188,3.055600643157959,-12.800792694091797,-46.75541687011719
1,1860430,5.372828483581543,-14.702424049377441,48.431861877441406,-52.97550964355469
1,1860433,-17.6528263092041,-2.562910318374634,33.57061767578125,75.89854431152344
1,1860434,7.507818698883057,14.24905776977539,-0.9927830696105957,11.2930326461792
1,1860437,1.7249548435211182,2.7306463718414307,-20.277362823486328,-38.36824035644531
1,1860438,12.101539611816406,-0.8320485353469849,-40.10905075073242,-55.950050354003906
1,1860441,-7.235287666320801,14.040719032287598,28.965251922607422,-61.594303131103516
1,1860442,-7.886944770812988,32.78718948364258,28.044130325317383,75.91643524169922
1,1860445,-5.0345234870910645,-17.926116943359375,-37.69424819946289,121.05839538574219
1,1860446,-14.47213363647461,-24.13136863708496,-5.8606367111206055,28.038881301879883
1,1860449,27.04206085205078,-7.805960178375244,20.713518142700195,-81.62975311279297
1,1860450,10.591416358947754,8.1177339553833,-8.719487190246582,-3.215336322784424
1,1860453,-20.407453536987305,31.84647560119629,-10.061243057250977,114.22533416748047
1,1860454,-17.010995864868164,-23.582752227783203,13.579085350036621,-46.98305130004883
1,1860457,7.534861087799072,-37.70234298706055,7.720204830169678,-125.8831787109375
1,1860458,44.77241134643555,12.664728164672852,-2.0007545948028564,-53.08715057373047
1,1860461,2.0731849670410156,35.855804443359375,12.159863471984863,78.68296813964844
1,1860462,-30.589601516723633,-6.839492321014404,-8.141806602478027,122.48360443115234
1,1860465,-10.555051803588867,-27.988847732543945,-14.943610191345215,-56.094451904296875
1,1860466,1.6778029203414917,19.49166488647461,5.538101673126221,-24.876564025878906
1,1860469,23.361391067504883,21.46879005432129,-14.83095645904541,-17.912052154541016
1,1860470,1.463680624961853,-1.3685599565505981,7.26338005065918,-53.024139404296875
1,1860473,-7.834267616271973,3.9374074935913086,27.873506546020508,47.18292236328125
1,1860474,3.9046571254730225,-0.5215716361999512,18.37503433227539,18.199251174926758
1,1860477,-18.521047592163086,-33.421653747558594,-26.98320198059082,-29.085113525390625
1,1860478,12.379589080810547,-7.810902118682861,-57.3448600769043,-73.64288330078125
1,1860481,9.7569580078125,11.852426528930664,26.573598861694336,61.5350227355957
1,1860482,-28.941463470458984,-55.06089401245117,22.999156951904297,122.53471374511719
1,1860485,1.6109085083007812,16.126319885253906,-11.844060897827148,-55.772830963134766
1,1860486,-4.304985523223877,100.51971435546875,20.218786239624023,-26.382190704345703
1,1860489,-8.283930778503418,-10.164396286010742,-12.589210510253906,-8.714670181274414
1,1860490,27.5136661529541,-62.19599914550781,-13.989167213439941,-40.47427749633789
1,1860493,-10.540444374084473,-3.2464869022369385,19.650583267211914,16.66750144958496
1,1860494,-25.948278427124023,19.46548080444336,13.457039833068848,42.623592376708984
1,1860497,42.68062210083008,10.008224487304688,-21.579072952270508,19.938220977783203
1,1860498,39.818111419677734,2.084354877471924,-23.59125518798828,-68.68751525878906
1,1860501,-38.77633285522461,-0.9676607251167297,55.1044807434082,33.68696975708008
1,1860502,-25.428726196289062,1.69380521774292,27.18787956237793,89.3816146850586
1,1860505,18.417102813720703,-12.051919937133789,-53.258602142333984,-73.44532012939453
1,1860506,-4.92031717300415,-14.116520881652832,-21.479232788085938,-36.87167739868164
1,1860509,15.61860466003418,26.949222564697266,26.443626403808594,17.88939666748047
1,1860510,20.759912490844727,9.376250267028809,11.455703735351562,-9.71367359161377
1,1860513,-40.17512893676758,-44.631446838378906,-33.08054733276367,-19.503652572631836
1,1860514,-44.54815673828125,-26.258581161499023,-0.16176165640354156,10.44083309173584
1,1860517,26.209903717041016,32.767459869384766,31.135025024414062,48.19682312011719
1,1860518,48.52289962768555,35.73345184326172,-9.579500198364258,-53.049190521240234
1,1860521,-13.833585739135742,-7.777624130249023,-11.400015830993652,8.131962776184082
1,1860522,-30.777870178222656,-3.6653454303741455,1.1603524684906006,81.28047943115234
1,1860525,-4.3120551109313965,-9.589524269104004,0.897286057472229,-51.840553283691406
1,1860526,23.69025230407715,-28.184009552001953,-0.22253616154193878,-32.52845001220703
1,1860529,10.595695495605469,11.519994735717773,1.9714099168777466,8.4779634475708
1,1860530,-18.27489471435547,32.20492172241211,22.53186798095703,9.700652122497559
1,1860533,21.810415267944336,9.065876960754395,-18.44876480102539,35.85798645019531
1,1860534,-1.127577543258667,-8.836139678955078,-10.27202320098877,-34.288841247558594
1,1860537,-17.652311325073242,-8.706636428833008,17.319257736206055,-41.890838623046875
1,1860538,19.409698486328125,1.262661337852478,-24.453876495361328,-16.46417808532715
1,1860541,-17.512657165527344,8.22907543182373,12.873381614685059,95.91674041748047
1,1860542,-4.633948802947998,0.16243933141231537,20.406843185424805,84.64089965820312
1,1860545,11.412060737609863,-28.453758239746094,-22.739883422851562,-116.34590911865234
1,1860546,-18.502376556396484,-23.65516471862793,-1.7296839952468872,-34.392112731933594
1,1860549,2.5502426624298096,5.3300089836120605,-13.67434310913086,-20.23722267150879
1,1860550,8.553314208984375,2.792562961578369,-6.334959506988525,-38.919525146484375
1,1860553,7.057619094848633,3.047821283340454,24.579608917236328,110.46466827392578
1,1860554,7.359544277191162,26.592662811279297,15.463074684143066,66.01799011230469
1,1860557,-21.80838394165039,19.24854850769043,-7.135797500610352,-77.57403564453125
1,1860558,10.537124633789062,3.0906660556793213,-26.312223434448242,-82.32830047607422
1,1860561,25.343442916870117,13.30813217163086,28.333728790283203,77.92320251464844
1,1860562,-25.771400451660156,-11.0379638671875,10.282511711120605,41.55069351196289
1,1860565,-8.501517295837402,-30.9815673828125,-36.41318893432617,-59.007476806640625
1,1860566,6.996656894683838,11.256932258605957,15.578496932983398,52.67715072631836
1,1860569,-2.5984222888946533,10.461005210876465,9.127034187316895,-22.627517700195312
1,1860570,25.870878219604492,0.3065495491027832,2.4408199787139893,-24.322261810302734
1,1860573,9.831591606140137,29.370227813720703,15.809669494628906,126.19434356689453
1,1860574,-33.354129791259766,-24.910905838012695,0.5570151805877686,-19.3065242767334
1,1860577,-18.23989486694336,-98.96206665039062,-44.893218994140625,-231.8059539794922
1,1860578,-22.44906997680664,-62.534820556640625,-67.61096954345703,-91.15802001953125
1,1860581,-5.3047566413879395,80.50994873046875,62.657588958740234,237.759033203125
1,1860582,81.47782135009766,123.21620178222656,110.71517944335938,114.47734832763672
1,1860585,24.561574935913086,10.574762344360352,-43.29425811767578,-138.9232940673828
1,1860586,-50.0090217590332,-48.73619842529297,-99.43896484375,-48.89847946166992
1,1860589,6.285636901855469,-26.08828353881836,29.06916618347168,20.45027732849121
1,1860590,13.86814022064209,12.396162986755371,71.73955535888672,47.52303695678711
1,1860593,-42.40028762817383,-24.933391571044922,-33.565208435058594,14.02294921875
1,1860594,-29.257007598876953,-22.408504486083984,-0.7981497049331665,14.142634391784668
1,1860597,66.29217529296875,61.6470947265625,35.49480056762695,30.95075798034668
1,1860598,13.517504692077637,7.126767635345459,-61.66749954223633,-122.27203369140625
1,1860601,-68.82848358154297,-50.43126678466797,-6.298501491546631,24.969974517822266
1,1860602,8.873191833496094,4.411088466644287,27.720579147338867,110.49091339111328
1,1860605,22.7845401763916,-1.5332131385803223,-29.897077560424805,-89.5204849243164
1,1860606,-14.491541862487793,-25.960922241210938,3.105602264404297,-19.893407821655273
1,1860609,1.2442535161972046,30.800432205200195,14.218221664428711,-16.11770248413086
1,1860610,3.449690818786621,22.416330337524414,-6.09659481048584,1.1000736951828003
1,1860613,2.0305328369140625,-34.07755661010742,-11.483987808227539,80.6686782836914
1,1860614,9.576949119567871,3.379685163497925,11.868922233581543,-22.470325469970703
1,1860617,22.53241539001465,37.36685562133789,7.247631549835205,-33.52188491821289
1,1860618,13.061917304992676,3.369077205657959,-9.8788423538208,-23.67373275756836
1,1860621,-31.976770401000977,11.853565216064453,37.67020034790039,75.76464080810547
1,1860622,-11.539351463317871,15.178569793701172,17.13100814819336,1.0807232856750488
1,1860625,26.221803665161133,-25.451711654663086,-31.384191513061523,-134.19114685058594
1,1860626,3.179913282394409,-7.06105899810791,-3.95007061958313,67.97252655029297
1,1860629,-14.202791213989258,-24.00824546813965,0.37375402450561523,41.298343658447266
1,1860630,-16.7069149017334,-43.48183059692383,-8.726279258728027,-27.41047477722168
1,1860633,-17.88837242126465,-17.29716682434082,-10.983973503112793,21.67283058166504
1,1860635,-7.7364583015441895,40.04715347290039,12.23403549194336,-18.917316436767578
1,1860637,35.5805778503418,101.42366027832031,29.43029022216797,34.356666564941406
1,1860639,36.79413604736328,-11.037043571472168,-15.482791900634766,19.70602035522461
1,1860641,-45.699214935302734,-109.16930389404297,-20.518651962280273,-1.5403400659561157
1,1860643,-32.55367660522461,-23.94985580444336,-4.906733512878418,33.254127502441406
1,1860645,42.604183197021484,59.5589599609375,20.73411750793457,-17.56818962097168
1,1860647,12.022154808044434,26.354537963867188,12.507512092590332,-55.43860626220703
1,1860649,-1.7213473320007324,-11.3405122756958,-40.33119583129883,-62.5887565612793
1,1860651,3.1480205059051514,8.500990867614746,6.292623996734619,-9.152251243591309
1,1860653,5.862520694732666,30.813926696777344,30.509872436523438,73.26712036132812
1,1860655,-13.877219200134277,-21.90129280090332,-13.010028839111328,-54.33855438232422
1,1860657,-26.770092010498047,-39.73876953125,-12.711329460144043,4.322789669036865
1,1860659,33.24970626831055,14.458023071289062,-12.873186111450195,100.75135803222656
1,1860661,-49.16620635986328,-24.096424102783203,9.946335792541504,-53.269195556640625
1,1860663,-20.550161361694336,13.067989349365234,44.294517517089844,91.63463592529297
1,1860667,67.49147033691406,14.257442474365234,8.470663070678711,-0.3973371386528015
1,1860667,-16.99294662475586,-46.03662109375,-49.41429901123047,-206.9163818359375
1,1860669,-10.211578369140625,9.794023513793945,-40.22208023071289,42.37089538574219
1,1860671,15.879898071289062,56.125362396240234,32.27936935424805,87.72760772705078
1,1860673,20.587554931640625,49.246212005615234,44.20480728149414,58.01213455200195
1,1860675,-5.352232456207275,-36.496280670166016,-6.617245197296143,9.927422523498535
1,1860677,-8.7180814743042,-36.12394714355469,-22.1860294342041,-147.78280639648438
1,1860679,14.197335243225098,14.765641212463379,-8.485757827758789,44.57949447631836
1,1860681,-17.98537826538086,-15.500484466552734,-0.4017537236213684,80.4302978515625
1,1860683,-2.37502384185791,26.070829391479492,36.7503547668457,-34.2899284362793
1,1860685,17.496217727661133,19.24720573425293,21.035419464111328,-6.003382682800293
1,1860687,-16.11163330078125,-65.20927429199219,-63.45800018310547,-81.4077377319336
1,1860689,-23.284950256347656,-13.686727523803711,-19.439451217651367,1.479749321937561
1,1860691,10.968276977539062,43.13191604614258,31.529560089111328,53.23206329345703
1,1860693,0.6261829137802124,-7.513859748840332,10.427051544189453,45.58169937133789
1,1860695,-3.200718879699707,-10.340229988098145,10.477152824401855,18.460588455200195
1,1860697,20.903596878051758,22.274038314819336,-9.966839790344238,-97.34848022460938
1,1860699,-4.640425205230713,-22.939468383789062,-12.537676811218262,9.959395408630371
1,1860701,-12.178909301757812,-27.33220863342285,-0.1248818039894104,42.67477798461914
1,1860703,-3.1215627193450928,39.532997131347656,7.50021505355835,-7.407948970794678
1,1860705,2.4125733375549316,21.917144775390625,-2.665778398513794,-1.8923894166946411
1,1860707,20.270244598388672,-36.047027587890625,-9.811697959899902,-21.74152946472168
1,1860709,9.512321472167969,-5.871072292327881,8.771927833557129,83.07904052734375
1,1860711,-10.465249061584473,19.803977966308594,-17.670373916625977,-139.2069854736328
1,1860713,-16.65976905822754,-6.556997299194336,1.6323645114898682,-105.91670227050781
