Aktueller Finger,timestamp_ms,sensor_0,sensor_1,sensor_2,sensor_3
0,270776,-22.833011627197266,-66.9799575805664,35.7520751953125,-266.5508728027344
0,270777,84.46681213378906,78.78416442871094,-60.572471618652344,477.82177734375
0,270779,-3.9832258224487305,34.185211181640625,2.98830509185791,-31.13335418701172
0,270781,-39.085235595703125,-43.11050796508789,24.876461029052734,-281.1747741699219
0,270783,42.50432205200195,3.1092522144317627,-53.41432571411133,254.4237060546875
0,270785,8.528214454650879,-0.18609550595283508,2.167731523513794,15.041332244873047
0,270787,-58.71593475341797,-44.790374755859375,76.00064849853516,-358.5038146972656
0,270789,32.7002067565918,24.79282569885254,-23.635189056396484,185.7176055908203
0,270791,55.29845428466797,74.58626556396484,-59.647796630859375,376.0884094238281
0,270793,-87.49080657958984,-64.87543487548828,55.30323028564453,-373.6888122558594
0,270795,-25.436342239379883,-63.34884262084961,44.12812042236328,-215.91908264160156
0,270797,84.33253479003906,104.721435546875,-54.84013748168945,443.98541259765625
0,270799,-23.55372428894043,45.95621109008789,-18.272754669189453,-77.81359100341797
0,270801,-24.08051109313965,-55.6340217590332,30.40984535217285,-221.4813232421875
0,270803,40.45811462402344,-31.587291717529297,-36.06073760986328,337.14813232421875
0,270805,-25.848243713378906,-36.771034240722656,-22.705032348632812,-90.56683349609375
0,270807,-25.277393341064453,-37.96589660644531,45.95130157470703,-464.698974609375
0,270809,43.25236129760742,78.43631744384766,11.379654884338379,255.96060180664062
0,270811,21.387958526611328,108.53619384765625,-17.147005081176758,441.55914306640625
0,270813,-69.40876007080078,-58.6716423034668,54.2204704284668,-373.68212890625
0,270815,-6.400561809539795,-53.590476989746094,16.953012466430664,-214.69216918945312
0,270817,83.676513671875,31.685665130615234,-97.28189086914062,484.2287902832031
0,270819,-25.70064926147461,-29.472694396972656,10.01146411895752,-121.37535858154297
0,270821,-37.8648567199707,-5.607619762420654,53.706443786621094,-343.416015625
0,270823,30.666994094848633,39.52506637573242,-37.877750396728516,320.2151184082031
0,270825,-25.446128845214844,7.850456714630127,15.817314147949219,-7.312753677368164
0,270827,-1.3979660272598267,-0.5401808619499207,23.457504272460938,-367.32293701171875
0,270829,31.262439727783203,-10.81102180480957,-52.694091796875,204.10110473632812
0,270831,-22.20794677734375,-30.017885208129883,-39.8986701965332,340.63177490234375
0,270833,-8.137742042541504,-61.38471984863281,92.40101623535156,-306.5267639160156
0,270835,33.02184295654297,7.266695499420166,48.731468200683594,-166.00897216796875
0,270837,11.304333686828613,102.87529754638672,-123.22299194335938,363.44775390625
0,270839,-68.06047821044922,10.156731605529785,4.707353115081787,-117.08260345458984
0,270841,3.006950616836548,-54.8175163269043,67.8192367553711,-183.13540649414062
0,270843,80.85521697998047,18.030467987060547,-59.31023406982422,302.6708679199219
0,270845,-58.60686111450195,30.8018741607666,8.995667457580566,-55.58842468261719
0,270847,-66.51402282714844,-43.01844024658203,72.0903549194336,-354.5167236328125
0,270849,83.32683563232422,-18.734172821044922,-51.302955627441406,222.42987060546875
0,270851,68.85784149169922,43.073970794677734,-74.5082778930664,365.89324951171875
0,270853,-80.83124542236328,-57.62568664550781,61.364479064941406,-381.41595458984375
0,270855,-38.22822570800781,-32.0415153503418,46.473907470703125,-187.06748962402344
0,270857,87.52867889404297,114.91503143310547,-65.889404296875,429.14495849609375
0,270859,-27.54153060913086,-1.1939915418624878,7.219100475311279,-205.9525909423828
0,270861,-95.40032958984375,-84.10185241699219,79.06497192382812,-212.0925750732422
0,270863,79.3545913696289,18.279190063476562,-4.598665237426758,426.4605407714844
0,270865,64.11418151855469,33.19537353515625,-32.99800109863281,-11.905881881713867
0,270867,-95.50904846191406,-33.553916931152344,-8.450587272644043,-406.44873046875
0,270869,27.76446533203125,8.261366844177246,-25.839406967163086,88.96546173095703
0,270871,59.92040252685547,52.978240966796875,-6.853010177612305,379.4713134765625
0,270873,-97.58988952636719,-69.43405151367188,41.979034423828125,-340.6260681152344
0,270875,-17.29961585998535,-9.742070198059082,-15.004911422729492,-260.2535400390625
0,270877,102.03364562988281,81.69330596923828,-45.13166809082031,531.1700439453125
0,270879,-3.1519999504089355,-40.51362609863281,50.34902572631836,-36.774139404296875
0,270881,-45.2780876159668,-25.54973602294922,11.504079818725586,-309.8855285644531
0,270883,34.28266906738281,48.101806640625,-55.048885345458984,273.40093994140625
0,270885,-9.984807014465332,7.828974723815918,45.296112060546875,-50.83831024169922
0,270887,-31.63723373413086,-58.736202239990234,52.06853103637695,-277.38641357421875
0,270889,-4.193946838378906,-20.313188552856445,-75.60936737060547,297.51580810546875
0,270891,-0.533300518989563,87.59178161621094,-42.803619384765625,212.60882568359375
0,270893,-14.684969902038574,1.9525572061538696,96.65327453613281,-476.5596618652344
0,270895,-7.004880428314209,-80.79058074951172,33.4162712097168,-81.67739868164062
0,270897,117.70500946044922,33.441856384277344,-73.97990417480469,477.7740478515625
0,270899,1.6589655876159668,12.48231029510498,-29.547975540161133,-205.66268920898438
0,270901,-143.0450897216797,-32.68336486816406,-18.2352294921875,-174.9918975830078
0,270903,100.70477294921875,40.0344352722168,-5.377385139465332,345.389892578125
0,270905,31.597291946411133,-12.209769248962402,67.23695373535156,-125.24082946777344
0,270907,-154.73297119140625,-44.22598648071289,41.48838806152344,-247.8720703125
0,270909,79.15055847167969,51.030174255371094,-46.417747497558594,273.2223815917969
0,270911,69.73516082763672,50.179779052734375,-37.8330078125,238.36099243164062
0,270913,-111.72804260253906,-76.92618560791016,59.78261947631836,-378.6757507324219
0,270915,-27.341466903686523,-22.259319305419922,33.352516174316406,-195.08750915527344
0,270917,98.67828369140625,81.57100677490234,-76.46418762207031,417.2815246582031
0,270919,-24.83741569519043,-61.14023208618164,-20.47064971923828,-109.60375213623047
0,270921,-62.292869567871094,-49.36284637451172,23.602157592773438,-280.5947570800781
0,270923,103.41532897949219,123.0059585571289,-1.215644121170044,334.30987548828125
0,270925,-4.91994047164917,-12.549498558044434,12.828774452209473,-6.515174388885498
0,270927,-74.53106689453125,-121.4842529296875,12.717011451721191,-319.1943359375
0,270929,57.44343185424805,66.14041137695312,-7.107046127319336,195.14962768554688
0,270931,40.659080505371094,71.11394500732422,-42.652854919433594,287.6553039550781
0,270933,-58.29451370239258,-73.54443359375,50.8906135559082,-346.4701843261719
0,270935,-25.34557342529297,-31.496437072753906,38.67672348022461,-188.0377655029297
0,270937,50.22404861450195,72.88079071044922,-98.56940460205078,462.9842529296875
0,270939,-15.360721588134766,-3.0933332443237305,22.98805809020996,-113.31787872314453
0,270941,-23.788009643554688,-54.54876708984375,41.207618713378906,-230.2329864501953
0,270943,46.37559509277344,53.0274543762207,-67.8295669555664,360.9128112792969
0,271198,56.53390121459961,48.64175033569336,20.263498306274414,3.203474998474121
0,271200,-114.28611755371094,-102.0854263305664,113.85685729980469,-605.7196044921875
0,271202,-232.8310546875,-147.85462951660156,42.54806137084961,-411.1288757324219
0,271204,154.42764282226562,57.818172454833984,-115.86055755615234,479.0551452636719
0,271206,256.2066955566406,147.1502227783203,-77.715087890625,557.3890991210938
0,271208,-71.3683090209961,11.31471061706543,40.045108795166016,-2.1746108531951904
0,271210,-55.30951690673828,9.15239143371582,-8.666945457458496,136.70907592773438
0,273080,55.62314987182617,104.09095001220703,-44.475502014160156,358.1871643066406
0,273081,-31.53141975402832,-52.476016998291016,31.005069732666016,-245.55892944335938
0,273084,-79.33494567871094,-159.65875244140625,80.92190551757812,-587.3026733398438
0,273085,42.43614196777344,47.14780807495117,-4.355895519256592,-6.370577335357666
0,273088,-50.865562438964844,23.970487594604492,-11.22415542602539,-179.13111877441406
0,273089,-109.22760772705078,-100.47563934326172,64.06197357177734,-388.03228759765625
0,273092,153.52378845214844,26.752500534057617,-47.36207580566406,510.6556701660156
0,273093,76.32323455810547,76.04871368408203,-79.9156723022461,422.3349304199219
0,273096,-100.90523529052734,-29.424665451049805,35.35196304321289,-336.1717224121094
0,273097,34.13016128540039,9.349749565124512,8.508204460144043,62.43134689331055
0,273100,46.504173278808594,114.3405532836914,-88.93852996826172,577.1758422851562
0,273101,-45.002567291259766,-10.418883323669434,11.161163330078125,-150.58578491210938
0,273104,-59.48932647705078,-90.93677520751953,118.6200942993164,-561.8218994140625
0,273105,3.362614631652832,8.131268501281738,-24.147602081298828,238.9573974609375
0,273108,21.76605987548828,-38.826904296875,4.57141637802124,-131.2924346923828
0,273109,-40.643798828125,-88.27745819091797,62.308895111083984,-588.5662841796875
0,273112,38.386905670166016,36.28965377807617,-84.46707916259766,401.5983581542969
0,273113,72.39441680908203,91.821533203125,-40.00223159790039,461.8182678222656
0,273116,-7.668334484100342,11.1156587600708,46.968284606933594,-165.6739501953125
0,273117,-22.292362213134766,-29.162565231323242,8.542335510253906,-18.095102310180664
0,273120,9.593876838684082,49.52101516723633,-29.060619354248047,303.2890319824219
0,273121,-36.32997512817383,26.36276626586914,-5.505669116973877,-155.20167541503906
0,273124,-51.93215560913086,-90.24453735351562,31.045307159423828,-452.8994445800781
0,273125,64.9674072265625,-6.561331748962402,-1.921006441116333,245.10433959960938
0,273128,-29.057931900024414,23.371070861816406,27.54973793029785,26.416080474853516
0,273129,-74.13663482666016,-67.34063720703125,42.585731506347656,-415.06298828125
0,273132,164.54408264160156,11.788338661193848,-99.955322265625,383.87353515625
0,273133,89.80233001708984,65.6907958984375,-52.21050262451172,346.1883544921875
0,273136,-175.97796630859375,15.308077812194824,68.42031860351562,-391.60333251953125
0,273137,-62.582191467285156,-10.739827156066895,-53.19877243041992,-50.5306282043457
0,273140,111.61224365234375,29.008848190307617,5.81601619720459,429.7575378417969
0,273141,-21.984346389770508,21.38367462158203,121.42736053466797,-94.06774139404297
0,273144,-71.59156036376953,-68.43550872802734,-0.9106987118721008,-423.8592834472656
0,273145,53.01027297973633,-10.117134094238281,-91.69961547851562,183.6062469482422
0,273148,2.8762402534484863,18.02660369873047,-6.7929158210754395,21.192214965820312
0,273149,-37.91231155395508,-45.38022994995117,88.78286743164062,-332.47833251953125
0,273152,52.24861526489258,28.822046279907227,-35.968955993652344,335.1874084472656
0,273153,27.672395706176758,40.289852142333984,-72.53710174560547,303.23193359375
0,273156,-30.16968536376953,-27.629573822021484,77.11018371582031,-347.6664733886719
0,273157,10.675755500793457,-24.325881958007812,22.489347457885742,-120.52266693115234
0,273160,35.535850524902344,34.9044303894043,-77.3519058227539,415.56781005859375
0,273161,-39.3579216003418,10.610730171203613,19.15397071838379,-87.1218032836914
0,273164,-65.7828598022461,-53.90205001831055,33.91270065307617,-443.15826416015625
0,273165,50.8411979675293,48.350521087646484,-70.19176483154297,303.1446838378906
0,273168,4.530594348907471,-2.4309539794921875,8.735113143920898,84.57939910888672
0,273169,-82.2584228515625,-93.53457641601562,67.83199310302734,-276.5928649902344
0,273172,75.84764099121094,88.01052856445312,-29.062095642089844,169.06356811523438
0,273173,73.41350555419922,67.09634399414062,-20.497968673706055,-45.826656341552734
0,273176,-79.94544219970703,-99.5875015258789,15.225589752197266,92.18952178955078
0,273177,-21.81485366821289,-7.016639232635498,-0.6704287528991699,215.68246459960938
0,273180,67.86959075927734,89.10774230957031,-5.051651477813721,-189.05511474609375
0,273181,-23.36360740661621,-21.43454933166504,10.9094877243042,-176.48867797851562
0,273184,-60.437721252441406,-69.21178436279297,5.209221839904785,-50.39027404785156
0,273185,76.47159576416016,37.53676223754883,-25.20676612854004,292.7290954589844
0,273188,-20.754798889160156,13.303631782531738,27.880176544189453,-71.09310150146484
0,273189,-98.76859283447266,-36.54184341430664,54.2104606628418,-416.24700927734375
0,273192,129.69700622558594,28.634292602539062,-58.73158264160156,404.5073547363281
0,273193,39.163658142089844,10.427251815795898,-45.24463653564453,282.16058349609375
0,273196,-126.93565368652344,-73.9450454711914,41.37484359741211,-472.3443908691406
0,273197,26.472171783447266,-2.335690498352051,-9.125930786132812,-73.09727478027344
0,273200,79.43058013916016,120.4798355102539,0.45855623483657837,454.9446716308594
0,273201,-31.008155822753906,-39.5781135559082,35.26207733154297,-109.59778594970703
0,273204,-58.22114181518555,-116.07945251464844,-39.83306121826172,-420.4953308105469
0,273205,45.78297424316406,106.04385375976562,-64.75113677978516,260.07330322265625
0,273208,-12.456808090209961,54.85676193237305,87.25799560546875,154.2814178466797
0,273209,-78.43392944335938,-96.29637145996094,101.93328857421875,-237.6419677734375
0,273212,77.65889739990234,26.08900260925293,-92.27336120605469,140.42967224121094
0,273213,4.418664932250977,20.907121658325195,-88.3592300415039,114.73505401611328
0,273216,-63.0421028137207,-61.37709426879883,53.897178649902344,-227.45655822753906
0,273217,82.4620132446289,26.877592086791992,54.630516052246094,-80.20074462890625
0,273220,34.530296325683594,72.98631286621094,-38.1638069152832,328.4808044433594
0,273221,-67.39183807373047,-16.47527313232422,-26.70629119873047,56.55509948730469
0,273224,11.323347091674805,-81.06856536865234,20.782302856445312,-310.6764221191406
0,273225,82.84077453613281,40.25017166137695,-18.209787368774414,164.21881103515625
0,273228,-64.04053497314453,20.96893882751465,8.907258987426758,-35.65938186645508
0,273229,-101.10001373291016,-74.36556243896484,53.72605895996094,-419.10235595703125
0,273232,64.54731750488281,39.720306396484375,-42.87974166870117,317.4665832519531
0,273233,41.29085159301758,43.56270217895508,-68.3243637084961,283.8739929199219
0,273236,7.292288780212402,-27.83219337463379,79.3067855834961,-435.5550537109375
0,273237,0.6689895391464233,-20.301090240478516,71.96334838867188,12.438617706298828
0,273240,-72.43872833251953,35.85494613647461,-76.79830932617188,497.23284912109375
0,273241,-18.82857894897461,20.560415267944336,-18.464658737182617,-172.87545776367188
0,273242,16.61383628845215,-50.44500732421875,59.84226989746094,-377.384521484375
0,273245,72.06333923339844,1.8650615215301514,-36.26136779785156,349.6283264160156
0,273246,32.66215515136719,34.11660385131836,-50.88805389404297,234.75460815429688
0,273249,-84.84149932861328,-24.625577926635742,12.658690452575684,-378.591796875
0,273250,2.3068721294403076,-8.046769142150879,8.296924591064453,-169.5499725341797
0,273253,42.08977127075195,20.52637481689453,6.49911642074585,203.77496337890625
0,273254,-63.090721130371094,-63.29850387573242,48.71666717529297,-125.70386505126953
0,273257,-12.106218338012695,-5.935156345367432,-5.6704840660095215,-1.8163824081420898
0,273258,105.01628875732422,90.42787170410156,-70.32980346679688,399.8645324707031
0,273261,-60.82924270629883,-53.57158660888672,30.942554473876953,-263.1583557128906
0,273262,-74.77936553955078,-48.10799026489258,43.330902099609375,-359.5090637207031
0,273265,114.87360382080078,134.2760009765625,-35.99275207519531,332.9863586425781
0,273266,25.325199127197266,44.60954666137695,-17.386241912841797,275.9593505859375
0,273269,-64.11368560791016,-114.60993194580078,43.822303771972656,-0.0706220418214798
0,273270,10.265510559082031,-47.99067306518555,19.06459617614746,29.162141799926758
0,273273,18.128522872924805,2.0917246341705322,-62.218910217285156,-258.490478515625
0,273274,-68.17271423339844,-26.8413028717041,22.4827880859375,-500.85546875
0,273277,14.301168441772461,154.37603759765625,11.193743705749512,323.2902526855469
0,273279,85.57198333740234,134.22195434570312,-68.02213287353516,722.7233276367188
0,273281,-34.16542053222656,-238.07229614257812,36.45981979370117,-414.4810485839844
0,273283,-16.41018295288086,-146.4813232421875,27.720815658569336,-560.9727172851562
0,273285,13.957616806030273,151.63490295410156,-30.31148910522461,335.2667541503906
0,273287,-37.952510833740234,55.28292465209961,3.7197458744049072,142.714111328125
0,273289,-42.38705825805664,-37.35565185546875,47.30094909667969,-340.7003479003906
0,273291,33.33982467651367,82.77307891845703,16.732547760009766,218.7054443359375
0,273293,73.83677673339844,-41.04182052612305,-69.50436401367188,504.34674072265625
0,273295,-24.844202041625977,-175.38809204101562,11.121613502502441,-607.87451171875
0,273297,-38.11805725097656,60.16333770751953,33.48693084716797,-306.8867492675781
0,273299,27.29547119140625,86.22244262695312,-55.791717529296875,720.3118896484375
0,273301,-21.074974060058594,0.6097166538238525,54.93659973144531,-423.09490966796875
0,273303,-30.101552963256836,55.34134292602539,57.93811798095703,-583.2688598632812
0,273305,26.612831115722656,-102.08297729492188,-113.36833953857422,1193.6939697265625
0,273307,-0.5295721292495728,-127.31182098388672,-54.3187141418457,733.07666015625
0,273309,-10.16679573059082,199.5276641845703,121.66724395751953,-1138.9818115234375
0,273311,33.03068923950195,185.7477264404297,21.036224365234375,-313.1528625488281
0,273313,80.65721893310547,-104.96300506591797,-89.97148132324219,584.1832275390625
0,273315,3.37754225730896,-152.0605926513672,58.34820556640625,-505.5063171386719
0,273317,-102.48628997802734,-63.87883758544922,0.10583405941724777,-130.04945373535156
0,273319,-8.629340171813965,116.95055389404297,-77.16387176513672,595.7962036132812
0,273321,2.940298080444336,36.82421112060547,71.65528106689453,-152.53248596191406
0,273323,-24.96654510498047,-119.13298797607422,38.335227966308594,-379.5889587402344
0,273325,71.55457305908203,31.1782169342041,-72.29993438720703,14.355555534362793
0,273327,-11.98813247680664,35.50202178955078,-29.812240600585938,158.74765014648438
0,273329,-76.92288208007812,-17.84784698486328,64.2119369506836,-54.718666076660156
0,273331,42.76927185058594,-11.253949165344238,-15.333571434020996,1.121303915977478
0,273333,64.36075592041016,-17.180953979492188,-47.76414489746094,259.28961181640625
0,273335,-56.06086349487305,20.13372039794922,129.69723510742188,-127.46198272705078
0,273337,-47.13947677612305,24.09748649597168,-57.12663269042969,105.78241729736328
0,273339,89.52169036865234,38.966304779052734,-216.4853973388672,487.7893981933594
0,273341,-38.219669342041016,-23.438121795654297,152.3146514892578,-488.79534912109375
0,273343,-82.14738464355469,-49.238670349121094,164.55154418945312,-478.5769348144531
0,273345,131.57456970214844,109.83709716796875,-100.1168441772461,536.8914184570312
0,273347,45.740684509277344,39.11886978149414,-31.116422653198242,85.23486328125
0,273349,-113.69432830810547,-139.51576232910156,13.908763885498047,-612.4044799804688
0,273351,0.15722154080867767,-22.87721061706543,-67.79606628417969,110.35066223144531
0,273353,52.90149688720703,40.343692779541016,-18.95654296875,494.18658447265625
0,273355,-49.84064483642578,-27.291112899780273,106.19218444824219,-289.69171142578125
0,273357,2.3893251419067383,47.66935729980469,36.37458419799805,-21.56243133544922
0,273359,92.0325698852539,70.3354721069336,-58.45101547241211,278.17755126953125
0,273361,-65.8591537475586,-129.34251403808594,9.29624080657959,-353.1962585449219
0,273363,-88.85936737060547,-119.5407485961914,18.053918838500977,2.2617483139038086
0,273365,72.39813232421875,248.85397338867188,-60.5315055847168,536.6309814453125
0,273367,57.858341217041016,183.20884704589844,-24.48490333557129,-146.57620239257812
0,273369,-34.33547592163086,-361.4815673828125,35.054290771484375,-819.4284057617188
0,273371,-62.047908782958984,-213.256103515625,-24.656497955322266,154.6078643798828
0,273373,-22.171329498291016,300.69158935546875,49.040611267089844,732.089111328125
0,273375,-9.913127899169922,123.92903900146484,106.7281723022461,-324.5120849609375
0,273377,159.04449462890625,-11.223980903625488,-51.885562896728516,223.56893920898438
0,273379,167.7254180908203,32.177066802978516,-74.92970275878906,721.7743530273438
0,273381,-249.76016235351562,-198.91526794433594,58.12797546386719,-930.7726440429688
0,273383,-152.73643493652344,-104.90512084960938,-36.52992630004883,-597.659423828125
0,273385,179.12161254882812,148.18212890625,-160.7815704345703,618.7413330078125
0,273387,-0.6646245121955872,44.87155532836914,38.30582046508789,110.88969421386719
0,273389,-84.92577362060547,-83.91384887695312,135.17559814453125,-338.5749206542969
0,273391,37.82931137084961,8.31482982635498,-20.026222229003906,-41.46294403076172
0,273393,14.040977478027344,85.08616638183594,23.072256088256836,397.3846740722656
0,273395,-43.239715576171875,-18.55837059020996,120.23670959472656,-35.316383361816406
0,273397,16.551252365112305,41.97178268432617,-89.2302017211914,-189.0084686279297
0,273399,56.947471618652344,115.51477813720703,-171.35678100585938,114.27792358398438
0,273401,0.41688475012779236,-222.17832946777344,69.2157211303711,-827.6842651367188
0,273403,-29.982282638549805,-186.6776580810547,68.83846282958984,-150.819091796875
0,273405,37.48095703125,215.77198791503906,-82.52991485595703,2210.451171875
0,273407,109.9147720336914,186.50112915039062,62.81721496582031,452.4129333496094
0,273409,-86.65869140625,-80.84587860107422,110.7529525756836,-2023.8662109375
0,273411,-142.132080078125,-131.2195587158203,-86.12647247314453,-243.4239044189453
0,273413,56.4530029296875,11.040858268737793,-85.5124282836914,514.3272094726562
0,273415,-4.786830902099609,31.942110061645508,29.46748924255371,-478.95428466796875
0,273417,25.1323184967041,17.703428268432617,-29.54479217529297,391.229248046875
0,273419,51.41405487060547,-55.188560485839844,-82.18310546875,615.1181640625
0,273421,-78.87940979003906,-59.794189453125,110.4935531616211,-445.7589111328125
0,273423,-11.314399719238281,14.717741966247559,133.0499267578125,-167.17245483398438
0,273425,47.28338623046875,72.05403900146484,-50.35176467895508,210.63494873046875
0,273427,-24.294715881347656,160.19337463378906,-55.23875427246094,-174.1632080078125
0,273429,-7.3757004737854,-122.64107513427734,2.1403703689575195,-310.01861572265625
0,273431,87.85539245605469,-132.01658630371094,45.70632553100586,198.9686279296875
0,273433,20.893007278442383,216.24046325683594,12.89876937866211,503.4288635253906
0,273435,-60.93722915649414,-1.278655767440796,-26.719074249267578,7.7815141677856445
0,273437,45.84072494506836,-127.34721374511719,-47.73867416381836,27.923036575317383
0,273439,16.73447036743164,-21.243955612182617,-103.976806640625,-65.68963623046875
0,273441,-148.9065399169922,-44.88706588745117,26.216569900512695,-493.9201354980469
0,273443,-2.5507054328918457,143.48556518554688,112.19257354736328,-136.69395446777344
0,273445,104.69664001464844,-22.2171573638916,-10.17829418182373,181.50621032714844
0,273447,-54.775150299072266,-217.52601623535156,41.583106994628906,95.0302734375
0,273449,-11.165632247924805,198.1243896484375,176.6885223388672,59.033348083496094
0,273451,90.05062103271484,203.47958374023438,-111.623291015625,371.578125
0,273453,-28.130199432373047,-156.7359619140625,-244.0550994873047,-174.6176300048828
0,273455,-112.08842468261719,-161.13552856445312,117.43206787109375,-771.8241577148438
0,273457,38.21497344970703,-163.9813995361328,-75.16561126708984,593.8292846679688
0,273459,157.8377685546875,111.67911529541016,-120.27068328857422,660.6519775390625
0,273461,-84.2880630493164,288.40789794921875,277.7337646484375,-769.837158203125
0,273463,-153.23147583007812,-96.52776336669922,31.014108657836914,-378.6612854003906
0,273465,91.4719009399414,-37.056640625,-172.46055603027344,367.7290954589844
0,273467,61.395790100097656,67.36978912353516,17.757051467895508,-3.7520124912261963
0,273469,-2.003897190093994,-166.5171661376953,67.45059967041016,-19.576824188232422
0,273471,39.30807876586914,-17.36564064025879,-10.648188591003418,364.07220458984375
0,273473,-27.18500328063965,191.65283203125,13.034395217895508,-205.30075073242188
0,273475,-72.8241195678711,-8.5204496383667,17.566524505615234,-429.98974609375
0,273478,26.563392639160156,-46.5714225769043,-89.03540802001953,922.2733154296875
0,273479,71.20118713378906,99.69375610351562,-0.44842660427093506,636.2649536132812
0,273482,-71.86145782470703,-121.01022338867188,119.05562591552734,-1256.501708984375
0,273483,-28.093778610229492,-103.69187927246094,39.95463943481445,-623.3404541015625
0,273487,31.788227081298828,84.67195892333984,-17.92997169494629,306.50018310546875
0,273487,-29.39675521850586,-13.682243347167969,-51.726593017578125,42.796756744384766
0,273488,49.864532470703125,1.5060069561004639,-45.57019805908203,536.2682495117188
0,273491,33.97077560424805,19.261110305786133,-39.59577941894531,445.36602783203125
0,273492,-48.62453079223633,-73.00907897949219,-86.40958404541016,-566.7557373046875
0,273495,-23.038314819335938,79.33181762695312,9.637994766235352,-290.6822814941406
0,273496,49.5107536315918,174.2112274169922,88.90629577636719,577.2332763671875
0,273499,9.050091743469238,-119.84521484375,66.03241729736328,-137.43411254882812
0,273500,-46.76101303100586,-114.16283416748047,59.78026580810547,-500.50604248046875
0,273503,-15.72734546661377,-5.590033531188965,-28.616653442382812,341.31390380859375
0,273504,53.149314880371094,-54.56673812866211,-68.57367706298828,655.6217651367188
0,273507,40.58607482910156,247.46705627441406,55.725460052490234,-427.2308044433594
0,273508,-17.236845016479492,262.39886474609375,54.83778381347656,-602.0655517578125
0,273511,10.165514945983887,-320.8985900878906,-138.97998046875,594.4739990234375
0,273512,-39.05312728881836,-285.34295654296875,-107.61200714111328,208.14588928222656
0,273515,-84.9664077758789,53.85680389404297,121.37196350097656,-827.1614990234375
0,273516,-30.353904724121094,-53.28551483154297,55.69365310668945,-445.97161865234375
0,273519,69.63621520996094,279.8073425292969,4.802690029144287,605.9227294921875
0,273520,55.14878845214844,12.500934600830078,51.49354934692383,348.85986328125
0,273523,-46.3162956237793,-359.8361511230469,-108.88773345947266,-172.38491821289062
0,273524,55.75634002685547,749.7671508789062,-103.30049133300781,270.21514892578125
0,273527,38.82875061035156,99.17674255371094,113.81045532226562,-88.21923065185547
0,273528,-60.31196594238281,-1059.881103515625,96.98751068115234,-168.80345153808594
0,273531,5.7581868171691895,138.68882751464844,-147.5572052001953,344.2811584472656
0,273532,-57.507816314697266,413.5503234863281,-74.53807830810547,-151.40357971191406
0,273535,-37.22331237792969,-99.51671600341797,164.39895629882812,-493.33111572265625
0,273536,51.40091323852539,44.299564361572266,49.98741149902344,-21.70393180847168
0,273539,42.34333801269531,82.755126953125,-43.558738708496094,456.52862548828125
0,273540,-13.145208358764648,-78.33866882324219,29.94198226928711,134.9812469482422
0,273543,7.096182823181152,-104.20755767822266,-50.6405029296875,-102.34066009521484
0,273544,60.71235656738281,123.31975555419922,-134.6063232421875,-48.637535095214844
0,273547,-80.05016326904297,-68.28899383544922,25.325475692749023,-322.7528076171875
0,273548,-97.3194351196289,-36.21312713623047,112.6960220336914,-220.96437072753906
0,273551,81.62825775146484,233.6721649169922,-6.135396480560303,472.4858703613281
0,273552,55.368202209472656,-33.03501892089844,31.13094139099121,83.07794952392578
0,273555,-61.437782287597656,-157.27734375,53.809940338134766,-357.8836364746094
0,273556,9.223162651062012,16.767404556274414,-69.72042846679688,738.6416015625
0,273559,45.43302536010742,83.03739166259766,-87.39881134033203,182.96092224121094
0,273560,-34.89778518676758,-0.39093920588493347,29.133825302124023,-849.5072631835938
0,273563,12.532007217407227,-98.63475036621094,27.93611717224121,-6.168888092041016
0,273564,60.64885330200195,-112.96853637695312,-98.2301025390625,326.06634521484375
0,273567,-55.22834777832031,54.42718505859375,68.14002990722656,-315.4722595214844
0,273568,-68.76605987548828,136.17982482910156,148.0497589111328,-273.96209716796875
0,273571,29.808250427246094,-26.948129653930664,-118.8064956665039,509.13604736328125
0,273572,14.143781661987305,-119.79046630859375,-90.89501190185547,332.62677001953125
0,273575,4.125176906585693,60.712745666503906,129.48953247070312,-399.82025146484375
0,273576,64.0224380493164,232.57992553710938,115.37979125976562,-256.90625
0,273579,46.78887939453125,-81.93708801269531,-20.684558868408203,340.97821044921875
0,273580,-70.18621826171875,-98.92302703857422,-72.415771484375,-0.2960605025291443
0,273583,-84.45661163330078,193.21566772460938,-102.96824645996094,-250.63320922851562
0,273584,58.5146369934082,-138.01248168945312,-72.08306121826172,486.6053161621094
0,273587,-17.256423950195312,-272.25433349609375,46.76750946044922,-273.0648498535156
0,273588,-74.56251525878906,56.118614196777344,36.488224029541016,-715.7620849609375
0,273591,67.80409240722656,78.16104125976562,-77.25736999511719,1123.915283203125
0,273592,47.451412200927734,82.89885711669922,43.08113479614258,676.33154296875
0,273595,-29.322223663330078,90.32805633544922,196.97158813476562,-1408.00390625
0,273596,-10.261394500732422,-96.73822021484375,7.750866889953613,-289.258056640625
0,273599,31.250844955444336,-71.40765380859375,-148.2938232421875,741.1194458007812
0,273600,-37.432979583740234,37.58203125,-62.726646423339844,-338.4336853027344
0,273603,-36.20370864868164,-32.128021240234375,46.911373138427734,-51.45830535888672
0,273604,86.68917083740234,-8.427913665771484,28.807828903198242,616.9130249023438
0,273607,-15.119407653808594,103.92955017089844,27.80778694152832,-439.6592712402344
0,273608,-81.19383239746094,6.134994029998779,39.74677276611328,-516.910400390625
0,273611,115.63427734375,72.77488708496094,-25.156394958496094,666.94580078125
0,273612,113.3704833984375,4.1038432121276855,-54.416358947753906,269.65032958984375
0,273615,-146.8251190185547,-288.3600158691406,-46.94511413574219,-483.1837463378906
0,273616,-131.27976989746094,16.993898391723633,-17.255353927612305,-125.84663391113281
0,273619,118.66919708251953,387.36602783203125,35.21340560913086,297.30865478515625
0,273620,23.349084854125977,120.94876098632812,70.13365936279297,-71.61808776855469
0,273623,-44.47105407714844,-377.9313659667969,16.455204010009766,-9.195794105529785
0,273624,39.86369323730469,-253.30909729003906,-68.8780517578125,345.36419677734375
0,273627,-85.87372589111328,134.0562744140625,13.594184875488281,-143.4822235107422
0,273628,14.434304237365723,123.04859161376953,120.7446060180664,23.612266540527344
0,273631,119.2652816772461,132.774658203125,-64.34295654296875,-44.46603012084961
0,273632,-40.48770523071289,82.45301818847656,-146.3191680908203,-606.4697875976562
0,273635,-47.166259765625,-186.11004638671875,71.31661224365234,168.51220703125
0,273636,20.1439208984375,-219.41180419921875,40.12066650390625,606.7171020507812
0,273639,5.681820392608643,131.86500549316406,-60.998512268066406,-124.7449722290039
0,273640,-44.41976547241211,154.07675170898438,70.5931167602539,-616.7857666015625
0,273643,22.050945281982422,-171.6793670654297,8.313913345336914,224.1114501953125
0,273644,104.8494644165039,39.05193328857422,-71.16050720214844,759.2867431640625
0,273647,-102.70410919189453,217.84161376953125,60.31248474121094,-532.927978515625
0,273648,-91.07737731933594,-29.277782440185547,52.714298248291016,-581.1105346679688
0,273651,137.74900817871094,-69.58232116699219,-90.18216705322266,500.2944030761719
0,273652,15.44570541381836,-99.37992095947266,-38.37186813354492,124.16802215576172
0,273655,-87.37918853759766,-76.42292022705078,119.108154296875,-122.72767639160156
0,273657,32.084503173828125,133.2835235595703,-20.248382568359375,249.3489227294922
0,273659,20.8015193939209,53.62769317626953,-141.3469696044922,-42.05345153808594
0,273661,-82.89762878417969,-16.11460304260254,42.39401626586914,-379.9153747558594
0,273663,26.331310272216797,27.73923110961914,62.27126693725586,135.9996337890625
0,273665,112.22565460205078,-102.81505584716797,-30.017492294311523,427.553955078125
0,273667,-54.67782974243164,-134.85911560058594,85.65771484375,-411.0688171386719
0,273669,-79.35643768310547,38.497318267822266,39.249759674072266,-201.1403045654297
0,273671,57.247100830078125,136.99789428710938,-172.91322326660156,566.7271118164062
0,273673,20.19393539428711,-61.44240188598633,-80.41146850585938,-301.0696105957031
0,273675,-29.90338134765625,-14.898896217346191,182.54579162597656,-390.6588439941406
0,273677,19.335304260253906,183.10496520996094,105.3532943725586,587.131591796875
0,273679,10.515460014343262,-64.23004150390625,-106.23377990722656,143.45274353027344
0,273681,-11.772705078125,-160.47940063476562,-44.57090759277344,-517.3693237304688
0,273683,29.725229263305664,99.95014953613281,-39.15852737426758,-36.17803955078125
0,273685,-11.524458885192871,54.363975524902344,-46.14509963989258,497.77020263671875
0,273687,-71.42765045166016,-113.12091827392578,118.17926025390625,-257.99853515625
0,273689,-12.882019996643066,-80.01891326904297,56.81437683105469,-450.7746887207031
0,273692,35.21525955200195,136.9381866455078,-90.1614761352539,667.1622924804688
0,273693,25.798215866088867,384.99615478515625,7.400221347808838,63.401649475097656
0,273696,38.26880645751953,-216.47000122070312,14.497466087341309,-522.4171752929688
0,273697,37.43606948852539,-421.4142150878906,-34.75041198730469,298.52227783203125
0,273700,-50.67937088012695,233.64942932128906,108.73117065429688,89.8729248046875
0,273701,-57.78666305541992,-20.81465721130371,48.65079116821289,-551.622314453125
0,273704,34.19034957885742,-85.2539291381836,-166.05833435058594,18.26394271850586
0,273708,-3.799175500869751,87.34270477294922,-6.274947166442871,330.49554443359375
0,273708,-42.809974670410156,-126.24652862548828,123.20149230957031,-98.40862274169922
0,273709,56.305538177490234,118.23841094970703,-95.59786224365234,138.47579956054688
0,273710,47.14982223510742,152.0732421875,-114.19554901123047,275.5139465332031
0,273713,-69.395263671875,-82.52700805664062,105.42926788330078,-268.68304443359375
0,273714,-93.88897705078125,-119.96282958984375,86.78324890136719,-492.85498046875
0,273717,66.42761993408203,51.95606994628906,-96.7241439819336,522.6695556640625
0,273718,80.39256286621094,138.2910614013672,-19.595932006835938,575.9453125
0,273721,-62.65412521362305,-115.17986297607422,155.82931518554688,-618.2998046875
0,273722,19.081689834594727,21.082155227661133,30.63644027709961,-330.75848388671875
0,273725,53.0318489074707,276.23394775390625,-192.37413024902344,506.1066589355469
0,273726,-60.4604377746582,-69.04708862304688,-56.73822021484375,100.69147491455078
0,273729,-12.41981029510498,-270.4222106933594,123.29085540771484,-218.38565063476562
0,273730,67.52521514892578,-60.174285888671875,1.5350000858306885,95.4478530883789
0,273733,-33.59002685546875,31.172426223754883,-26.208398818969727,-185.53074645996094
0,273734,-70.58158874511719,65.81494140625,41.45045852661133,-313.6739196777344
0,273737,63.855472564697266,77.89900207519531,-22.05500602722168,133.4081573486328
0,273738,45.74464797973633,-26.191007614135742,-23.959888458251953,177.44859313964844
0,273741,-77.26665496826172,-73.15592193603516,48.779640197753906,137.97653198242188
0,273742,-26.157384872436523,-23.63044548034668,-23.25465965270996,58.18219757080078
0,273745,65.05294799804688,84.02986907958984,-55.1427116394043,-170.8604278564453
0,273746,14.016853332519531,103.18997955322266,69.54151916503906,-71.32726287841797
0,273749,-33.22618103027344,-98.20539093017578,22.2834529876709,-89.19622039794922
0,273750,16.442020416259766,-109.40434265136719,-69.85977935791016,213.41807556152344
0,273753,-21.504606246948242,79.3161392211914,37.21803283691406,-21.74932289123535
0,273754,-30.146760940551758,16.86188316345215,52.45219421386719,-442.06268310546875
0,273757,35.85424041748047,-68.4346923828125,-100.09832000732422,497.29742431640625
0,273758,19.352096557617188,87.41801452636719,-44.121639251708984,463.31341552734375
0,273761,-3.445406198501587,126.5636978149414,119.15365600585938,-709.6248168945312
0,273762,11.365665435791016,-104.90166473388672,25.687110900878906,-256.7479248046875
0,273765,5.35037899017334,-146.6048126220703,-77.95713806152344,854.2029418945312
0,273766,-31.773744583129883,37.31180191040039,16.468292236328125,81.88917541503906
0,273769,-15.645752906799316,127.14263916015625,42.85414505004883,-818.7117919921875
0,273770,46.54468536376953,13.297612190246582,-53.42971420288086,252.90126037597656
0,273773,-41.49998092651367,-217.7152099609375,-8.849845886230469,298.2711486816406
0,273774,-75.22028350830078,-62.42048645019531,49.51011657714844,-601.3367309570312
0,273777,104.0927505493164,361.9196472167969,-44.25128936767578,139.72601318359375
0,273778,86.51556396484375,113.08650970458984,5.289026737213135,385.3202209472656
0,273781,-92.98301696777344,-384.6531066894531,49.324398040771484,-82.11649322509766
0,273782,-107.17074584960938,-146.83193969726562,-50.81597137451172,10.492311477661133
0,273785,86.1015625,450.2520446777344,-10.215848922729492,30.490575790405273
0,273786,138.26455688476562,250.23492431640625,52.558284759521484,-253.48313903808594
0,273789,-67.04131317138672,-483.93475341796875,1.7470678091049194,-84.44464874267578
0,273790,-85.53246307373047,-233.66954040527344,-81.82130432128906,495.6947937011719
0,273793,-15.508203506469727,215.64273071289062,15.300634384155273,-162.3426055908203
0,273794,8.71583080291748,65.71524047851562,126.55684661865234,-647.704345703125
0,273797,43.445133209228516,-5.992738723754883,-100.05591583251953,419.6885986328125
0,273798,-26.19013786315918,-71.33242797851562,-151.23236083984375,691.7816772460938
0,273801,-0.5696815252304077,-43.91230392456055,146.7477569580078,-273.1293640136719
0,273802,21.853837966918945,66.74056243896484,107.22998809814453,-538.1207885742188
0,273805,-37.4807243347168,3.8626697063446045,-116.46534729003906,65.50422668457031
0,273806,-11.108694076538086,34.094818115234375,4.739138126373291,57.86768341064453
0,273809,57.25273513793945,120.36045837402344,65.37528991699219,-118.90216827392578
0,273810,67.90338134765625,1.7754442691802979,-58.06586456298828,152.2734375
0,273813,-51.148780822753906,-77.647705078125,18.38789939880371,145.79782104492188
0,273814,-71.01322174072266,-23.88333511352539,48.11309814453125,5.468350410461426
0,273817,42.83995056152344,2.5744450092315674,-82.61119079589844,178.14892578125
0,273818,51.49681091308594,-12.53390121459961,-48.047855377197266,-51.36689376831055
0,273821,-56.576072692871094,-18.062959671020508,70.12877655029297,-509.0384521484375
0,273822,-59.43577194213867,-111.91973114013672,21.48944091796875,-31.45171356201172
0,273825,73.06227111816406,30.781536102294922,-32.653350830078125,460.5657043457031
0,273826,31.369224548339844,388.1697998046875,39.148048400878906,-10.195262908935547
0,273829,-66.9029312133789,-176.41461181640625,5.378850936889648,-258.64666748046875
0,273830,15.897562026977539,-357.050537109375,-79.20979309082031,219.48023986816406
0,273833,39.51828384399414,356.3645935058594,32.31414031982422,-27.847524642944336
0,273834,-35.20627212524414,1.0432419776916504,89.43185424804688,-330.3847961425781
0,273837,26.762144088745117,-251.05838012695312,-64.80894470214844,339.1995544433594
0,273838,7.921767234802246,120.36260223388672,-66.69647216796875,236.21510314941406
0,273841,-91.86328125,-28.505775451660156,63.567901611328125,-267.1414794921875
0,273842,39.319950103759766,-46.204952239990234,16.311298370361328,68.58160400390625
0,273845,61.16145324707031,128.40982055664062,-37.86939239501953,-59.99012756347656
0,273846,-71.50498962402344,-16.20479965209961,17.61739158630371,-278.2249450683594
0,273849,-4.922582149505615,-62.664302825927734,10.974626541137695,178.62124633789062
0,273850,100.55830383300781,24.425024032592773,-13.654131889343262,235.64471435546875
0,273853,-29.663604736328125,-11.136762619018555,10.656787872314453,-251.07070922851562
0,273854,-86.571044921875,72.10992431640625,17.96356201171875,-222.6606903076172
0,273857,74.4085693359375,21.110536575317383,-72.41299438476562,487.6747741699219
0,273858,29.672807693481445,-169.6888885498047,-42.917049407958984,296.9858703613281
0,273861,-79.74977111816406,145.40826416015625,133.7144775390625,-605.6920166015625
0,273862,12.098400115966797,210.77703857421875,25.08812713623047,-303.5643615722656
0,273865,56.709476470947266,-219.98081970214844,-115.05602264404297,437.8484802246094
0,273866,-39.56575012207031,-63.117401123046875,40.37544631958008,23.81903839111328
0,273869,-32.19076156616211,42.75357437133789,55.36211013793945,-161.4250946044922
0,273870,67.3460464477539,-81.53429412841797,-64.37351989746094,273.5517272949219
0,273873,-39.990325927734375,52.866634368896484,8.726557731628418,9.326120376586914
0,273874,-85.52853393554688,28.97506332397461,47.66718292236328,-284.8336181640625
0,273877,117.06826782226562,11.763592720031738,-61.544498443603516,136.60821533203125
0,273878,45.255821228027344,24.229049682617188,-26.915876388549805,205.22068786621094
0,273881,-96.37228393554688,-50.877071380615234,85.37493896484375,-371.98492431640625
0,273882,-2.1388630867004395,-43.027320861816406,-16.856237411499023,-125.72752380371094
0,273885,62.81880187988281,-31.18889808654785,-82.79114532470703,404.8736572265625
0,273886,-21.101953506469727,-27.474578857421875,27.879255294799805,-20.816818237304688
0,273889,-39.34940719604492,34.30805969238281,54.38463592529297,-135.8968963623047
0,273890,14.036231994628906,80.14837646484375,-2.2648096084594727,253.02182006835938
0,273893,-15.882450103759766,113.21762084960938,13.889216423034668,-183.32931518554688
0,273894,41.439449310302734,19.42322540283203,26.55323600769043,-394.4151306152344
0,273897,22.444948196411133,-78.01456451416016,-81.11965942382812,383.36993408203125
0,273898,-11.495073318481445,-2.719440460205078,-39.64523696899414,287.294677734375
0,273901,-52.57708740234375,-77.58525848388672,70.59176635742188,-478.87994384765625
0,273902,-20.716007232666016,-89.8321304321289,-13.582200050354004,12.798918724060059
0,273905,80.18177032470703,70.67524719238281,-24.324432373046875,319.1878662109375
0,273906,-49.43877029418945,28.168046951293945,37.126129150390625,-265.90557861328125
0,273909,-32.70241165161133,2.3917899131774902,-7.101777076721191,-52.07744598388672
0,273910,85.44415283203125,65.38209533691406,-45.92369079589844,359.03955078125
0,273913,-6.117295265197754,-19.65151596069336,26.225366592407227,-161.0133056640625
0,273914,-41.80190658569336,-65.13115692138672,70.50550842285156,-275.6136779785156
0,273917,27.317676544189453,-21.197917938232422,-69.3014144897461,459.4087829589844
0,273918,8.217763900756836,10.839706420898438,-45.39704132080078,-71.71678924560547
0,273921,-76.14332580566406,-50.16466522216797,93.9759292602539,-502.62982177734375
0,273923,-6.784961700439453,-14.625958442687988,-13.994376182556152,367.9917297363281
0,273925,115.23876953125,222.66505432128906,-3.533679485321045,142.3504638671875
0,273927,9.043185234069824,34.57367706298828,63.480262756347656,-354.1240234375
0,273929,-57.521053314208984,-199.18699645996094,-86.05652618408203,260.41912841796875
0,273931,-6.631819725036621,34.95496368408203,-75.5431900024414,305.6859130859375
0,273933,-6.81829309463501,34.46220779418945,71.95499420166016,-488.4939880371094
0,273935,-17.087160110473633,-94.80929565429688,49.68112564086914,-323.9451904296875
0,273938,36.381370544433594,112.11430358886719,-49.0627555847168,614.4454345703125
0,273939,39.376548767089844,111.23190307617188,-9.181714057922363,211.7698516845703
0,273941,-71.90498352050781,-187.88772583007812,53.201053619384766,-594.0186767578125
0,273943,-3.326535940170288,-107.83480834960938,-53.377418518066406,69.45367431640625
0,273945,34.91893005371094,150.2284698486328,-18.971214294433594,247.45347595214844
0,273947,-59.56018829345703,21.541057586669922,89.8819808959961,-357.35302734375
0,273949,57.42252731323242,-164.65428161621094,-18.112077713012695,104.2381591796875
0,273951,60.00492477416992,100.56206512451172,-64.04625701904297,573.3037109375
0,273953,-121.56654357910156,248.02125549316406,39.25105667114258,-242.80880737304688
0,273955,-23.184568405151367,-174.65640258789062,36.10360336303711,-577.71435546875
0,273957,118.25376892089844,-133.89805603027344,-55.59525680541992,416.49945068359375
0,273959,-10.303482055664062,157.73828125,-1.9212162494659424,238.94967651367188
0,273961,-66.13932037353516,-32.8881950378418,52.79710006713867,-468.3244323730469
0,273963,67.3017349243164,-31.40174674987793,-41.7805061340332,208.24131774902344
0,273965,31.056045532226562,34.50312423706055,-45.59645080566406,181.42697143554688
0,273967,-108.56355285644531,-59.67552185058594,55.95461654663086,-426.0035705566406
0,273969,6.027410984039307,-22.159202575683594,-6.302022457122803,159.0302276611328
0,273971,79.01367950439453,6.699435710906982,-63.166255950927734,400.5867614746094
0,273973,-74.83212280273438,-68.15996551513672,43.85489273071289,-379.1451721191406
0,273975,-33.801544189453125,50.10078811645508,42.7231559753418,-395.4246826171875
0,273977,116.71247863769531,193.09341430664062,-11.914694786071777,573.6561889648438
0,273979,-1.4081615209579468,-43.65694808959961,26.9959774017334,266.5562744140625
0,273981,-109.87275695800781,-162.1776123046875,-15.278637886047363,-678.84375
0,273983,30.83243751525879,44.047508239746094,-107.55970764160156,87.451171875
0,273985,52.06473159790039,80.32640838623047,52.98973083496094,350.01763916015625
0,273987,-84.67049407958984,-83.94666290283203,98.75960540771484,-292.6385498046875
0,273989,38.90912628173828,22.812618255615234,-72.91909790039062,327.0354309082031
0,273991,142.2274169921875,118.20001983642578,-9.41610336303711,290.7668151855469
0,273993,-89.27938079833984,-123.64977264404297,41.6703987121582,-643.5575561523438
0,273995,-89.33757781982422,-39.953697204589844,-3.759103775024414,-295.6739807128906
0,273997,100.23506927490234,128.06358337402344,-41.594688415527344,459.08056640625
0,273999,18.345516204833984,-74.76524353027344,-19.628341674804688,203.3837432861328
0,274001,-49.866764068603516,-57.036705017089844,90.80823516845703,-238.1226806640625
0,274003,36.35508728027344,88.4971694946289,10.79874038696289,164.6864776611328
0,274005,-63.099422454833984,-47.37452697753906,-133.08128356933594,-27.508127212524414
0,274007,-118.8208236694336,-34.606319427490234,1.133522868156433,-509.619384765625
0,274009,109.16018676757812,57.48354721069336,88.28986358642578,314.4715881347656
0,274011,129.36941528320312,-13.211697578430176,-20.369171142578125,478.30181884765625
0,274013,-117.2223129272461,-41.00912857055664,-28.015043258666992,-343.43304443359375
0,274015,-101.62577819824219,-42.090126037597656,4.407264709472656,-281.4920959472656
0,274017,115.38114166259766,72.6549301147461,0.22857823967933655,376.3049011230469
0,274019,58.0035400390625,90.10430908203125,33.50575637817383,136.86033630371094
0,274021,-59.770233154296875,39.07706832885742,42.4620246887207,-406.43408203125
0,274023,30.376684188842773,44.9334602355957,-23.75223159790039,115.34696960449219
0,274025,24.689558029174805,-122.14857482910156,-10.685739517211914,88.80571746826172
0,274027,-57.94778060913086,-139.35263061523438,3.592723846435547,-331.5469055175781
0,274029,0.8332863450050354,57.04341506958008,-51.610816955566406,391.4909973144531
0,274031,50.67051315307617,94.89265441894531,-17.502939224243164,344.076904296875
0,274033,-43.07101058959961,-95.49735260009766,41.95896911621094,-575.0726928710938
0,274035,-58.41687774658203,-102.79306030273438,27.090652465820312,-326.22216796875
0,274037,54.35434341430664,213.7118377685547,-32.15087127685547,508.06072998046875
0,274039,-9.73347282409668,71.38520812988281,-15.019845008850098,176.33375549316406
0,274041,-77.07929992675781,-204.7815399169922,37.68982696533203,-399.06707763671875
0,274043,60.54851150512695,58.87195587158203,-23.07401466369629,153.94259643554688
0,274045,225.6490020751953,58.9413948059082,-6.853813648223877,110.27328491210938
0,274047,-26.296571731567383,-119.29033660888672,29.168977737426758,-338.52459716796875
0,274049,-296.0760803222656,50.55662155151367,-20.5682373046875,191.28927612304688
0,274051,52.84791946411133,106.23075103759766,16.456819534301758,278.9864807128906
0,274053,154.19537353515625,-80.11991882324219,-8.867183685302734,-297.8074645996094
0,274055,-7.449198246002197,-89.5130844116211,12.00672435760498,-207.00128173828125
0,274057,42.87548065185547,139.7464141845703,62.93236541748047,473.42889404296875
0,274059,-162.0403594970703,24.248638153076172,-59.88776779174805,35.114627838134766
0,274061,-187.21444702148438,-185.4528350830078,-70.58943939208984,-554.43798828125
0,274063,184.31187438964844,138.6553192138672,9.967735290527344,459.41497802734375
0,274065,97.44713592529297,81.5684814453125,55.68156051635742,146.5614013671875
0,274067,-138.2071990966797,-247.184326171875,40.69886016845703,-769.81884765625
0,274069,-2.988328695297241,104.62618255615234,-56.98868942260742,181.09988403320312
0,274071,87.82319641113281,216.84266662597656,-26.96266746520996,504.5038757324219
0,274073,40.83353042602539,-149.91732788085938,27.816524505615234,-179.18930053710938
0,274075,-22.12031364440918,-145.03038024902344,3.4579527378082275,-303.723876953125
0,274077,15.341365814208984,91.00215148925781,-17.717021942138672,327.190673828125
0,274079,-19.78264045715332,20.683515548706055,-0.32565706968307495,384.88714599609375
0,274081,-61.11527633666992,-43.6107292175293,61.33446502685547,-430.26019287109375
0,274083,116.39115905761719,88.76914978027344,-3.570848226547241,-109.52298736572266
0,274085,-10.264603614807129,-81.75309753417969,-56.07371520996094,131.84982299804688
0,274087,-117.35316467285156,-107.70614624023438,41.53805160522461,-342.9764099121094
0,274089,107.62538146972656,172.7353057861328,16.592979431152344,335.0250549316406
0,274091,9.674529075622559,77.4538345336914,-66.72442626953125,372.7450866699219
0,274093,-97.23832702636719,-122.188232421875,6.074000835418701,-453.1171875
0,274095,2.931114912033081,-26.793310165405273,40.96721267700195,-203.50369262695312
0,274097,52.662208557128906,91.65385437011719,-44.52451705932617,357.9402160644531
0,274099,44.39723587036133,-8.433276176452637,-15.650592803955078,6.54917049407959
0,274101,-92.96393585205078,-105.633544921875,69.62601470947266,-476.1217041015625
0,274103,-7.847476005554199,58.41680908203125,-10.231443405151367,231.42161560058594
0,274105,85.5044937133789,67.16600036621094,-29.89506721496582,357.40509033203125
0,274107,-47.168739318847656,-90.68425750732422,67.53897857666016,-303.3300476074219
0,274109,27.35301399230957,12.37253189086914,-44.66750717163086,88.17797088623047
0,274111,29.993589401245117,49.93027877807617,-78.1213607788086,209.79165649414062
0,274113,-101.1434555053711,-77.44034576416016,63.84162902832031,-309.9722900390625
0,274115,-5.664892673492432,-32.004920959472656,34.00111389160156,-153.454833984375
0,274117,108.04916381835938,112.7571792602539,-42.796112060546875,375.33306884765625
0,274119,-7.320676803588867,65.23577880859375,-4.5440192222595215,77.40459442138672
0,274121,-95.3600845336914,-117.23007202148438,42.99125289916992,-430.3621520996094
0,274123,35.81156539916992,-43.38480758666992,-13.23073959350586,165.0556640625
0,274125,16.172306060791016,68.53419494628906,-33.60807800292969,226.56613159179688
0,274127,-57.10739517211914,-50.845375061035156,-12.29625415802002,-329.03485107421875
0,274129,63.039207458496094,36.654239654541016,7.8641815185546875,110.7776870727539
0,274131,29.84504508972168,108.94182586669922,38.5355339050293,213.47850036621094
0,274133,-53.321468353271484,-136.67481994628906,-16.607501983642578,-67.6111068725586
0,274135,-22.888179779052734,-108.41552734375,-13.699859619140625,-125.96699523925781
0,274137,21.641618728637695,161.1410369873047,8.923090934753418,-7.477687835693359
0,274139,54.639244079589844,53.11374282836914,-3.677551746368408,134.43667602539062
0,274141,-25.12787437438965,-127.99022674560547,32.58893966674805,-237.97964477539062
0,274143,-6.112656593322754,24.822690963745117,-26.829246520996094,124.52050018310547
0,274145,20.96659278869629,104.54080963134766,6.701618671417236,156.39334106445312
0,274147,-78.00932312011719,-14.051087379455566,53.677188873291016,-389.3673400878906
0,274149,35.54434585571289,-106.55018615722656,-81.74596405029297,283.8262023925781
0,274151,48.25449752807617,-43.97334671020508,-58.65577697753906,386.7139892578125
0,274153,-71.68627166748047,71.97007751464844,73.79460144042969,-529.5406494140625
0,274155,28.628358840942383,59.20326232910156,81.74130249023438,-273.4567565917969
0,274157,60.43553924560547,-11.315065383911133,-43.590450286865234,553.9254150390625
0,274159,-52.114444732666016,-56.808372497558594,-56.945186614990234,-50.52397155761719
0,274161,-54.41102981567383,-4.444395065307617,51.387882232666016,-431.3255920410156
0,274163,75.67232513427734,51.295799255371094,-17.1202449798584,352.13214111328125
0,274166,-2.853879451751709,1.7905702590942383,-17.504562377929688,71.81553649902344
0,274167,-77.0000228881836,-33.70486831665039,58.228904724121094,-392.2523193359375
0,274170,90.71698760986328,42.1446647644043,-24.23358154296875,305.4346008300781
0,274171,38.600074768066406,48.20370101928711,-44.20033264160156,343.895751953125
0,274174,-89.38776397705078,-73.30982971191406,14.950112342834473,-365.3929138183594
0,274175,2.459568500518799,-30.867040634155273,25.950984954833984,-189.5446319580078
0,274178,22.698314666748047,59.5362434387207,-35.38044357299805,298.91845703125
0,274182,-50.450618743896484,-61.28611755371094,-6.74419641494751,77.76061248779297
0,274182,24.597980499267578,-68.17961120605469,28.27516746520996,-79.3718490600586
0,274183,54.650047302246094,94.538818359375,-59.8775749206543,-14.026789665222168
0,274184,-34.254241943359375,55.42230987548828,20.879623413085938,-149.91615295410156
0,274187,-35.88200759887695,-106.02776336669922,73.8582763671875,-169.10934448242188
0,274188,12.83138656616211,-27.90683364868164,-23.601341247558594,62.49457931518555
0,274191,49.37926483154297,142.88348388671875,-17.28721809387207,254.03695678710938
0,274192,-22.19169044494629,26.25868034362793,39.1334342956543,-220.08932495117188
0,274195,-0.2328270971775055,-71.80912780761719,-6.573173999786377,-106.20742797851562
0,274196,113.66899871826172,13.50554370880127,-48.454769134521484,534.7505493164062
0,274199,-106.26549530029297,-34.15019989013672,-5.392963409423828,-261.9578552246094
0,274200,-156.91455078125,-76.95953369140625,26.876270294189453,-496.7098693847656
0,274203,129.90013122558594,16.362300872802734,3.6277453899383545,463.29296875
0,274204,92.96561431884766,49.832305908203125,-14.751310348510742,240.67779541015625
0,274207,-87.32431030273438,22.989376068115234,39.71229934692383,-390.49542236328125
0,274208,-11.380635261535645,21.246002197265625,-7.119316101074219,47.71773910522461
0,274211,52.637569427490234,31.386186599731445,-39.98366165161133,366.7587585449219
0,274212,-42.42601776123047,-71.22210693359375,54.50993347167969,-167.63035583496094
0,274215,-57.35544204711914,-99.52527618408203,-55.37381362915039,-344.7926330566406
0,274216,52.140296936035156,113.91228485107422,-69.91397857666016,123.22991180419922
0,274219,44.7537841796875,-12.641778945922852,81.34503936767578,141.8849334716797
0,274220,-30.292469024658203,-85.751953125,20.668519973754883,-173.95387268066406
0,274223,6.942747592926025,177.24537658691406,-18.201208114624023,151.517822265625
0,274224,9.308439254760742,29.00153923034668,-12.640857696533203,199.0611114501953
0,274227,-9.22625732421875,-132.05966186523438,32.1605110168457,-267.7642517089844
0,274228,-6.596494197845459,-21.82221794128418,16.196340560913086,6.563088893890381
0,274231,23.73802947998047,50.4988899230957,-77.90127563476562,298.4707336425781
0,274232,-44.83667755126953,-47.6629638671875,38.13550567626953,-291.17181396484375
0,274235,6.4205498695373535,11.604071617126465,62.876773834228516,-66.14253997802734
0,274236,116.1339111328125,109.36985778808594,-75.07755279541016,461.1507873535156
0,274239,-118.92443084716797,-84.77487182617188,-6.838138580322266,-352.19189453125
0,274240,-118.58601379394531,-65.25591278076172,80.13539123535156,-320.3698425292969
0,274243,152.0045928955078,80.64688110351562,-41.791969299316406,461.3614501953125
0,274244,105.07769775390625,40.73699951171875,-73.86639404296875,131.63638305664062
0,274247,-79.18196105957031,-90.60133361816406,74.75428009033203,-450.4132385253906
0,274248,-73.17744445800781,-16.994970321655273,39.22502136230469,-68.7837905883789
0,274251,7.458911418914795,90.05201721191406,-80.51441192626953,452.4497985839844
0,274252,-2.2629613876342773,-58.44425964355469,-4.622275352478027,-121.33897399902344
0,274255,17.053298950195312,7.392726898193359,18.45461082458496,-186.90940856933594
0,274256,50.504573822021484,85.16171264648438,-12.396360397338867,291.84234619140625
0,274259,-58.02339172363281,-63.078346252441406,44.03541564941406,-168.81105041503906
0,274260,-64.02493286132812,-58.175113677978516,51.759552001953125,-281.7389831542969
0,274263,107.50933074951172,34.955196380615234,-37.67460632324219,213.2554931640625
0,274264,10.452461242675781,-6.546710968017578,-128.7837371826172,231.4587860107422
0,274267,-75.44452667236328,-15.679905891418457,29.020769119262695,-181.25201416015625
0,274268,79.84565734863281,59.6834831237793,135.05274963378906,-110.22682189941406
0,274271,-29.63459587097168,1.217367172241211,-65.78239440917969,200.34706115722656
0,274272,-93.90074157714844,-26.092819213867188,-12.98494815826416,-204.09619140625
0,274275,94.125732421875,25.05543327331543,76.3512954711914,59.75856399536133
0,274276,74.2069091796875,6.897476673126221,-79.73677825927734,337.2247314453125
0,274279,-100.86323547363281,-45.36290740966797,-13.858728408813477,-415.75811767578125
0,274280,-34.167816162109375,1.9720362424850464,86.36902618408203,-168.45143127441406
0,274283,74.68997955322266,51.61229705810547,-54.971927642822266,458.42083740234375
0,274284,0.3886753022670746,-12.932907104492188,-70.49243927001953,101.64258575439453
0,274287,-59.444210052490234,-66.3941421508789,65.07025909423828,-388.26416015625
0,274288,-4.928644180297852,35.247398376464844,40.30485534667969,-42.77618408203125
0,274291,36.337520599365234,-21.146636962890625,-82.00205993652344,321.0145263671875
0,274292,2.328763008117676,-106.96328735351562,5.497059345245361,-139.84735107421875
0,274295,39.6856689453125,147.9414825439453,76.17845916748047,-48.02890396118164
0,274296,25.411800384521484,80.48848724365234,-44.5419921875,232.2309112548828
0,274299,-91.52983856201172,-136.86326599121094,38.194427490234375,-267.5266418457031
0,274300,-53.433937072753906,-19.26773452758789,46.191524505615234,-212.66238403320312
0,274303,81.18794250488281,67.64115905761719,-134.59263610839844,327.6831359863281
0,274304,26.48965835571289,57.64320373535156,-47.34019088745117,145.47393798828125
0,274307,-76.04365539550781,-34.5979118347168,148.16830444335938,-284.5381164550781
0,274308,10.903249740600586,-55.25965881347656,50.988990783691406,-40.406959533691406
0,274311,86.14537048339844,48.937400817871094,-101.37076568603516,288.68182373046875
0,274312,-51.041465759277344,-20.280044555664062,-39.18404006958008,-140.18218994140625
0,274315,-16.823890686035156,-20.24815559387207,8.07601547241211,-48.13734817504883
0,274316,104.38521575927734,71.70582580566406,30.84497833251953,334.5516357421875
0,274319,-82.87947082519531,-13.74168586730957,73.91654968261719,-341.7886657714844
0,274320,-102.85673522949219,-56.424644470214844,-2.1922504901885986,-335.3504333496094
0,274323,117.23319244384766,-23.289880752563477,-116.28681182861328,488.9460144042969
0,274324,77.94298553466797,-19.4804630279541,-40.969200134277344,167.55120849609375
0,274327,-90.29527282714844,-3.7364554405212402,113.3643798828125,-509.1622009277344
0,274328,-52.93133544921875,68.3559341430664,36.25271224975586,5.324306964874268
0,274331,40.33734893798828,60.4803352355957,-92.73915100097656,435.0973815917969
0,274332,-2.64595365524292,-70.3643798828125,7.457337856292725,-212.41905212402344
0,274335,27.955907821655273,16.10146713256836,57.498897552490234,-68.8422622680664
0,274336,30.607398986816406,64.15970611572266,-35.904991149902344,332.5044860839844
0,274339,-92.97321319580078,-113.1666259765625,17.75779151916504,-306.79937744140625
0,274340,-34.964744567871094,-36.42073059082031,40.593318939208984,-212.39414978027344
0,274343,37.01829147338867,83.29869079589844,-60.94013595581055,339.1737060546875
0,274344,50.93775939941406,43.78131866455078,1.2266401052474976,117.38663482666016
0,274347,7.392960071563721,-70.93822479248047,25.445703506469727,-294.863037109375
0,274348,-6.044529438018799,-95.79669952392578,-56.992801666259766,-62.31707000732422
0,274351,34.31591033935547,136.1397247314453,1.667890191078186,332.26800537109375
0,274352,-86.41951751708984,64.75054168701172,68.3286361694336,-240.1532440185547
0,274355,0.5365943908691406,-111.37483215332031,-11.269050598144531,-87.8586654663086
0,274356,103.24382781982422,25.973600387573242,-57.384971618652344,471.57373046875
0,274359,-53.264278411865234,-2.747480630874634,33.645179748535156,-298.4370422363281
0,274360,-14.152365684509277,-50.525184631347656,24.1090087890625,-295.4822998046875
0,274363,71.04752349853516,72.29053497314453,-52.14555740356445,400.4824523925781
0,274364,-1.7423523664474487,30.942228317260742,14.719756126403809,148.0696258544922
0,274367,-68.60771179199219,-88.29124450683594,65.38688659667969,-295.35394287109375
0,274368,-50.40504837036133,-11.350815773010254,-14.584824562072754,-65.5083999633789
0,274371,22.614734649658203,77.49066925048828,-30.033641815185547,172.03338623046875
0,274373,-9.74380874633789,-10.447108268737793,24.71982192993164,-216.1725311279297
0,274375,49.77432632446289,-29.112051010131836,-27.844148635864258,62.72035598754883
0,274377,117.3375015258789,17.725801467895508,-52.0654411315918,348.4564514160156
0,274379,-102.0369644165039,-12.6851806640625,50.55656433105469,-334.2467041015625
0,274381,-132.8231964111328,-42.825653076171875,42.37202453613281,-176.1810760498047
0,274383,117.61730194091797,44.412349700927734,-51.048240661621094,274.8094177246094
0,274385,59.36836624145508,71.58785247802734,-3.6741678714752197,-40.048316955566406
0,274387,-121.45237731933594,-68.1858901977539,67.84081268310547,-137.46067810058594
0,274389,9.808969497680664,-20.320449829101562,-14.329522132873535,199.2996368408203
0,274391,72.18577575683594,36.64198684692383,-37.9226188659668,121.82994842529297
0,274393,-66.53550720214844,-45.36983108520508,10.238656044006348,-371.55267333984375
0,274395,34.57503128051758,53.49579620361328,-79.18103790283203,81.18401336669922
0,274397,74.53919219970703,38.669803619384766,-46.611942291259766,470.0439453125
0,274399,-109.35668182373047,-112.75205993652344,115.48416137695312,-309.48699951171875
0,274401,-19.708635330200195,-25.386640548706055,53.05134582519531,-282.8231201171875
0,274403,85.781982421875,74.48282623291016,-65.12451171875,241.9335174560547
0,274405,-7.291972637176514,56.78004455566406,3.0449459552764893,-55.258056640625
0,274408,-40.924259185791016,-63.19940185546875,20.51755714416504,30.290851593017578
0,274409,29.705585479736328,-51.165863037109375,-28.707881927490234,312.03985595703125
0,274412,27.060314178466797,70.03251647949219,34.626773834228516,-236.1988525390625
0,274413,-61.69444274902344,-15.148102760314941,35.81744384765625,-417.4844665527344
0,274416,19.505098342895508,22.69245719909668,-58.94317626953125,284.4400329589844
0,274417,36.734012603759766,62.88819122314453,-38.90330123901367,306.8919372558594
0,274420,-57.92617416381836,-138.33120727539062,53.011314392089844,-381.7735595703125
0,274421,-7.182614803314209,-58.397193908691406,31.476795196533203,-158.35794067382812
0,274422,62.66749954223633,169.22964477539062,-56.180355072021484,577.9638671875
0,274425,-3.86364483833313,18.767534255981445,-7.002837657928467,-42.631805419921875
0,274426,-58.19108200073242,-88.53498077392578,54.00782012939453,-566.9051513671875
0,274429,64.731689453125,33.09835433959961,-25.06608772277832,349.6670227050781
0,274430,17.696514129638672,7.07468318939209,-40.221038818359375,370.47552490234375
0,274434,-76.06316375732422,-75.17587280273438,1.5437732934951782,-293.5422668457031
0,274435,41.82646560668945,-2.319725751876831,17.36018943786621,-63.11308670043945
0,274436,16.098299026489258,59.10700988769531,16.7901611328125,95.45651245117188
0,274439,-7.493567943572998,-4.634082317352295,3.5479238033294678,-256.7668151855469
0,274440,0.31823644042015076,-28.60416030883789,5.466034889221191,-154.10536193847656
0,274443,-16.071470260620117,32.7984619140625,-51.60298538208008,346.0146484375
0,274444,67.42161560058594,52.43337631225586,5.859915256500244,139.11216735839844
0,274447,-81.03455352783203,-56.820255279541016,92.14189147949219,-373.7112121582031
0,274448,-92.71907043457031,-36.756900787353516,-13.446738243103027,10.948461532592773
0,274451,72.8125228881836,70.28466796875,-55.1352424621582,310.1650085449219
0,274452,-13.42219066619873,-42.1011962890625,9.10142707824707,-286.0270080566406
0,274455,37.629234313964844,-19.988515853881836,13.286131858825684,-21.142213821411133
0,274456,44.693363189697266,76.14321899414062,-18.068777084350586,445.6402893066406
0,274459,-80.91952514648438,-33.56888961791992,20.8861026763916,-366.7709655761719
0,274460,-8.495025634765625,-44.50950622558594,19.681550979614258,-263.5263977050781
0,274463,43.377872467041016,-21.149839401245117,-57.77684020996094,640.8724975585938
0,274464,2.7194056510925293,14.845812797546387,-23.61134910583496,179.32765197753906
0,274467,-11.757861137390137,57.12031936645508,43.44992446899414,-595.2325439453125
0,274468,27.86273956298828,-28.41109275817871,0.608894407749176,-171.57012939453125
0,274471,42.57741928100586,-20.323667526245117,-10.958169937133789,298.6566162109375
0,274472,-27.88849639892578,13.74952507019043,64.77323913574219,-123.2130126953125
0,274475,-40.097869873046875,1.215972900390625,-29.173559188842773,149.78855895996094
0,274476,9.835186958312988,19.871078491210938,-105.35787200927734,406.4408264160156
0,274479,-33.58665084838867,-3.645918607711792,66.15141296386719,-509.62762451171875
0,274480,-11.719095230102539,0.7863664031028748,64.61744689941406,-287.1953125
0,274483,81.3567123413086,32.12851333618164,-52.57181930541992,452.98828125
0,274484,17.72209930419922,-20.653242111206055,3.1790828704833984,13.831910133361816
0,274487,-67.61543273925781,-54.73997116088867,34.042545318603516,-263.9305114746094
0,274488,7.229659557342529,41.5430908203125,-33.20598602294922,142.48876953125
0,274491,21.229015350341797,66.48153686523438,-32.592838287353516,163.10540771484375
0,274492,-63.6596565246582,-85.72284698486328,48.20389938354492,-352.468505859375
0,274495,40.9526481628418,-78.10578155517578,-16.859073638916016,108.7517318725586
0,274496,64.79821014404297,78.57965850830078,-53.67747497558594,450.5835876464844
0,274499,-64.90826416015625,35.37165832519531,86.7791748046875,-404.212890625
0,274500,-28.52318000793457,-22.968923568725586,41.926578521728516,-231.18597412109375
0,274503,17.42401885986328,20.588428497314453,-93.07801055908203,367.25927734375
0,274504,6.971893787384033,4.373158931732178,-19.57933235168457,-1.679157018661499
0,274507,-1.5240453481674194,-73.61518859863281,29.621131896972656,-188.36705017089844
0,274508,10.63428783416748,-9.052287101745605,-23.51862335205078,173.35516357421875
0,274511,57.6578483581543,84.42514038085938,31.464982986450195,103.5341567993164
0,274512,-54.83583068847656,-79.91193389892578,51.24705505371094,-344.5616455078125
0,274515,-6.6178998947143555,35.384456634521484,-12.855653762817383,77.55583190917969
0,274516,86.86892700195312,137.12709045410156,-51.06875228881836,384.1962890625
0,274519,-101.05323791503906,-103.5521011352539,21.098621368408203,-320.79925537109375
0,274520,-37.0242919921875,-60.35595703125,47.69326400756836,-318.6342468261719
0,274523,78.47444915771484,67.45560455322266,-88.06311798095703,370.0565185546875
0,274524,-12.297887802124023,29.632465362548828,-22.829994201660156,234.31875610351562
0,274527,-13.41061782836914,-54.26197814941406,83.21015930175781,-334.9239501953125
0,274528,21.240339279174805,-20.826305389404297,-14.073445320129395,-41.60527801513672
0,274531,13.92992877960205,53.32402801513672,-35.10844039916992,243.31881713867188
0,274532,-45.575096130371094,-16.121305465698242,33.62949752807617,-278.7110595703125
0,274535,-3.2555339336395264,-7.127151012420654,-5.241059303283691,159.65194702148438
0,274536,64.71150207519531,-0.2917976677417755,-47.36979675292969,479.8025207519531
0,274539,-48.99917221069336,-84.17877960205078,54.28614807128906,-534.5589599609375
0,274540,-19.24661636352539,29.847469329833984,61.533302307128906,-368.4009704589844
0,274543,69.22410583496094,86.69725799560547,-67.98080444335938,463.9253845214844
0,274544,-59.00666046142578,-37.55221939086914,-36.5525016784668,64.7000503540039
0,274547,-33.103824615478516,-42.137977600097656,38.743736267089844,-310.3008728027344
0,274548,82.90900421142578,49.531124114990234,-2.6038320064544678,204.28880310058594
0,274551,-19.442277908325195,39.83287811279297,-19.502809524536133,237.97476196289062
0,274552,-65.10814666748047,-52.43187713623047,31.68805694580078,-376.3171691894531
0,274555,33.2236442565918,26.105487823486328,-20.189298629760742,-8.56806755065918
0,274556,59.69738006591797,71.4233627319336,-53.098384857177734,396.63079833984375
0,274559,-52.01856231689453,-106.73748779296875,68.60399627685547,-264.6374206542969
0,274560,-38.43347930908203,-94.74849700927734,39.878807067871094,-183.97540283203125
0,274563,77.05980682373047,101.93630981445312,-50.91170883178711,299.7811584472656
0,274564,1.0911109447479248,75.04439544677734,-10.852208137512207,-32.173553466796875
0,274567,-29.026592254638672,-93.97428894042969,40.52800369262695,-176.8101043701172
0,274568,36.264923095703125,-31.996931076049805,-21.046377182006836,126.76502990722656
0,274571,-34.95192337036133,79.86160278320312,-31.17374038696289,52.87483596801758
0,274572,-102.25589752197266,-37.244476318359375,52.080753326416016,-203.15101623535156
0,274575,31.54264259338379,-16.87613296508789,-48.13070297241211,149.01174926757812
0,274576,107.79138946533203,94.303466796875,-47.349029541015625,172.5050506591797
0,274579,-30.969764709472656,-21.29144287109375,87.45989227294922,-341.1805725097656
0,274580,-20.189558029174805,-64.86402893066406,7.867608070373535,-40.51543045043945
0,274583,34.1051139831543,11.469534873962402,-60.503990173339844,343.87396240234375
0,274584,-64.71481323242188,-16.380046844482422,5.792626857757568,-79.63282012939453
0,274587,-4.592350006103516,-12.400186538696289,37.73919677734375,-239.89418029785156
0,274588,91.77033996582031,73.7497787475586,-12.408285140991211,192.26235961914062
0,274591,9.798578262329102,35.181846618652344,-16.45056915283203,146.47406005859375
0,274592,-86.92674255371094,-89.32962799072266,22.613100051879883,-319.4936828613281
0,274595,2.287891387939453,-26.168798446655273,-12.804640769958496,31.856496810913086
0,274596,87.02935028076172,61.31614685058594,-13.270368576049805,352.12176513671875
0,274599,-66.20845031738281,-13.272553443908691,28.82607650756836,-323.1357727050781
0,274600,-50.33588790893555,-29.22304344177246,6.859391212463379,-185.52255249023438
0,274603,78.00602722167969,52.53123092651367,-35.05180358886719,522.7538452148438
0,274604,-2.001904249191284,33.371788024902344,4.69530725479126,33.73630142211914
0,274607,-57.42411804199219,-57.81316375732422,39.6668586730957,-469.1760559082031
0,274608,28.663721084594727,6.067412853240967,-10.264617919921875,88.24453735351562
0,274611,42.63771057128906,4.606629848480225,-28.21893882751465,119.9830322265625
0,274612,-38.43003845214844,-92.21649932861328,21.318313598632812,-305.3105773925781
0,274615,38.35179901123047,88.9985122680664,17.84691619873047,311.96630859375
0,274616,46.515743255615234,86.08682250976562,-29.662508010864258,280.6299743652344
0,274619,-124.8059310913086,-162.6986541748047,-6.503411293029785,-447.39715576171875
0,274620,-51.52195358276367,-45.81794738769531,3.8174660205841064,-28.73183822631836
0,274623,136.59254455566406,148.1205291748047,-10.133109092712402,315.0581970214844
0,274624,36.620384216308594,44.035953521728516,26.806055068969727,-42.32367706298828
0,274627,-108.28204345703125,-118.33883666992188,15.17732048034668,-223.8894500732422
0,274628,-17.834943771362305,-3.211766004562378,-73.45025634765625,28.648630142211914
0,274631,39.40960693359375,90.13069915771484,13.080952644348145,201.585205078125
0,274632,-0.17461389303207397,-19.526805877685547,95.437744140625,-179.3497772216797
0,274635,36.79481506347656,-6.638933181762695,-73.49116516113281,7.2813262939453125
0,274636,20.470666885375977,-4.015681743621826,-46.49616622924805,344.0564270019531
0,274639,-58.79483413696289,-36.38568115234375,94.26905059814453,-315.1687316894531
0,274640,-11.87673282623291,7.350107192993164,15.229679107666016,-247.60287475585938
0,274643,39.5113639831543,33.061824798583984,-57.78036880493164,368.87945556640625
0,274644,-7.980301380157471,30.912572860717773,20.039827346801758,39.73822021484375
0,274647,-41.75835418701172,-57.541526794433594,34.00238037109375,-273.3689880371094
0,274648,18.764942169189453,-58.29615020751953,-88.45222473144531,131.2950897216797
0,274651,48.242767333984375,62.654502868652344,9.407955169677734,73.75106811523438
0,274652,-74.00794219970703,3.368558645248413,94.81299591064453,-342.1834411621094
0,274655,7.327418804168701,-7.790413856506348,-72.98701477050781,343.2599792480469
0,274656,113.04251098632812,58.62843322753906,-55.134979248046875,422.34454345703125
0,274659,-78.30577087402344,-31.50322914123535,75.30790710449219,-591.8775634765625
0,274660,-57.4036750793457,-72.74819946289062,9.315204620361328,-298.3276672363281
0,274663,86.68824005126953,22.15104866027832,-58.394134521484375,411.2187805175781
0,274665,-7.21853494644165,40.631805419921875,23.12788963317871,55.30554962158203
0,274667,-38.77396011352539,-36.698081970214844,46.93045425415039,-184.74855041503906
0,274669,58.779754638671875,44.363033294677734,-32.211090087890625,211.50173950195312
0,274671,-40.93620300292969,7.907291412353516,-11.694356918334961,32.647117614746094
0,274673,-120.31017303466797,-105.34850311279297,32.72154235839844,-288.1212158203125
0,274675,124.94351196289062,112.02112579345703,-24.99802017211914,266.668212890625
0,274677,120.61663055419922,105.67273712158203,-4.536332607269287,224.73162841796875
0,274679,-129.95562744140625,-185.93215942382812,28.86511993408203,-478.7183837890625
0,274681,-60.0865592956543,-68.51974487304688,-22.49423599243164,-87.06779479980469
0,274683,40.3602180480957,144.02235412597656,-33.32234191894531,403.177734375
0,274685,0.16537609696388245,23.345640182495117,20.85869026184082,-113.40843963623047
0,274687,23.91550636291504,-39.791412353515625,52.445281982421875,-178.82757568359375
0,274689,23.747940063476562,-12.476568222045898,-38.76163864135742,295.27734375
0,274691,-9.755688667297363,-52.86355972290039,-13.216459274291992,-131.31935119628906
0,274693,-16.450780868530273,0.2543439567089081,51.67074203491211,-329.36309814453125
0,274697,14.307640075683594,113.0435562133789,-65.88580322265625,441.0868835449219
0,274697,26.1688175201416,43.61711502075195,-21.95756721496582,141.10890197753906
0,274699,-55.837745666503906,-126.26957702636719,75.05099487304688,-484.5849914550781
0,274701,2.875999689102173,-22.95186424255371,-9.30129623413086,109.32025909423828
0,274703,67.89043426513672,88.9986801147461,-44.69869613647461,333.9013366699219
0,274705,-55.60268783569336,-39.19294738769531,37.73331069946289,-224.05076599121094
0,274707,-38.588157653808594,-43.01992416381836,30.857746124267578,-86.7845458984375
0,274709,51.38191604614258,66.87177276611328,-60.96115493774414,159.4976043701172
0,274711,8.287262916564941,50.66331100463867,3.837965488433838,-192.32168579101562
0,274713,-11.576659202575684,-111.7497787475586,45.27651596069336,26.08796501159668
0,274715,3.3024532794952393,-77.35286712646484,-36.26620101928711,222.85440063476562
0,274717,-39.81517791748047,121.3950424194336,-3.1245546340942383,-190.0674285888672
0,274719,-29.1309757232666,36.52373504638672,38.440975189208984,-160.13978576660156
0,274721,52.49126052856445,-76.61155700683594,-48.896385192871094,211.41732788085938
0,274723,50.771827697753906,2.8222837448120117,-24.332582473754883,185.4379425048828
0,274725,-54.00891876220703,19.851337432861328,83.47506713867188,-343.9328918457031
0,274727,-42.92724609375,-14.530248641967773,-0.23693102598190308,-190.8151397705078
0,274729,90.80937194824219,49.78849411010742,-57.469478607177734,454.3643798828125
0,274731,13.898091316223145,23.835311889648438,13.152861595153809,81.563720703125
0,274733,-77.21947479248047,-64.41402435302734,22.29265022277832,-274.3835144042969
0,274735,10.606054306030273,-8.880814552307129,-22.32347869873047,74.61083984375
0,274737,20.169902801513672,37.47159957885742,-10.104104995727539,90.89530181884766
0,274739,-24.256755828857422,-13.222132682800293,49.43619918823242,-245.67086791992188
0,274741,5.251112461090088,-14.729509353637695,-22.166772842407227,70.75563049316406
0,274743,29.23155403137207,30.865402221679688,-55.49049758911133,364.2043151855469
0,274745,-43.834999084472656,-4.816741466522217,70.26295471191406,-295.12255859375
0,274747,-1.9374761581420898,-13.17428970336914,32.95552062988281,-232.96763610839844
0,274749,78.72977447509766,26.70316505432129,-79.91059875488281,384.79339599609375
0,274751,-19.15935707092285,-2.999168872833252,-8.965492248535156,-2.782407760620117
0,274753,-68.62667846679688,-25.272916793823242,50.13972854614258,-298.4026184082031
0,274755,22.902332305908203,4.266340732574463,-23.14988899230957,100.40978240966797
0,274757,8.339029312133789,-29.055679321289062,-22.194028854370117,150.15716552734375
0,274759,-58.07741928100586,-65.83685302734375,47.654571533203125,-158.425537109375
0,274761,81.68461608886719,91.41708374023438,-25.00392723083496,98.18272399902344
0,274763,78.8863525390625,121.0845718383789,-41.10798645019531,299.7693786621094
0,274765,-113.91674041748047,-122.57601165771484,80.67235565185547,-437.4049377441406
0,274767,-38.33848190307617,-90.3270034790039,32.515926361083984,-311.3702087402344
0,274769,72.91030883789062,76.83985137939453,-85.61751556396484,535.7091674804688
0,274771,-8.548063278198242,23.937824249267578,-5.725240707397461,103.43360137939453
0,274773,-41.145477294921875,-15.794065475463867,42.66621780395508,-357.1347351074219
0,274775,38.254798889160156,3.693575143814087,-34.0068244934082,73.64957427978516
0,274777,42.78408432006836,30.709917068481445,6.586659908294678,133.67601013183594
0,274779,-62.25553512573242,6.7448320388793945,52.90619659423828,-212.16746520996094
0,274781,13.721112251281738,-30.548049926757812,-32.982749938964844,100.78181457519531
0,274783,60.371578216552734,12.21074104309082,-55.56673812866211,276.4062805175781
0,274785,-83.5677261352539,-27.589797973632812,55.20412063598633,-346.76165771484375
0,274787,-15.954272270202637,-34.842716217041016,39.22283172607422,-125.10771942138672
0,274789,66.84288787841797,52.103458404541016,-79.81458282470703,449.6117248535156
0,274791,-17.335193634033203,3.998974561691284,-11.127492904663086,-12.051932334899902
0,274793,-23.187589645385742,-35.86991882324219,58.259700775146484,-268.0757751464844
0,274795,21.363143920898438,30.147178649902344,-41.71209716796875,26.652511596679688
0,274797,-7.239437103271484,33.76459503173828,9.638803482055664,72.62977600097656
0,274799,-48.182403564453125,-52.903564453125,78.72909545898438,-83.87963104248047
0,274801,29.15376091003418,-9.87681770324707,-57.99791717529297,23.740360260009766
0,274803,63.764991760253906,77.86402130126953,-64.07493591308594,175.45135498046875
0,274805,-61.72450637817383,-55.083457946777344,63.63557434082031,-229.42288208007812
0,274807,-36.83738708496094,-73.5750961303711,32.79848861694336,-71.55497741699219
0,274809,89.10078430175781,90.57927703857422,-56.26495361328125,359.2161560058594
0,274811,-16.16145133972168,40.660888671875,-1.2677202224731445,-202.90499877929688
0,274813,-68.6812744140625,-86.06297302246094,37.01654052734375,-189.55918884277344
0,274815,54.54389953613281,-11.960318565368652,-18.738597869873047,372.9952087402344
0,274817,18.814218521118164,89.8587646484375,14.065408706665039,-47.27665710449219
0,274819,-58.94818115234375,-8.886069297790527,39.669212341308594,-422.9844055175781
0,274821,44.053138732910156,-24.62532615661621,-32.914180755615234,213.6527557373047
0,274823,60.716468811035156,46.924049377441406,-41.01015853881836,382.3171081542969
0,274825,-111.235595703125,-89.50685119628906,22.36327362060547,-427.4151916503906
0,274827,-29.350318908691406,-47.1610107421875,-8.525788307189941,-198.0928955078125
0,274829,127.66514587402344,115.30209350585938,-34.9172477722168,490.4500732421875
0,274831,-19.482688903808594,8.42440414428711,50.68727111816406,-106.2825927734375
0,274833,-77.26780700683594,-134.46359252929688,3.8024826049804688,-223.67034912109375
0,274835,37.50151443481445,-9.577841758728027,-72.1512680053711,320.4913330078125
0,274837,41.2831916809082,134.04400634765625,50.54376983642578,-49.35049819946289
0,274839,-46.85490798950195,-19.675260543823242,74.84481048583984,-326.57244873046875
0,274841,-18.088804244995117,-22.718936920166016,-64.51815032958984,175.2766571044922
0,274843,37.80127716064453,63.8845329284668,-54.35895538330078,290.40777587890625
0,274845,-40.65043258666992,-100.36243438720703,54.552894592285156,-326.0900573730469
0,274847,-9.090068817138672,-27.349939346313477,35.337982177734375,-163.2100067138672
0,274849,63.05024719238281,144.92840576171875,-31.231229782104492,393.9820556640625
0,274851,-22.050024032592773,-18.126272201538086,8.044600486755371,-64.09395599365234
0,274853,-29.25345802307129,-87.41846466064453,3.258192300796509,-254.33938598632812
0,274855,49.8646354675293,48.36679458618164,-41.28889465332031,193.1608123779297
0,274857,-16.28624725341797,30.526769638061523,17.172653198242188,16.588680267333984
0,274859,-54.68914794921875,-48.668701171875,50.3916130065918,-261.75262451171875
0,274861,52.0443229675293,-44.54875564575195,-34.39825439453125,220.7222442626953
0,274863,34.70766830444336,-5.802587032318115,-76.58312225341797,348.6221923828125
0,274865,-61.78671646118164,27.717405319213867,63.04011917114258,-423.0541687011719
0,274867,1.4572855234146118,31.784372329711914,59.26179504394531,-314.64715576171875
0,274869,59.98594284057617,41.830711364746094,-66.97652435302734,484.4784851074219
0,274871,-41.57729721069336,-26.160917282104492,-3.5157265663146973,119.98517608642578
0,274873,-25.975419998168945,-65.12480163574219,37.863426208496094,-286.9776916503906
0,274875,83.28118133544922,49.036434173583984,-21.530242919921875,54.590904235839844
0,274877,-25.84079933166504,23.566410064697266,-19.4317626953125,1.5398987531661987
0,274879,-107.76103210449219,-80.8152847290039,13.678728103637695,4.419928550720215
0,274881,69.49917602539062,1.4386781454086304,-1.1969801187515259,117.2574234008789
0,274883,73.15472412109375,71.35503387451172,-15.012768745422363,-103.61825561523438
0,274885,-107.87210083007812,-20.242145538330078,35.40433883666992,-177.3173828125
0,274887,-13.610265731811523,-44.15074157714844,19.80255699157715,-11.127429962158203
0,274889,112.72576141357422,65.32012176513672,-47.562931060791016,265.6481018066406
0,274891,-32.191810607910156,15.222530364990234,26.591842651367188,-19.404552459716797
0,274893,-73.71444702148438,-63.91838073730469,13.045454025268555,-174.11083984375
0,274895,68.79044342041016,37.9841423034668,-59.634857177734375,179.13137817382812
0,274897,12.507769584655762,6.780205726623535,28.328819274902344,-25.905921936035156
0,274899,-81.48960876464844,-83.66410827636719,33.097564697265625,-220.38572692871094
0,274901,31.124330520629883,34.47840118408203,-44.25784683227539,121.20445251464844
0,274903,58.67059326171875,84.9547348022461,-7.105769634246826,239.7749786376953
0,274905,-60.57976531982422,-55.41525650024414,60.409664154052734,-242.50120544433594
0,274907,-12.5656156539917,-44.62318420410156,-3.0777409076690674,-116.35307312011719
0,274910,74.35498809814453,53.71249771118164,-65.08157348632812,378.1807556152344
0,274911,-45.02783966064453,-11.75953483581543,32.75100326538086,-156.56739807128906
0,274914,-32.52334213256836,-24.36455726623535,23.62064552307129,-189.72972106933594
0,274915,82.53767395019531,46.07549285888672,-58.27591323852539,337.3813171386719
0,274918,-25.981067657470703,5.743307590484619,23.36008071899414,-170.1657257080078
0,274919,-55.96759796142578,-28.90580177307129,49.378543853759766,-354.8082580566406
0,274922,43.05805587768555,29.565820693969727,-22.314117431640625,297.115234375
0,274923,26.83270263671875,20.92738914489746,-42.34416580200195,268.36328125
0,274924,-55.03596878051758,-84.1658935546875,7.417149066925049,-340.5038757324219
0,274927,-24.603544235229492,-45.927215576171875,10.15410327911377,-120.23687744140625
0,274928,51.204132080078125,62.521121978759766,-24.299524307250977,384.668701171875
0,274931,-23.300697326660156,25.377544403076172,28.49956703186035,-111.5777359008789
0,274932,-40.39656448364258,-32.54313278198242,56.3338508605957,-390.78485107421875
0,274935,88.58209991455078,40.41698455810547,-31.051767349243164,330.89727783203125
0,274936,38.911407470703125,38.074256896972656,-45.938133239746094,230.88577270507812
0,274939,-103.80762481689453,-86.7166519165039,36.7877311706543,-395.95269775390625
0,274940,-12.382792472839355,-16.88555908203125,-0.7784010767936707,82.4106674194336
0,274943,84.70222473144531,85.11946105957031,-28.8150634765625,372.9012451171875
1,274944,-11.38986587524414,18.98876953125,22.25886344909668,-226.52560424804688
1,274947,-42.8268928527832,-59.244422912597656,18.29476547241211,-205.99990844726562
1,274948,38.650020599365234,-10.793049812316895,-27.785158157348633,287.4654846191406
1,274951,-1.6391634941101074,17.187314987182617,3.1900582313537598,-122.8461685180664
1,274952,-49.348663330078125,-40.989933013916016,48.2127799987793,-319.6011047363281
1,274955,29.0764102935791,68.5791015625,-52.269187927246094,399.33355712890625
1,274956,21.81590461730957,35.140445709228516,-43.41165542602539,205.83726501464844
1,274961,-25.34581184387207,-86.09297180175781,27.53473472595215,-357.51544189453125
1,274961,10.31004810333252,34.109561920166016,-23.854347229003906,-31.566280364990234
1,274963,14.26382064819336,19.676172256469727,23.91204071044922,135.67750549316406
1,274966,-42.584468841552734,-57.63792037963867,62.69446563720703,-90.86885833740234
1,274967,-21.71002769470215,-26.003772735595703,-20.373682022094727,-5.00717306137085
1,274970,73.32257843017578,43.966888427734375,-58.72792434692383,263.4591369628906
1,274971,-33.48612976074219,3.0428667068481445,27.950674057006836,-215.6621551513672
1,274974,-25.504610061645508,-5.393274784088135,41.45924758911133,-194.57093811035156
1,274975,79.83536529541016,56.21926498413086,-54.05533218383789,411.9701232910156
1,274978,-72.44315338134766,-44.55834197998047,16.82415771484375,-168.19992065429688
1,274979,-47.777950286865234,-30.561336517333984,86.73255157470703,-329.33294677734375
1,274982,83.37266540527344,34.37725830078125,-48.486480712890625,264.96826171875
1,274983,27.142614364624023,14.907669067382812,-65.52422332763672,131.4900665283203
1,274986,-59.72187042236328,-42.09636306762695,54.82971954345703,-234.04161071777344
1,274987,-6.280935764312744,-4.138954162597656,-8.879889488220215,0.35872215032577515
1,274990,71.22347259521484,96.08444213867188,-67.15788269042969,292.0325927734375
1,274991,-43.50934600830078,-38.024261474609375,46.70336151123047,-190.5298309326172
1,274994,-28.156688690185547,-63.996028900146484,36.790897369384766,-63.46245193481445
1,274995,77.54512023925781,50.06846237182617,-58.9698486328125,411.12896728515625
1,274998,-63.436553955078125,-22.31565284729004,17.28163719177246,-339.455810546875
1,274999,-48.88926696777344,-41.8250617980957,62.14358901977539,-377.4942932128906
1,275002,73.30781555175781,45.8803825378418,-38.75198745727539,404.1998291015625
1,275003,7.2240519523620605,24.89079475402832,-39.363704681396484,224.1382598876953
1,275006,-39.79790115356445,-47.9831657409668,48.38976287841797,-388.7441711425781
1,275007,8.776473999023438,4.389963626861572,1.1648313999176025,-65.69585418701172
1,275010,35.86124038696289,59.008934020996094,-53.40062713623047,444.765380859375
1,275011,-32.66959762573242,-31.147266387939453,44.40097427368164,-158.9044647216797
1,275014,-10.208000183105469,-21.104999542236328,13.68120002746582,-174.03538513183594
1,275015,48.669921875,59.7126350402832,-74.58942413330078,281.0345458984375
1,275018,-26.87957763671875,-32.527748107910156,39.41520690917969,-185.9047088623047
1,275019,-37.49863815307617,-81.73706817626953,43.05215072631836,-247.74082946777344
1,275022,33.33607482910156,41.707862854003906,-54.33065414428711,249.3321533203125
1,275023,20.30220603942871,89.46598815917969,4.967238426208496,175.88348388671875
1,275026,-44.69118881225586,-33.669586181640625,34.14663314819336,-287.9860534667969
1,275027,3.650935649871826,-63.0588493347168,-28.771413803100586,-67.84770202636719
1,275030,74.87774658203125,11.522785186767578,-39.02587890625,348.41131591796875
1,275031,-71.90422821044922,3.7938148975372314,40.002296447753906,-199.92593383789062
1,275034,-30.785612106323242,32.728675842285156,30.72953987121582,-74.78611755371094
1,275035,114.24970245361328,40.70859909057617,-40.47210693359375,445.5935974121094
1,275038,-56.02455520629883,-55.39939498901367,35.844242095947266,-276.5702209472656
1,275039,-65.01762390136719,-42.737789154052734,17.70716094970703,-391.3604736328125
1,275042,48.33032989501953,30.616436004638672,-41.994056701660156,305.0484619140625
1,275043,23.84359359741211,10.457549095153809,5.817837715148926,242.71055603027344
1,275046,-15.410037994384766,-28.383068084716797,33.59197235107422,-301.5380859375
1,275047,-31.23507308959961,8.901334762573242,7.888373851776123,-91.59902954101562
1,275050,41.47896194458008,72.19051361083984,-48.619956970214844,304.6010437011719
1,275051,5.9152631759643555,-33.55904006958008,10.612117767333984,-249.4248504638672
1,275054,-38.5726203918457,-58.731143951416016,-0.30084872245788574,48.4459342956543
1,275055,40.14321517944336,83.1988296508789,-52.15499496459961,476.1299133300781
1,275058,-23.974166870117188,-31.927614212036133,53.141357421875,-356.0478210449219
1,275059,-35.47243118286133,-105.41064453125,24.35456085205078,-311.40960693359375
1,275062,51.88043212890625,99.14966583251953,-44.014732360839844,261.5620422363281
1,275063,18.655080795288086,108.91827392578125,8.114726066589355,160.28985595703125
1,275066,-47.35423278808594,-128.62608337402344,5.75690221786499,-275.4031982421875
1,275067,-2.319783926010132,-74.11410522460938,-8.62235164642334,-78.84113311767578
1,275070,61.242645263671875,145.7157440185547,13.419971466064453,376.1695556640625
1,275071,-39.49717712402344,-18.715309143066406,25.636384963989258,-201.60079956054688
1,275074,-29.147605895996094,-78.74018859863281,-23.72564697265625,-118.46575164794922
1,275075,65.56233215332031,65.81346893310547,-34.43293762207031,369.4470520019531
1,275078,-47.10300827026367,-15.066762924194336,48.414154052734375,-268.2900390625
1,275079,-60.93360900878906,-32.41761779785156,29.09865379333496,-237.42724609375
1,275082,74.95598602294922,37.458492279052734,-71.41175842285156,351.2744140625
1,275083,45.51395797729492,27.0056209564209,-23.31711196899414,94.26776123046875
1,275086,-56.1089973449707,-65.53553771972656,71.8805160522461,-230.1102294921875
1,275087,-11.073039054870605,-51.765716552734375,-9.003663063049316,108.84627532958984
1,275090,12.780448913574219,72.27789306640625,-60.521270751953125,166.2362823486328
1,275091,-45.151546478271484,7.693724632263184,45.948604583740234,-412.32745361328125
1,275094,52.003108978271484,5.308968544006348,23.82697296142578,-15.748944282531738
1,275095,67.24823760986328,51.84603500366211,-50.7802848815918,468.4048767089844
1,275098,-77.27082824707031,-73.13614654541016,26.70616340637207,-268.7705993652344
1,275099,-54.88181686401367,-67.49293518066406,45.481693267822266,-322.5737609863281
1,275102,47.37436294555664,88.37879180908203,-33.838104248046875,411.3082580566406
1,275103,55.68585205078125,78.77136993408203,-42.54195022583008,183.43751525878906
1,275106,-51.631595611572266,-94.89686584472656,36.29709243774414,-439.36712646484375
1,275107,-40.86153793334961,-44.23409652709961,19.5535945892334,37.56611633300781
1,275110,72.99358367919922,97.04610443115234,-33.80213165283203,403.3543701171875
1,275111,-21.166030883789062,-24.457216262817383,24.24881362915039,-294.6367492675781
1,275366,-23.541776657104492,-4.182708263397217,2.011430263519287,4.1685895919799805
1,275367,61.32953643798828,53.56312942504883,-75.1156997680664,550.7230224609375
1,275370,-69.42752838134766,-115.51290893554688,54.738555908203125,-602.529296875
1,275371,-99.95499420166016,-83.76834106445312,114.41757202148438,-806.392578125
1,275374,42.44636154174805,13.683664321899414,-51.87699508666992,306.1999816894531
1,275375,119.4896011352539,44.53169250488281,-69.27032470703125,599.6968994140625
1,276189,29.54840660095215,55.381065368652344,23.39849090576172,110.05113983154297
1,276190,-16.226207733154297,28.257966995239258,-10.87654972076416,-93.12256622314453
1,276193,80.55402374267578,98.74441528320312,-109.905029296875,654.0011596679688
1,276194,3.352416753768921,53.41953659057617,-14.876496315002441,253.92190551757812
1,276197,-139.84771728515625,-81.46199035644531,110.9187240600586,-821.3204956054688
1,276198,-37.2332763671875,-43.40409469604492,3.6331734657287598,-206.10459899902344
1,276201,11.871220588684082,-62.9466438293457,16.99434471130371,-81.05880737304688
1,276202,-61.41902160644531,-126.23234558105469,85.6768798828125,-596.5888671875
1,276205,35.80690002441406,31.349594116210938,-34.61360549926758,290.977783203125
1,276206,86.25777435302734,128.277587890625,-58.01742172241211,677.6324462890625
1,276209,-21.302249908447266,4.491822719573975,11.57535171508789,-198.186279296875
1,276210,-14.40267276763916,-26.839937210083008,-17.008460998535156,-221.93260192871094
1,276213,93.55584716796875,99.62211608886719,-87.25682830810547,632.7273559570312
1,276214,20.397335052490234,34.26335906982422,5.578105449676514,170.4041290283203
1,276217,-107.49400329589844,-149.41453552246094,90.78294372558594,-642.3960571289062
1,276218,-25.199140548706055,-40.32481384277344,-10.035300254821777,21.99713706970215
1,276221,9.976143836975098,91.50323486328125,12.084417343139648,28.813230514526367
1,276222,-70.70217895507812,-30.307689666748047,76.55660247802734,-495.2113037109375
1,276225,50.08937072753906,-53.449710845947266,-21.36882781982422,204.28265380859375
1,276226,82.40752410888672,32.62572479248047,-85.18724060058594,459.62890625
1,276229,-50.63192367553711,17.155155181884766,18.030677795410156,-158.2272186279297
1,276230,4.722240447998047,13.872733116149902,67.41801452636719,-104.93505859375
1,276233,53.94152069091797,46.01158142089844,-84.468994140625,387.5012512207031
1,276234,-33.15045166015625,-6.667516231536865,-53.47174072265625,35.22859573364258
1,276237,-50.74610900878906,-53.69280242919922,81.168212890625,-359.8324890136719
1,276238,31.692522048950195,15.553832054138184,-23.412097930908203,119.71826171875
1,276241,-14.23079776763916,4.2637810707092285,-5.282935619354248,-97.06237030029297
1,276242,-75.7175521850586,-69.31272888183594,91.10448455810547,-436.302978515625
1,276245,67.38841247558594,5.970440864562988,-52.160614013671875,289.5054931640625
1,276246,97.9822998046875,80.17236328125,-73.78285217285156,376.5473937988281
1,276249,-48.685516357421875,-9.402569770812988,56.49251937866211,-263.2374267578125
1,276250,-52.68423080444336,-64.08988952636719,36.21405029296875,-157.06927490234375
1,276253,67.1137924194336,79.08868408203125,-67.74430084228516,482.27069091796875
1,276254,-7.298382759094238,31.82896614074707,-31.312490463256836,50.727657318115234
1,276257,-65.5605697631836,-91.90446472167969,87.22920227050781,-603.0841064453125
1,276258,79.20692443847656,39.0479736328125,-9.326210021972656,216.9567413330078
1,276261,-25.66448211669922,10.09696102142334,-43.27639389038086,246.90744018554688
1,276262,-102.45404815673828,-62.977020263671875,73.1390151977539,-426.4110412597656
1,276265,85.25273895263672,23.967260360717773,-7.7729620933532715,160.82989501953125
1,276266,46.83023452758789,42.579166412353516,-64.67745208740234,277.51800537109375
1,276269,-79.4674301147461,-46.03832244873047,18.807722091674805,-295.8262023925781
1,276270,-32.4853515625,-44.582542419433594,34.778560638427734,-133.6557159423828
1,276273,76.09994506835938,104.97906494140625,-22.09696388244629,407.749267578125
1,276274,55.589210510253906,45.559139251708984,-22.631099700927734,134.66317749023438
1,276277,-61.014461517333984,-79.4168930053711,38.70310974121094,-456.243408203125
1,276278,-7.867171287536621,2.905341863632202,1.702089786529541,62.40876388549805
1,276281,-23.037702560424805,8.057073593139648,-30.937931060791016,197.31332397460938
1,276282,-68.47001647949219,-46.174774169921875,31.934429168701172,-357.78369140625
1,276285,89.25508117675781,18.918046951293945,-6.497946739196777,121.0701675415039
1,276286,65.73037719726562,30.306026458740234,-46.13689041137695,359.2018127441406
1,276289,-59.674591064453125,-47.51172637939453,29.21902084350586,-256.68328857421875
1,276290,-17.137130737304688,-29.085365295410156,25.38441276550293,-239.21966552734375
1,276293,41.71645736694336,95.01148986816406,-63.54364776611328,404.0914306640625
1,276294,-5.525275707244873,34.04468536376953,-13.685775756835938,136.30885314941406
1,276297,-66.59100341796875,-120.18486022949219,81.73577880859375,-460.38116455078125
1,276298,22.08893394470215,-21.257307052612305,-38.68110656738281,148.12144470214844
1,276301,46.60173034667969,88.0580062866211,-35.481502532958984,101.16886901855469
1,276302,-43.44654083251953,-14.755541801452637,85.57545471191406,-389.76873779296875
1,276305,14.506237983703613,-30.748050689697266,-28.323135375976562,299.8724365234375
1,276306,58.943382263183594,62.3242301940918,-42.025142669677734,318.1697692871094
1,276309,-57.881656646728516,-17.77423667907715,49.872615814208984,-348.1941223144531
1,276310,-55.47285842895508,-46.289039611816406,3.392637252807617,-174.0106201171875
1,276313,86.51078796386719,71.55546569824219,-38.3795280456543,406.7298278808594
1,276314,19.659717559814453,5.342402935028076,0.5525295734405518,46.192665100097656
1,276317,-94.3414535522461,-95.63738250732422,39.29496765136719,-460.79754638671875
1,276318,58.181556701660156,8.982879638671875,-29.676578521728516,235.9492645263672
1,276321,17.515762329101562,57.93418884277344,-9.127886772155762,115.64509582519531
1,276322,-115.62633514404297,-15.478862762451172,59.93798828125,-423.2275695800781
1,276325,81.45525360107422,-9.379924774169922,-46.556583404541016,282.89752197265625
1,276326,74.85430145263672,20.928497314453125,-39.27266311645508,332.8538818359375
1,276329,-106.42063903808594,-33.210235595703125,41.67464828491211,-393.9952087402344
1,276330,-27.662446975708008,-22.187410354614258,15.224383354187012,-193.17958068847656
1,276333,97.44534301757812,85.5119857788086,-38.15717315673828,392.27679443359375
1,276334,18.10820770263672,35.15516662597656,7.674309730529785,60.20734405517578
1,276337,-88.59073638916016,-89.67640686035156,61.56716537475586,-308.5611572265625
1,276338,40.55678939819336,-30.56578826904297,-53.828365325927734,234.80601501464844
1,276341,36.011600494384766,22.454795837402344,-14.577068328857422,80.07512664794922
1,276342,-88.48113250732422,-6.633185386657715,62.5955924987793,-505.392333984375
1,276345,42.242069244384766,27.13361930847168,-43.53660202026367,185.10585021972656
1,276346,49.86874008178711,28.39531707763672,-37.68709182739258,414.1181945800781
1,276349,-61.438358306884766,-33.940616607666016,53.955116271972656,-329.0022277832031
1,276350,-20.71733283996582,-57.743831634521484,19.150075912475586,-140.0933380126953
1,276353,46.349483489990234,69.1233139038086,-19.259347915649414,329.99822998046875
1,276354,37.397640228271484,78.17675018310547,46.948482513427734,-119.1906509399414
1,276357,-31.80998420715332,-89.06099700927734,-13.69727611541748,-257.26361083984375
1,276358,-41.112178802490234,-19.710317611694336,-129.42556762695312,388.0565185546875
1,276361,-48.21813201904297,32.327999114990234,-64.86229705810547,43.09711837768555
1,276362,-21.87397003173828,-23.678916931152344,77.05805206298828,-458.793701171875
1,276365,117.7433090209961,26.683265686035156,104.07439422607422,248.0258331298828
1,276366,86.37920379638672,18.613218307495117,10.261201858520508,317.0277099609375
1,276369,-80.73241424560547,-28.593759536743164,-28.564483642578125,-277.0473937988281
1,276371,-63.90732192993164,-39.878929138183594,-6.973880767822266,-166.9778594970703
1,276373,47.28888702392578,46.8504638671875,-26.195886611938477,195.63070678710938
1,276375,25.403438568115234,41.027854919433594,18.611268997192383,-65.65091705322266
1,276377,-42.41569519042969,-87.88373565673828,37.591243743896484,-246.6756134033203
1,276379,22.515243530273438,7.317337512969971,-33.8784065246582,264.55328369140625
1,276381,-5.107944011688232,36.61857223510742,58.30628204345703,10.955753326416016
1,276383,-94.27156829833984,-80.06647491455078,86.81900024414062,-347.3362731933594
1,276385,22.38347053527832,32.98665237426758,98.79476165771484,351.2080993652344
1,276387,132.76895141601562,111.28302001953125,26.989797592163086,307.22259521484375
1,276389,74.7735595703125,-31.016647338867188,-508.0105895996094,-351.4505920410156
1,276391,62.2940559387207,-68.26789093017578,-434.1507568359375,-96.09635162353516
1,276393,-101.67465209960938,40.4638671875,274.9078674316406,390.5560302734375
1,276395,-313.98919677734375,-23.612213134765625,337.6202087402344,4.939599990844727
1,276397,-69.81441497802734,-36.94729995727539,369.6302795410156,-413.8780822753906
1,276399,108.95516204833984,113.38187408447266,284.9482727050781,67.04779815673828
1,276401,23.905567169189453,-49.72001266479492,-232.51161193847656,-15.358182907104492
1,276403,31.52756690979004,-70.89000701904297,-289.90692138671875,-216.46554565429688
1,276405,396.7877502441406,118.06751251220703,-460.0326843261719,382.825439453125
1,276407,409.4707336425781,18.696287155151367,-396.3197326660156,194.3328399658203
1,276409,-404.8922119140625,-153.5357666015625,337.1607666015625,-295.25469970703125
1,276411,-593.0972290039062,-59.11988067626953,714.4906005859375,-141.49400329589844
1,276413,-127.39641571044922,189.3460235595703,199.09085083007812,187.8253631591797
1,276415,122.934326171875,-21.258464813232422,-447.0452575683594,-28.529037475585938
1,276417,247.84304809570312,-117.27510833740234,-189.64540100097656,-139.48179626464844
1,276419,168.64430236816406,142.84629821777344,144.04464721679688,314.71246337890625
1,276421,48.5075569152832,-11.498779296875,1.2890794277191162,-78.59505462646484
1,276423,17.424118041992188,-122.14852905273438,-39.11765670776367,-253.28480529785156
1,276425,-203.8827667236328,63.222572326660156,341.2470397949219,238.600830078125
1,276427,-242.42503356933594,15.999606132507324,386.9446716308594,15.602481842041016
1,276429,216.25071716308594,-41.67504119873047,-566.952880859375,-210.8674774169922
1,276431,284.1546325683594,52.26804733276367,-742.0260009765625,13.14538860321045
1,276433,11.217536926269531,-1.8622983694076538,321.3641052246094,264.92913818359375
1,276435,-36.536170959472656,-34.24703598022461,545.5462036132812,-74.63761138916016
1,276437,-145.51866149902344,14.404439926147461,-62.979164123535156,-295.9741516113281
1,276439,-140.2355499267578,20.22049903869629,-270.34759521484375,268.96038818359375
1,276441,-51.20340347290039,-35.34475326538086,-41.192604064941406,-32.994144439697266
1,276443,-80.88981628417969,-41.51091003417969,82.09355926513672,-361.3878479003906
1,276445,103.06903076171875,98.37482452392578,179.1320343017578,348.72186279296875
1,276447,202.97154235839844,37.350311279296875,295.7713623046875,312.5526428222656
1,276449,-171.30377197265625,-110.9831771850586,35.4225959777832,-344.375732421875
1,276451,-146.63970947265625,-8.614253997802734,-359.43170166015625,-150.47323608398438
1,276453,301.0134582519531,85.27676391601562,-543.37255859375,280.0938720703125
1,276455,203.15350341796875,8.729926109313965,-162.1326904296875,-49.022247314453125
1,276457,-474.0795593261719,-39.91366195678711,1040.7880859375,-186.70095825195312
1,276459,-312.0413513183594,8.038020133972168,951.912353515625,176.5999755859375
1,276461,662.6088256835938,-45.24800491333008,-1809.2149658203125,-19.302799224853516
1,276463,383.67791748046875,-59.1217155456543,-1988.4520263671875,-220.6425323486328
1,276465,-65.82168579101562,84.93702697753906,1207.8975830078125,271.2803649902344
1,276467,-101.45063781738281,47.0544548034668,1859.56689453125,142.79115295410156
1,276469,-588.906005859375,-68.44869232177734,274.4005126953125,-331.4059143066406
1,276471,-295.4079284667969,-40.09231948852539,-563.68310546875,223.19223022460938
1,276473,269.7933654785156,68.78157043457031,-249.562744140625,204.24951171875
1,276475,208.1719207763672,39.077762603759766,118.18689727783203,-543.0655517578125
1,276477,114.01544189453125,-39.964176177978516,473.8298645019531,-168.1034393310547
1,276479,-18.558141708374023,85.36569213867188,610.8768310546875,392.17059326171875
1,276481,69.56588745117188,-41.34461975097656,-857.5591430664062,-22.52240753173828
1,276483,-97.71891784667969,-185.5313262939453,-1687.806396484375,-156.26991271972656
1,276485,-380.5740051269531,69.14019012451172,-146.73667907714844,218.29855346679688
1,276487,167.13807678222656,115.78319549560547,1363.28662109375,87.6586685180664
1,276489,465.5431213378906,-25.984529495239258,1160.0299072265625,-226.01048278808594
1,276491,124.74747467041016,20.987808227539062,-837.629638671875,-81.6263427734375
1,276493,-264.177001953125,-30.13382339477539,-1976.490234375,381.4675598144531
1,276495,-322.11614990234375,-114.95594024658203,-179.7432861328125,23.42709732055664
1,276497,194.88900756835938,86.08016967773438,1787.2835693359375,-198.70220947265625
1,276499,260.1027526855469,175.9517059326172,1160.0772705078125,244.35235595703125
1,276501,-415.1927490234375,-110.92417907714844,-301.6432189941406,-346.5293273925781
1,276503,-330.5903015136719,-158.98880004882812,-134.41636657714844,-424.8904113769531
1,276505,223.8940887451172,86.75245666503906,-86.6949234008789,546.7011108398438
1,276507,65.40718078613281,49.27066421508789,-290.0630187988281,136.28765869140625
1,276509,94.07896423339844,-25.362594604492188,198.0629119873047,-469.850341796875
1,276511,468.8110046386719,6.526305675506592,-247.0403594970703,187.42013549804688
1,276513,-75.99385833740234,-46.63267135620117,-947.7210083007812,297.8848876953125
1,276515,-430.6807556152344,-12.374103546142578,-247.68704223632812,-286.9364013671875
1,276517,190.43006896972656,43.60367202758789,833.8501586914062,-2.1936466693878174
1,276519,200.65553283691406,3.9074394702911377,351.7063293457031,377.9158630371094
1,276521,-224.86593627929688,3.6751508712768555,-528.9306030273438,-295.3264465332031
1,276523,-169.7493133544922,6.132804870605469,24.552833557128906,-340.3636779785156
1,276525,72.22428894042969,21.023664474487305,356.5404968261719,533.6552734375
1,276527,61.67401123046875,41.34901809692383,67.64972686767578,190.46029663085938
1,276529,-345.4270935058594,-58.6589241027832,387.1495666503906,-609.100341796875
1,276531,-222.42120361328125,-33.91245651245117,543.6673583984375,-140.1177215576172
1,276533,741.3404541015625,26.363201141357422,-816.5819091796875,518.6075439453125
1,276535,451.15606689453125,-53.574283599853516,-1445.1798095703125,16.203594207763672
1,276537,-547.9432373046875,0.6674051880836487,-28.842323303222656,-253.33876037597656
1,276539,-241.9664306640625,92.61415100097656,925.218017578125,199.88014221191406
1,276541,171.73622131347656,-16.272201538085938,952.13037109375,-269.3888854980469
1,276543,84.20867919921875,-65.7330322265625,-0.5673904418945312,-223.4710693359375
1,276545,-154.27850341796875,20.816579818725586,-858.4406127929688,597.5609130859375
1,276547,83.24815368652344,-10.254135131835938,-243.16343688964844,212.8299102783203
1,276549,199.44798278808594,27.87217140197754,851.8833618164062,-472.1098937988281
1,276551,-180.8966827392578,78.67076110839844,481.7946472167969,-190.88775634765625
1,276553,-92.08576202392578,-51.454708099365234,-1149.234130859375,278.63421630859375
1,276555,-291.4734191894531,-106.98806762695312,-561.1461791992188,-106.37918853759766
1,276558,-45.7885627746582,23.701631546020508,1015.7755126953125,-108.90931701660156
1,276559,527.1946411132812,118.97322845458984,261.6426696777344,388.3895263671875
1,276562,110.15097045898438,-31.988697052001953,-622.217041015625,-94.62983703613281
1,276563,-238.392822265625,-94.82379913330078,-35.71129608154297,-249.45606994628906
1,276566,-35.03765869140625,64.90515899658203,201.6250457763672,282.192626953125
1,276567,49.25801467895508,62.59856033325195,-73.31568908691406,12.448524475097656
1,276570,-79.08572387695312,-29.49492835998535,94.93485260009766,-409.5997009277344
1,276571,16.716524124145508,-9.702736854553223,135.48016357421875,143.14608764648438
1,276572,65.26578521728516,-44.88848114013672,-74.60235595703125,368.2071533203125
1,276575,-42.89878463745117,-66.80603790283203,-24.913469314575195,-390.052490234375
1,276576,101.8924560546875,37.5975341796875,61.23725509643555,-276.0888977050781
1,276579,88.02256774902344,137.83934020996094,-6.697432041168213,509.6319580078125
1,276580,-136.72718811035156,33.690582275390625,-103.9522705078125,146.44448852539062
1,276583,-217.6137237548828,-199.9497528076172,-35.601016998291016,-487.8674011230469
1,276586,-140.65162658691406,-28.28778076171875,196.23414611816406,68.69123840332031
1,276587,73.00528717041016,160.31008911132812,155.33213806152344,343.0666809082031
1,276589,392.31854248046875,-19.939050674438477,-503.1134948730469,-287.37701416015625
1,276591,490.1243896484375,-92.09249877929688,-996.2908325195312,-103.77718353271484
1,276593,-399.782958984375,66.47618103027344,-275.7230529785156,467.8697204589844
1,276595,-905.8710327148438,80.41416931152344,1193.87744140625,-110.7662353515625
1,276597,397.6394958496094,-89.95028686523438,1316.4774169921875,-274.3789367675781
1,276599,829.6923217773438,-6.940856456756592,-258.717529296875,591.3861083984375
1,276601,-501.81524658203125,-15.05606460571289,-644.9480590820312,-223.28126525878906
1,276603,-498.1462097167969,-39.41164779663086,-68.83392333984375,-817.7490844726562
1,276605,437.50555419921875,106.29766845703125,-266.83966064453125,435.7088623046875
1,276607,150.62937927246094,1.1042221784591675,-103.59862518310547,366.2947998046875
1,276609,-211.99560546875,-106.10684967041016,438.2891845703125,-411.1557312011719
1,276611,38.689212799072266,-7.492959022521973,342.42535400390625,14.12968921661377
1,276613,48.49793243408203,124.39054870605469,-44.86457824707031,300.2442321777344
1,276615,-125.85372161865234,43.86794662475586,-60.9450798034668,-313.7947692871094
1,276617,148.65122985839844,-76.35926055908203,-227.5204315185547,-23.844043731689453
1,276619,248.44175720214844,-66.33014678955078,-560.7386474609375,550.8504638671875
1,276621,-179.01922607421875,-90.94932556152344,-337.4930419921875,-276.69415283203125
1,276623,-154.4234619140625,-12.765236854553223,197.46429443359375,-362.8716125488281
1,276625,75.61920166015625,277.3307189941406,385.89794921875,427.0941162109375
1,276627,12.781332015991211,141.0816650390625,211.83734130859375,203.10589599609375
1,276629,-176.00531005859375,-294.84722900390625,256.51397705078125,-413.2767333984375
1,276631,-60.91950607299805,-120.77445220947266,61.365478515625,-181.07000732421875
1,276633,389.2024841308594,166.89935302734375,-651.0950927734375,417.32562255859375
1,276635,-7.263763427734375,32.70189666748047,-202.0806427001953,-60.68659973144531
1,276637,-446.76922607421875,-90.27906036376953,779.3258666992188,-264.06707763671875
1,276639,15.484789848327637,19.4484920501709,406.7865905761719,312.1526184082031
1,276641,231.8845977783203,-14.396200180053711,-64.17611694335938,-275.15673828125
1,276643,164.4151153564453,-44.982486724853516,-359.1601257324219,-402.4068603515625
1,276645,-248.27867126464844,184.909423828125,-828.4151611328125,580.6820678710938
1,276647,-155.3931121826172,48.74638366699219,-453.6232604980469,347.1277770996094
1,276649,524.9016723632812,-257.68505859375,374.0631103515625,-358.564453125
1,276651,103.10316467285156,-30.01285743713379,520.5685424804688,23.75698471069336
1,276653,-394.1690368652344,167.93276977539062,446.88763427734375,178.43667602539062
1,276655,-151.44534301757812,-12.35136604309082,296.9096374511719,-398.3764953613281
1,276657,36.98288345336914,-30.88067626953125,-413.8589172363281,-76.3914566040039
1,276659,52.65236282348633,39.37264633178711,-417.9324035644531,407.92681884765625
1,276661,40.39175796508789,-41.81587600708008,94.26661682128906,-195.89564514160156
1,276663,55.99455642700195,-51.904869079589844,58.45469665527344,-263.4986267089844
1,276665,0.012842100113630295,43.0010871887207,8.180069923400879,387.76629638671875
1,276667,-58.86322021484375,48.886695861816406,172.10743713378906,77.78340148925781
1,276669,-4.998480319976807,-33.29103469848633,65.93212127685547,-250.89785766601562
1,276671,-23.446121215820312,-30.088634490966797,-191.87387084960938,94.60211181640625
1,276673,11.356550216674805,39.60605239868164,-27.33061981201172,34.01235580444336
1,276675,64.77671813964844,8.584464073181152,79.36992645263672,-186.70330810546875
1,276677,-10.682657241821289,-9.692181587219238,-193.19215393066406,123.6717529296875
1,276679,63.75932312011719,15.7532320022583,-174.3313446044922,250.7169647216797
1,276681,43.62622833251953,-31.38289451599121,176.1149139404297,-354.5686950683594
1,276683,-101.0002212524414,-18.416719436645508,203.9372100830078,-202.7263641357422
1,276685,16.40558624267578,27.794307708740234,-167.61517333984375,521.1966552734375
1,276687,52.099124908447266,-30.094141006469727,-245.40452575683594,84.83341979980469
1,276689,-96.83222961425781,20.673892974853516,52.78531265258789,-484.09893798828125
1,276691,9.241857528686523,139.08450317382812,352.7934265136719,42.21745681762695
1,276693,89.90692901611328,-54.981353759765625,269.57940673828125,299.5616149902344
1,276695,-85.01416015625,-178.95098876953125,-124.2032241821289,-218.39041137695312
1,276697,-56.651451110839844,71.53866577148438,-221.3660888671875,-46.88885498046875
1,276699,142.5930633544922,100.8062744140625,-191.22032165527344,315.07501220703125
1,276701,55.49690628051758,-82.74027252197266,11.92642593383789,-275.1815490722656
1,276703,-163.598388671875,-27.08144187927246,218.71827697753906,-314.73681640625
1,276705,-85.09957885742188,47.216644287109375,194.9039764404297,536.7530517578125
1,276707,-10.896116256713867,-53.2474250793457,75.01409912109375,444.2156982421875
1,276709,-28.528366088867188,-46.76823806762695,-218.91038513183594,-583.3396606445312
1,276711,102.34668731689453,80.10334777832031,-206.11338806152344,-408.1927490234375
1,276713,58.19739532470703,78.04866790771484,155.26011657714844,429.533447265625
1,276715,-6.480768203735352,-43.90386199951172,100.50711059570312,-82.72440338134766
1,276717,-20.19571304321289,-47.94384765625,-16.57771110534668,-87.97736358642578
1,276719,-0.7750927805900574,52.907325744628906,-145.9827423095703,358.8917541503906
1,276721,-77.0599136352539,-29.45560646057129,-137.0974578857422,-303.22369384765625
1,276723,-100.5070571899414,-116.70498657226562,95.82023620605469,-181.5503692626953
1,276725,445.7677307128906,148.36264038085938,-403.5028381347656,444.3592834472656
1,276727,293.33868408203125,258.04266357421875,-187.98423767089844,-25.762985229492188
1,276729,-268.39801025390625,-191.3499755859375,643.2799072265625,-235.80633544921875
1,276731,-370.47802734375,-226.5536651611328,421.304443359375,111.2961196899414
1,276733,-432.394775390625,112.29000091552734,-124.50105285644531,70.73710632324219
1,276735,124.69234466552734,-5.969415187835693,-177.60415649414062,-157.35641479492188
1,276737,584.2080078125,-37.8889274597168,-88.32494354248047,36.90499496459961
1,276739,119.73595428466797,70.55435180664062,-69.80013275146484,241.20265197753906
1,276741,-328.49798583984375,-48.35010528564453,77.24374389648438,-316.4729309082031
1,276743,-109.30767059326172,-35.91397476196289,139.6831817626953,-276.27947998046875
1,276745,111.88481140136719,95.65777587890625,40.607398986816406,401.4886474609375
1,276747,15.832200050354004,16.82265853881836,-39.37826156616211,224.0282745361328
1,276749,-7.882636547088623,-49.499515533447266,-103.34639739990234,-347.5586242675781
1,276751,-1.0004987716674805,3.2984373569488525,-211.80764770507812,-99.12101745605469
1,276753,61.55256652832031,-2.377640724182129,-23.890987396240234,277.205810546875
1,276755,103.18545532226562,-1.431783676147461,112.19451141357422,-155.61434936523438
1,276757,-6.840060710906982,51.9161376953125,-103.03175354003906,54.14910125732422
1,276759,-51.248756408691406,50.34062194824219,-68.52938842773438,371.23284912109375
1,276761,-135.74989318847656,-66.79588317871094,302.70843505859375,-383.2769775390625
1,276763,-195.96339416503906,-86.7530746459961,257.3076477050781,-362.1095275878906
1,276765,-164.30154418945312,68.92000579833984,-32.490501403808594,431.6864929199219
1,276767,290.7195739746094,41.00366973876953,-372.5199890136719,220.61453247070312
1,276769,679.86962890625,-96.19076538085938,-533.5316162109375,-328.37353515625
1,276771,33.89499282836914,16.31492805480957,223.65911865234375,40.18387985229492
1,276773,-681.0833740234375,86.32757568359375,399.04449462890625,209.6930694580078
1,276775,-298.11431884765625,-18.816844940185547,46.588134765625,-258.3747253417969
1,276777,369.5589904785156,-47.836971282958984,65.21690368652344,56.96930694580078
1,276779,62.31995391845703,11.88961124420166,-121.88642883300781,236.66490173339844
1,276782,-122.40934753417969,-22.960546493530273,-43.965030670166016,-408.80908203125
