Aktueller Finger,timestamp_ms,sensor_0,sensor_1,sensor_2,sensor_3
0,1381725,90.89610290527344,83.41008758544922,20.391740798950195,-53.550045013427734
0,1381727,-1.6779733896255493,-9.967799186706543,396.145263671875,62.55781936645508
0,1381729,-132.9947509765625,-72.0210952758789,-42.174774169921875,-51.30198287963867
0,1381731,63.291603088378906,19.139122009277344,-347.66357421875,-1.7350835800170898
0,1381733,22.400407791137695,20.964418411254883,50.148780822753906,35.156166076660156
0,1381735,-16.588165283203125,8.28133487701416,53.542476654052734,-120.297607421875
0,1381737,40.8634033203125,-20.122467041015625,-48.64590835571289,25.261810302734375
0,1381739,-24.85228729248047,-3.8592231273651123,254.87347412109375,108.69808197021484
0,1381741,-28.051097869873047,18.356658935546875,-56.29391860961914,-41.400726318359375
0,1381743,18.462636947631836,-17.626401901245117,-312.5077819824219,-5.465797424316406
0,1381745,7.396526336669922,8.20350170135498,105.03633117675781,109.76496124267578
0,1381747,-17.994714736938477,2.9403176307678223,317.4181213378906,-133.01959228515625
0,1381749,41.07537841796875,31.343008041381836,30.72992706298828,-208.38800048828125
0,1381751,-21.0440616607666,-7.774535655975342,-320.68096923828125,175.6263427734375
0,1381753,-31.079269409179688,-43.391448974609375,-12.456464767456055,186.7300567626953
0,1381755,33.3697624206543,13.704269409179688,19.28019142150879,-45.8219108581543
0,1381757,-4.700132846832275,-13.031763076782227,-98.28638458251953,-78.04827117919922
0,1381760,-8.455162048339844,2.8292510509490967,311.0466613769531,-92.19857788085938
0,1381761,-31.62425422668457,-2.7312731742858887,-21.498388290405273,56.836246490478516
0,1381762,-15.7052583694458,-24.04398536682129,-443.6815185546875,154.9137420654297
0,1381766,42.417945861816406,37.63334655761719,301.8514709472656,-68.42859649658203
0,1381767,50.3186149597168,25.0300235748291,501.9626159667969,-184.31752014160156
0,1381769,8.218903541564941,-10.329850196838379,-425.4017639160156,-29.181306838989258
0,1381771,-10.681413650512695,-8.203985214233398,-312.15032958984375,218.03814697265625
0,1381773,-16.32649040222168,30.50582504272461,319.89056396484375,35.66488265991211
0,1381775,-26.14936065673828,3.3039376735687256,-18.827547073364258,-156.88381958007812
0,1381777,-2.8341057300567627,-25.96700096130371,-168.0599822998047,29.131948471069336
0,1382032,19.829946517944336,24.86373519897461,209.46046447753906,-96.775634765625
0,1382035,-1.142621636390686,-31.01671028137207,474.5839538574219,-63.903194427490234
0,1382036,-56.967864990234375,-8.765524864196777,290.00335693359375,140.7891845703125
0,1382039,1.7862114906311035,2.535764217376709,-572.0816650390625,95.62323760986328
0,1382040,-0.6021214127540588,-53.11492919921875,-576.4081420898438,63.51481246948242
0,1389905,-39.694175720214844,-31.044025421142578,-282.1647033691406,6.543387413024902
0,1389907,73.12886810302734,6.163262844085693,-345.71978759765625,-54.452274322509766
0,1389909,76.71111297607422,62.737586975097656,243.18548583984375,-23.994640350341797
0,1389911,-22.04279899597168,6.75051212310791,374.47674560546875,-1.6106172800064087
0,1389913,-3.7500336170196533,-9.358011245727539,131.0406951904297,-79.3503189086914
0,1389915,-0.19074106216430664,48.679134368896484,390.8116760253906,-67.57039642333984
0,1389917,-62.04872512817383,34.89021301269531,610.208984375,6.449982166290283
0,1389919,-30.62045669555664,-60.333251953125,-23.52069091796875,43.623374938964844
0,1389921,35.67491912841797,-31.101810455322266,-623.8680419921875,114.49980926513672
0,1389923,6.207513809204102,77.65117645263672,-240.63136291503906,80.74458312988281
0,1389925,-3.7614848613739014,-42.60747146606445,-210.64002990722656,-94.44770812988281
0,1389927,55.650630950927734,-40.311580657958984,-300.75909423828125,-79.36080169677734
0,1389929,-26.260818481445312,22.269376754760742,261.99945068359375,34.66312026977539
0,1389931,-25.0981388092041,-9.459746360778809,244.91087341308594,5.116105079650879
0,1389933,66.72404479980469,36.38975143432617,-67.2671127319336,-2.412613868713379
0,1389935,-8.294097900390625,32.985965728759766,242.54661560058594,-24.48876190185547
0,1389937,-42.556114196777344,1.1183762550354004,490.8355407714844,-111.39051818847656
0,1389939,-13.389314651489258,-33.54701232910156,-32.27433395385742,-23.088157653808594
0,1389941,6.841361999511719,-29.98612403869629,-500.5491027832031,187.27354431152344
0,1389943,-33.88454055786133,-0.9221524596214294,-155.6759033203125,89.5942153930664
0,1389945,3.675548553466797,-10.58989143371582,-107.07598114013672,-67.52578735351562
0,1389947,69.66975402832031,-8.748541831970215,-202.15794372558594,-51.032169342041016
0,1389949,-25.176944732666016,28.934213638305664,256.37841796875,-45.26897048950195
0,1389951,-35.70690155029297,7.484888553619385,168.85853576660156,29.948381423950195
0,1389953,32.63341522216797,-19.983430862426758,-182.67466735839844,85.2516098022461
0,1389955,28.118879318237305,43.04926681518555,121.90387725830078,-44.724449157714844
0,1389957,-42.761356353759766,17.535564422607422,450.0916442871094,-105.66436767578125
0,1389959,-41.38583755493164,-19.461774826049805,20.80421257019043,37.5297737121582
0,1389962,22.959856033325195,-9.713812828063965,-423.7243347167969,53.71479034423828
0,1389963,24.521821975708008,-22.497379302978516,-56.230987548828125,15.374856948852539
0,1389964,3.9958531856536865,14.601022720336914,95.16371154785156,61.86323165893555
0,1389967,1.265761375427246,16.597274780273438,-198.78311157226562,-55.57088851928711
0,1389968,17.120540618896484,-19.05604362487793,-4.974036693572998,-102.64246368408203
0,1389971,-8.600858688354492,-21.89585304260254,135.73423767089844,46.79064178466797
0,1389972,-18.339141845703125,-34.33648681640625,-227.60781860351562,25.546581268310547
0,1389975,14.468827247619629,5.566148281097412,76.22521209716797,-22.71314811706543
0,1389976,8.102476119995117,52.00948715209961,397.2358093261719,10.164070129394531
0,1389979,-7.1873884201049805,21.803613662719727,-16.47471809387207,-24.05422019958496
0,1389980,-17.04414939880371,-11.90173625946045,-161.9589385986328,3.5522189140319824
0,1389983,-27.877920150756836,-47.04993438720703,-65.97021484375,66.37467193603516
0,1389985,7.689472675323486,2.3069639205932617,-25.979740142822266,33.08974838256836
0,1389986,32.07102584838867,53.94505310058594,-55.57415008544922,-49.26594543457031
0,1389989,-4.075649261474609,-25.845874786376953,114.97727966308594,-54.491607666015625
0,1389990,-16.771709442138672,-19.680953979492188,146.4158935546875,30.815147399902344
0,1389993,-9.80512523651123,26.263071060180664,-272.6770935058594,-3.396219491958618
0,1389994,19.466516494750977,1.8663228750228882,-149.80047607421875,-60.78287124633789
0,1389997,23.43768310546875,21.013586044311523,455.8326110839844,30.48090362548828
0,1389998,-3.358704090118408,-3.8873374462127686,168.3778076171875,40.12956237792969
0,1390001,10.042976379394531,-33.90458297729492,-424.9772033691406,32.165889739990234
0,1390002,-32.83674621582031,7.363311767578125,-60.09761047363281,37.50716018676758
0,1390005,-14.884498596191406,4.115258693695068,123.7838134765625,1.778507947921753
0,1390006,40.596744537353516,-20.53483009338379,-106.8466796875,-40.984317779541016
0,1390009,-18.920795440673828,5.894372463226318,149.13992309570312,-90.0003433227539
0,1390010,3.9204416275024414,36.374786376953125,124.77242279052734,0.4043729901313782
0,1390013,30.87265968322754,-11.247451782226562,-297.1926574707031,86.77930450439453
0,1390014,-26.740495681762695,-43.386295318603516,-119.46572875976562,29.16649055480957
0,1390017,-36.24192428588867,19.145339965820312,423.0025634765625,-119.46759796142578
0,1390018,6.782806396484375,44.218135833740234,145.04534912109375,-56.54106903076172
0,1390021,40.926998138427734,-15.690242767333984,-412.9244689941406,87.5518569946289
0,1390022,-12.870619773864746,-38.858577728271484,-45.435577392578125,11.310798645019531
0,1390025,-10.164588928222656,22.45170021057129,155.0875701904297,2.1738393306732178
0,1390026,35.48091506958008,19.51361656188965,-94.23870086669922,-23.102632522583008
0,1390029,-31.126678466796875,-13.211076736450195,125.35264587402344,-29.476884841918945
0,1390030,-37.78425979614258,-10.463143348693848,130.57907104492188,108.38086700439453
0,1390033,33.2633056640625,-5.282573699951172,-269.7274169921875,86.83322143554688
0,1390034,26.461811065673828,7.532127380371094,-173.4544219970703,-92.29638671875
0,1390037,-12.822996139526367,21.4847354888916,410.1487121582031,-83.57788848876953
0,1390038,-23.823535919189453,2.0010836124420166,173.51597595214844,7.550843238830566
0,1390041,1.8493386507034302,-45.78508758544922,-439.8067932128906,38.4283561706543
0,1390042,36.15963363647461,20.24590492248535,-4.744263648986816,58.48766326904297
0,1390045,0.7373573780059814,15.659805297851562,168.5398406982422,-25.20539093017578
0,1390046,-21.728271484375,-34.28565979003906,-111.6470718383789,-48.47167205810547
0,1390049,7.201831340789795,59.136924743652344,177.4854736328125,-30.209903717041016
0,1390050,-11.593450546264648,0.2542562484741211,94.11992645263672,5.982537269592285
0,1390053,-3.643601655960083,-81.52485656738281,-341.9734802246094,43.60563278198242
0,1390054,21.909503936767578,23.445775985717773,-90.73527526855469,4.894671440124512
0,1390057,-16.662185668945312,51.232574462890625,419.3219299316406,-15.771590232849121
0,1390058,-22.7987117767334,-25.009355545043945,90.57068634033203,-29.6881046295166
0,1390061,25.435258865356445,-37.08514404296875,-409.1068420410156,39.83647918701172
0,1390062,19.026107788085938,26.35093879699707,-10.81657886505127,36.32288360595703
0,1390065,-29.7865047454834,-5.149319648742676,100.09707641601562,-26.832565307617188
0,1390066,-1.6157251596450806,-1.3598917722702026,-85.56198120117188,-33.808597564697266
0,1390069,11.386022567749023,48.470062255859375,247.4613494873047,15.475188255310059
0,1390070,-11.850300788879395,-40.99461364746094,56.22796630859375,77.64756774902344
0,1390073,10.84432601928711,-33.124595642089844,-341.622314453125,-99.12114715576172
0,1390075,0.5357532501220703,36.66274642944336,-11.978846549987793,-47.598724365234375
0,1390077,-5.027414321899414,46.89940643310547,428.9170227050781,104.64437866210938
0,1390079,15.018427848815918,-26.43653678894043,27.03982162475586,-30.76287269592285
0,1390082,-3.5527608394622803,-52.41327667236328,-397.1042785644531,-30.74203872680664
0,1390083,-20.914291381835938,18.17190933227539,20.013124465942383,63.94507598876953
0,1390084,4.728368759155273,0.17511612176895142,144.79605102539062,28.440670013427734
0,1390087,17.577041625976562,10.380595207214355,-84.09589385986328,-58.28266525268555
0,1390088,-12.262493133544922,10.03874397277832,69.46402740478516,-45.70774841308594
0,1390091,-2.1736581325531006,-22.4897403717041,27.258228302001953,40.091915130615234
0,1390092,40.70195770263672,-8.257497787475586,-318.0570068359375,39.22580337524414
0,1390095,-5.716884136199951,20.296785354614258,85.43098449707031,-27.427492141723633
0,1390096,-45.59500503540039,29.528812408447266,367.25250244140625,-4.802868366241455
0,1390099,-16.684406280517578,-22.962060928344727,-104.12681579589844,-100.73734283447266
0,1390100,12.991730690002441,-27.854022979736328,-162.5459442138672,-75.69910430908203
0,1390103,17.828950881958008,37.322303771972656,40.59720230102539,205.2484893798828
0,1390104,-7.705390930175781,19.123676300048828,89.12194061279297,90.58905792236328
0,1390107,10.842763900756836,-36.26811981201172,-53.4974250793457,-140.96875
0,1390108,12.60574722290039,-6.174065113067627,42.865333557128906,-42.41496276855469
0,1390111,-7.151171684265137,17.430355072021484,85.41547393798828,103.85755920410156
0,1390112,2.982774019241333,-2.136341094970703,-329.9052734375,61.22992706298828
0,1390115,3.019270420074463,8.577116966247559,57.556663513183594,-90.04411315917969
0,1390116,0.9414152503013611,-10.464098930358887,351.29278564453125,-56.29115676879883
0,1390119,-0.7752103805541992,-8.948432922363281,-123.1274185180664,24.754898071289062
0,1390120,-28.57240104675293,10.731955528259277,-157.3448028564453,42.36277770996094
0,1390123,-12.020061492919922,-17.67506217956543,23.39977264404297,23.987192153930664
0,1390124,47.054744720458984,27.667768478393555,94.20706939697266,-98.64583587646484
0,1390127,16.950136184692383,11.725068092346191,-46.74391555786133,-32.2573356628418
0,1390128,-49.1185302734375,-36.606422424316406,36.340545654296875,22.428205490112305
0,1390131,-26.59075355529785,7.427404403686523,76.72562408447266,19.58320426940918
0,1390132,22.355976104736328,-14.377583503723145,-286.17364501953125,104.83573150634766
0,1390135,23.223735809326172,11.171221733093262,68.05101013183594,-19.230510711669922
0,1390136,9.823114395141602,41.338497161865234,307.9095764160156,-44.609832763671875
0,1390139,12.185833930969238,-24.217500686645508,-112.13279724121094,-9.806612968444824
0,1390140,2.9594485759735107,-34.55992126464844,-165.29824829101562,-26.931640625
0,1390143,-43.21031951904297,-8.452821731567383,-4.226366996765137,106.73939514160156
0,1390144,-9.248614311218262,1.3134446144104004,88.98622131347656,13.801797866821289
0,1390147,52.560482025146484,27.802310943603516,-23.54982566833496,-110.22562408447266
0,1390148,-10.602709770202637,25.944120407104492,72.21692657470703,-7.587255954742432
0,1390151,-59.9322395324707,-46.57781219482422,53.712074279785156,-0.924818754196167
0,1390152,41.33098220825195,7.673144817352295,-318.32177734375,8.203496932983398
0,1390155,33.53382873535156,67.53717041015625,119.14228057861328,42.5506591796875
0,1390156,-57.893924713134766,-21.636329650878906,341.9915771484375,25.18817901611328
0,1390159,-5.18886137008667,-33.57146072387695,-171.3041229248047,-12.24763011932373
0,1390160,24.74071502685547,1.0411298274993896,-222.2147216796875,-48.958255767822266
0,1390163,22.1285457611084,15.337675094604492,33.304264068603516,12.894193649291992
0,1390164,-9.379792213439941,-6.941931247711182,142.13589477539062,-23.32095718383789
0,1390167,-12.66893196105957,-7.617140769958496,-47.584869384765625,-60.06563949584961
0,1390168,-2.4692018032073975,19.75540542602539,86.16974639892578,41.10967254638672
0,1390171,-8.52749252319336,-29.51628875732422,57.18946075439453,88.89884185791016
0,1390172,39.88340377807617,-23.37529945373535,-354.12554931640625,14.58427906036377
0,1390175,2.4832985401153564,47.116336822509766,154.43435668945312,-73.76432037353516
0,1390176,-25.53813362121582,18.17797088623047,351.2922668457031,1.9847737550735474
0,1390179,-12.742572784423828,-56.352848052978516,-218.79336547851562,31.440723419189453
0,1390180,16.089431762695312,-12.795784950256348,-225.94651794433594,-9.169087409973145
0,1390183,11.594727516174316,36.85313415527344,54.97787857055664,17.38587760925293
0,1390184,-26.712194442749023,10.862669944763184,112.07378387451172,4.971377849578857
0,1390187,12.082365989685059,4.02507209777832,-30.267126083374023,-58.492469787597656
0,1390189,-12.930452346801758,-20.388914108276367,125.15087127685547,-26.988285064697266
0,1390191,-13.391022682189941,-19.268293380737305,79.77337646484375,65.1964111328125
0,1390193,44.01258087158203,43.91689682006836,-277.958251953125,49.284423828125
0,1390195,6.439575672149658,15.799459457397461,5.2854905128479,-44.62910079956055
0,1390197,-56.44124984741211,-32.446807861328125,322.2342834472656,-102.14895629882812
0,1390199,1.2345643043518066,-4.606131553649902,-40.55611038208008,14.0734224319458
0,1390201,41.07274627685547,-9.1405611038208,-333.8970031738281,112.66822052001953
0,1390203,-39.600608825683594,4.60576868057251,23.362550735473633,-13.149389266967773
0,1390205,26.109731674194336,16.25031852722168,43.02922058105469,-37.03666687011719
0,1390207,67.71414184570312,1.5183587074279785,-50.06108474731445,47.06346893310547
0,1390209,-58.090335845947266,15.519082069396973,267.1177978515625,-52.24131393432617
0,1390211,-34.06001281738281,-16.374019622802734,6.858081340789795,-32.15380096435547
0,1390213,16.534757614135742,-28.894010543823242,-286.323974609375,79.31065368652344
0,1390215,-13.460749626159668,17.25994110107422,45.493438720703125,25.95026206970215
0,1390217,3.1173243522644043,15.426839828491211,276.3168029785156,-39.91423416137695
0,1390219,15.488829612731934,-10.985280990600586,-6.2626447677612305,-40.663726806640625
0,1390221,29.11231231689453,-5.616668224334717,-271.838623046875,9.20879077911377
0,1390223,-13.063985824584961,-6.628481388092041,21.12350082397461,9.60083293914795
0,1390225,-16.656173706054688,-12.521625518798828,35.50230026245117,10.263497352600098
0,1390227,28.699203491210938,25.612913131713867,-81.63676452636719,-7.355319499969482
0,1390229,-17.476106643676758,12.87590503692627,262.2054138183594,-20.007362365722656
0,1390231,-28.841459274291992,-54.42792892456055,0.1803080141544342,80.78148651123047
0,1390233,6.807483196258545,23.68691062927246,-308.0241394042969,46.42384338378906
0,1390235,38.376930236816406,54.40748596191406,74.30762481689453,-115.35104370117188
0,1390237,-12.458053588867188,-33.42056655883789,295.42218017578125,-100.5771713256836
0,1390239,-30.92375373840332,-0.20621518790721893,-32.25841522216797,38.25059509277344
0,1390241,39.72441101074219,2.781801700592041,-300.88616943359375,117.75505828857422
0,1390243,-21.644351959228516,-0.683849036693573,76.1671142578125,44.09440612792969
0,1390245,-29.084205627441406,14.397419929504395,30.374542236328125,-67.29595184326172
0,1390247,41.31132125854492,-1.058674931526184,-116.7878189086914,-44.10491180419922
0,1390249,-18.02168846130371,1.887147068977356,303.7171325683594,-105.7029800415039
0,1390251,-32.831905364990234,-40.65415573120117,-17.696434020996094,-18.347957611083984
0,1390253,51.65503692626953,-20.10211181640625,-361.64093017578125,185.6100616455078
0,1390255,29.452407836914062,23.08509635925293,101.2958984375,20.252811431884766
0,1390257,-28.146862030029297,49.94557571411133,355.9580383300781,-66.64700317382812
0,1390259,6.130202770233154,-9.64697551727295,-38.74410629272461,23.989330291748047
0,1390261,-7.871899127960205,-83.16658020019531,-343.5660400390625,24.983016967773438
0,1390263,-40.14980697631836,23.887651443481445,51.23967361450195,1.987991213798523
0,1390265,12.677807807922363,38.38444900512695,83.25615692138672,-24.422426223754883
0,1390267,40.56092071533203,1.508487343788147,-69.86557006835938,-45.802879333496094
0,1390269,-12.921287536621094,18.991497039794922,237.5543670654297,13.989190101623535
0,1390271,-13.55513858795166,-18.38713264465332,-41.47249984741211,76.04702758789062
0,1390273,14.16562271118164,-26.676013946533203,-324.26080322265625,-36.86439895629883
0,1390275,-10.406064987182617,-4.949757099151611,64.27278137207031,-58.03159713745117
0,1390277,-22.260534286499023,42.133087158203125,308.36279296875,-4.955790042877197
0,1390279,5.055779457092285,1.569046974182129,-15.274357795715332,-21.134740829467773
0,1390281,53.6309700012207,-34.890960693359375,-252.8727264404297,69.57565307617188
0,1390283,-16.00514030456543,18.26210594177246,74.72306823730469,83.54611206054688
0,1390285,-46.70738983154297,-3.611070394515991,-3.153573513031006,-89.80787658691406
0,1390287,35.237571716308594,10.086111068725586,-50.33195495605469,-83.46981811523438
0,1390289,17.91555404663086,21.044116973876953,296.993408203125,73.55968475341797
0,1390291,-23.55536460876465,-34.005008697509766,-93.65129089355469,58.81111526489258
0,1390293,-10.626665115356445,-5.904698371887207,-336.4841613769531,-53.00324249267578
0,1390295,24.229890823364258,27.440282821655273,119.86465454101562,-40.630577087402344
0,1390297,-20.027944564819336,-34.16588592529297,301.21783447265625,36.20119857788086
0,1390299,-29.214519500732422,-14.418059349060059,-58.73090744018555,-20.371671676635742
0,1390301,11.585441589355469,46.02000045776367,-284.1666564941406,-12.706266403198242
0,1390303,-7.852017879486084,2.882336378097534,57.12164306640625,79.44009399414062
0,1390305,28.859649658203125,-22.634292602539062,44.079246520996094,8.602043151855469
0,1390307,32.43246841430664,5.394986629486084,-50.248878479003906,-65.45696258544922
0,1390310,-22.444292068481445,31.59591293334961,233.30612182617188,-29.721067428588867
0,1390311,-38.1957893371582,-40.22260284423828,-83.96958923339844,68.4724349975586
0,1390312,25.762422561645508,-47.66370391845703,-408.43096923828125,68.56478118896484
0,1390315,27.095308303833008,60.93090057373047,186.07037353515625,-64.19962310791016
0,1390318,-43.842769622802734,32.94471740722656,522.5127563476562,-134.29905700683594
0,1390318,13.826741218566895,-22.99216651916504,-159.05474853515625,-51.77342224121094
0,1390321,14.815403938293457,-28.176584243774414,-406.6117248535156,195.69544982910156
0,1390322,-21.08636474609375,-3.3451015949249268,168.6723175048828,95.4203109741211
0,1390325,13.835199356079102,8.475862503051758,88.83915710449219,-176.48043823242188
0,1390326,16.859304428100586,-1.7121412754058838,-118.43679809570312,-42.141387939453125
0,1390329,-12.417790412902832,30.841501235961914,231.34605407714844,64.50479888916016
0,1390330,-23.23524284362793,-5.763539791107178,-5.714837551116943,63.701290130615234
0,1390333,14.650055885314941,-27.47323989868164,-370.34033203125,15.875557899475098
0,1390334,2.4556961059570312,7.923346519470215,-26.36731719970703,-76.21868896484375
0,1390337,-15.681050300598145,20.34627342224121,371.4761047363281,-29.890567779541016
0,1390338,18.87358283996582,-6.1071977615356445,74.1480484008789,52.29513168334961
0,1390341,23.07672691345215,-36.64093017578125,-312.0092468261719,79.23812103271484
0,1390342,-11.534138679504395,13.8013334274292,48.37692642211914,-2.8617136478424072
0,1390345,-19.558584213256836,11.141932487487793,80.92495727539062,-192.5602264404297
0,1390346,-6.592944145202637,-16.292709350585938,-90.74775695800781,-70.66447448730469
0,1390349,-18.27489471435547,19.956148147583008,211.21536254882812,214.47093200683594
0,1390350,6.282527446746826,-4.6464056968688965,4.708343505859375,46.42040252685547
0,1390353,34.166072845458984,-14.772551536560059,-349.826904296875,-36.19255828857422
0,1390354,0.8809482455253601,32.42778396606445,-30.151464462280273,35.987205505371094
0,1390357,-25.783321380615234,26.597183227539062,391.4787292480469,-115.92668914794922
0,1390358,15.564990997314453,-22.138225555419922,32.55741500854492,-77.34465026855469
0,1390361,23.654699325561523,-30.80206871032715,-351.9859313964844,80.96773529052734
0,1390362,-52.46990203857422,3.0427658557891846,83.72501373291016,46.037410736083984
0,1390365,-6.631791114807129,-8.053351402282715,87.74329376220703,-5.779861927032471
0,1390366,44.61051559448242,-4.3575592041015625,-80.11538696289062,-38.98305130004883
0,1390369,-6.033303260803223,21.940073013305664,247.55181884765625,-26.56623077392578
0,1390370,2.7709970474243164,-1.7517328262329102,-12.262359619140625,108.65745544433594
0,1390373,14.438117980957031,12.616186141967773,-354.44451904296875,53.148826599121094
0,1390374,-3.4727942943573,-7.614870071411133,-7.004880905151367,-100.90811920166016
0,1390377,-9.2319974899292,-5.8164381980896,354.8729553222656,-60.621238708496094
0,1390378,4.852866172790527,26.218292236328125,20.520401000976562,25.773134231567383
0,1390381,-10.209774017333984,-30.771949768066406,-349.5923767089844,82.32476806640625
0,1390382,-17.317153930664062,8.032598495483398,80.36509704589844,24.16166114807129
0,1390385,19.949121475219727,12.291515350341797,122.49727630615234,-73.55040740966797
0,1390386,3.744886636734009,-36.609981536865234,-105.06227111816406,-31.09792137145996
0,1390389,-40.27763366699219,14.080352783203125,201.837158203125,-18.3570556640625
0,1390390,-29.03151512145996,3.119846820831299,5.621131896972656,16.927818298339844
0,1390393,40.76789093017578,-27.967998504638672,-329.3712158203125,79.3124008178711
0,1390394,53.68682098388672,-3.32657790184021,11.11410140991211,-21.021907806396484
0,1390397,-18.97789764404297,51.04387283325195,359.48162841796875,-73.0718994140625
0,1390398,-20.304534912109375,18.677406311035156,22.93341827392578,-29.0795841217041
0,1390401,26.675355911254883,-30.63640594482422,-326.4311218261719,96.05433654785156
0,1390402,-17.013273239135742,5.853939533233643,60.84127426147461,69.50631713867188
0,1390405,-7.433763027191162,-0.05099639296531677,76.49285125732422,-82.048583984375
0,1390406,25.326995849609375,7.854484558105469,-101.08078002929688,-34.7630500793457
0,1390409,-44.66250228881836,8.35826301574707,216.21588134765625,-53.44742202758789
0,1390410,-22.86258316040039,-40.07619094848633,22.587526321411133,39.742401123046875
0,1390413,37.800811767578125,-8.261713981628418,-319.4718322753906,111.05975341796875
0,1390414,14.884435653686523,32.652923583984375,-29.467456817626953,-44.40742874145508
0,1390417,0.707151472568512,-26.946443557739258,344.3108825683594,-20.704605102539062
0,1390418,-2.5022811889648438,-18.136943817138672,14.928180694580078,-19.231361389160156
0,1390421,-31.612674713134766,25.24488639831543,-316.2142639160156,-3.5491786003112793
0,1390422,-14.163531303405762,12.637124061584473,123.63988494873047,116.93093872070312
0,1390425,58.79618453979492,13.823028564453125,51.411376953125,-57.838623046875
0,1390426,27.495716094970703,6.073665618896484,-140.19580078125,-130.67543029785156
0,1390429,-46.93960952758789,5.742032051086426,282.6533508300781,66.03042602539062
0,1390430,-0.22224757075309753,-13.620646476745605,11.178486824035645,80.5018081665039
0,1390433,8.200231552124023,-38.82201385498047,-354.6483154296875,-40.06283950805664
0,1390435,-22.087926864624023,9.601104736328125,35.834320068359375,-77.257080078125
0,1390437,-36.30632019042969,17.788393020629883,310.61883544921875,-13.291898727416992
0,1390439,-6.872641086578369,-7.258720397949219,-11.362789154052734,0.8180238008499146
0,1390441,66.11869812011719,-5.120430946350098,-271.9197998046875,107.19417572021484
0,1390443,4.371574401855469,-13.732354164123535,73.97306060791016,68.33004760742188
0,1390445,-1.2204527854919434,10.748458862304688,19.953615188598633,-108.29146575927734
0,1390447,49.299957275390625,9.37457275390625,-93.0115737915039,7.580870151519775
0,1390449,-51.55133819580078,4.230589389801025,241.6090087890625,33.84990692138672
0,1390451,-44.52162170410156,2.1399097442626953,-52.81079864501953,-36.16073226928711
0,1390453,48.30606460571289,-3.9944968223571777,-215.63330078125,-63.40037536621094
0,1390455,21.82924461364746,38.34367752075195,148.07028198242188,-0.3746453523635864
0,1390458,-5.897499084472656,12.823925971984863,203.3301544189453,75.29176330566406
0,1390460,-38.732086181640625,-64.61502838134766,-144.84718322753906,-70.36250305175781
0,1390461,-52.13748550415039,-62.93404769897461,-262.0162658691406,-25.939184188842773
0,1390463,-0.9888179302215576,30.765655517578125,164.60169982910156,125.60651397705078
0,1390465,38.79145050048828,101.85052490234375,30.183807373046875,44.15610885620117
0,1390467,54.279991149902344,37.098304748535156,-114.58403778076172,-75.52057647705078
0,1390469,-6.390260219573975,-82.14754486083984,273.1594543457031,-105.00099182128906
0,1390471,-35.43671417236328,-76.41992950439453,-37.9366340637207,77.39656066894531
0,1390473,10.852489471435547,37.6661262512207,-299.12890625,155.6541748046875
0,1390475,14.800911903381348,70.07814025878906,100.98455047607422,-55.599769592285156
0,1390477,-6.208181858062744,-10.776670455932617,265.0829772949219,-98.0279769897461
0,1390479,0.4634091854095459,-44.90984344482422,-60.218021392822266,-31.766080856323242
0,1390481,28.864870071411133,33.074893951416016,-245.64404296875,86.7868423461914
0,1390483,-29.91827392578125,4.682319641113281,90.29801940917969,41.020408630371094
0,1390485,-33.6540641784668,-53.04753875732422,11.447796821594238,-130.39845275878906
0,1390487,40.9968376159668,6.07039737701416,-101.09144592285156,0.06928103417158127
0,1390489,-7.419061183929443,13.111635208129883,259.3671569824219,-1.4466956853866577
0,1390491,-42.43061065673828,-18.650157928466797,-33.45166015625,-41.41481018066406
0,1390493,-6.808879375457764,-23.438825607299805,-301.70526123046875,18.721101760864258
0,1390495,-2.690580129623413,10.88363265991211,91.96327209472656,17.315542221069336
0,1390497,49.34400939941406,50.30380630493164,290.470703125,123.37445068359375
0,1390499,76.75386810302734,26.743383407592773,-42.859947204589844,91.01959991455078
0,1390501,-38.43034362792969,18.401887893676758,-260.5257873535156,-116.48255920410156
0,1390503,-81.1952896118164,-11.618199348449707,121.21647644042969,-149.10345458984375
0,1390505,17.538372039794922,-79.06161499023438,1.24808669090271,29.17862319946289
0,1390507,52.37559127807617,12.481977462768555,-103.09099578857422,52.025150299072266
0,1390509,-31.969348907470703,59.064727783203125,298.3449401855469,20.87702178955078
0,1390511,-46.08057403564453,-39.06256866455078,-104.15950775146484,115.03935241699219
0,1390513,27.375444412231445,-19.30636215209961,-332.5694885253906,-5.853947639465332
0,1390515,11.13501262664795,11.07410717010498,135.95713806152344,-120.093994140625
0,1390517,-11.049628257751465,-0.8542487621307373,273.3459167480469,33.0258674621582
0,1390519,0.6683692932128906,-7.09859561920166,-69.22264862060547,20.032617568969727
0,1390521,1.7477753162384033,-4.3158063888549805,-237.0309295654297,-104.30174255371094
0,1390523,25.816669464111328,39.89262008666992,135.05149841308594,74.94021606445312
0,1390525,30.70478630065918,-12.559590339660645,0.0817289799451828,22.074039459228516
0,1390527,-5.1504740715026855,-17.12407112121582,-119.88854217529297,-161.47021484375
0,1390529,-54.44831085205078,33.4092903137207,283.4114685058594,76.27386474609375
0,1390531,-12.075484275817871,19.789318084716797,-60.55483627319336,97.53667449951172
0,1390533,58.82105255126953,-0.7801946401596069,-284.52545166015625,-35.15595245361328
0,1390535,-0.4047912359237671,-36.43752670288086,105.62620544433594,10.8251953125
0,1390537,-43.845458984375,-4.032392978668213,224.56663513183594,0.7113215327262878
0,1390539,22.12578773498535,8.817402839660645,-18.819364547729492,-43.093238830566406
0,1390541,2.4119439125061035,-42.431297302246094,-246.91944885253906,-26.537311553955078
0,1390543,-57.802452087402344,2.080932855606079,59.014984130859375,67.39374542236328
0,1390545,47.12144470214844,49.04616928100586,63.33513641357422,23.555505752563477
0,1390547,56.97453308105469,-17.083660125732422,-98.57129669189453,-109.50598907470703
0,1390549,-49.74600601196289,-5.948955535888672,222.85678100585938,-29.439495086669922
0,1390551,0.6153447031974792,36.096405029296875,-17.44916343688965,139.6780548095703
0,1390553,20.034421920776367,-30.682628631591797,-278.1441955566406,139.399658203125
0,1390555,-34.68452835083008,-50.26581573486328,87.76539611816406,-109.41248321533203
0,1390557,-51.68490982055664,4.513963222503662,231.45358276367188,-216.49937438964844
0,1390559,11.199481964111328,67.64314270019531,-40.2596435546875,6.5345635414123535
0,1390561,56.495506286621094,99.75363159179688,-184.82980346679688,136.28802490234375
0,1390563,-25.304723739624023,-55.93072509765625,51.0644416809082,57.75629806518555
0,1390565,17.27750015258789,-126.74348449707031,-18.126697540283203,12.230103492736816
0,1390567,47.36711502075195,11.102795600891113,-65.89952850341797,23.02404022216797
0,1390569,-47.588584899902344,54.885169982910156,261.1209411621094,-47.458675384521484
0,1390571,-3.1024723052978516,-0.5757266283035278,-55.09482955932617,-54.203975677490234
0,1390573,26.996976852416992,-42.65060043334961,-295.7007141113281,8.371211051940918
0,1390575,6.063900947570801,32.404640197753906,127.76651763916016,-28.239704132080078
0,1390577,-4.44578218460083,41.59680938720703,248.36741638183594,-5.181906700134277
0,1390579,-40.25728988647461,-35.282936096191406,-85.9087142944336,31.495267868041992
0,1390581,-20.347919464111328,-16.66050148010254,-238.05908203125,-44.5904426574707
0,1390583,1.5355690717697144,2.2434937953948975,107.04856872558594,25.755306243896484
0,1390585,34.687679290771484,-13.647303581237793,40.51702880859375,106.54383087158203
0,1390587,3.5302910804748535,-6.488727569580078,-88.96131896972656,-20.196264266967773
0,1390589,-29.748857498168945,50.82594680786133,230.0177459716797,-79.92957305908203
0,1390591,31.663005828857422,46.18602752685547,-79.41009521484375,58.34944152832031
0,1390593,-4.626708030700684,-44.94388198852539,-266.12548828125,-7.76258659362793
0,1390595,-8.209665298461914,-9.206890106201172,163.42198181152344,-135.10633850097656
0,1390597,15.550324440002441,12.224081039428711,220.83026123046875,7.090842247009277
0,1390599,17.15145492553711,-25.803958892822266,-84.76451110839844,63.80445861816406
0,1390601,29.581022262573242,14.428304672241211,-186.0008087158203,35.741573333740234
0,1390603,-33.22800064086914,-6.692624092102051,64.85482788085938,24.132640838623047
0,1390605,-44.15066909790039,-39.429561614990234,-50.01363754272461,-14.927749633789062
0,1390607,-36.6038818359375,11.834694862365723,-55.73688507080078,-67.71757507324219
0,1390609,-4.979725360870361,41.837764739990234,275.4629821777344,-26.070165634155273
0,1390611,41.04628372192383,-29.499895095825195,-112.66911315917969,113.64398193359375
0,1390614,32.66560363769531,2.910977602005005,-120.14060974121094,1.294548749923706
0,1390617,10.377654075622559,56.269081115722656,455.7872009277344,-129.1320343017578
0,1390617,0.5926395654678345,-27.618608474731445,-52.3544921875,16.972623825073242
0,1390618,7.057110786437988,-18.396276473999023,-545.412841796875,95.05126190185547
0,1390621,-6.7623796463012695,-6.364561557769775,-11.10047721862793,100.92943572998047
0,1390622,2.727710008621216,-9.544473648071289,270.6202392578125,62.75682067871094
0,1390625,-2.4504895210266113,17.751754760742188,-16.27294158935547,-87.5000228881836
0,1390626,-17.352428436279297,-6.759228229522705,-84.11193084716797,-210.99465942382812
0,1390629,-19.956968307495117,5.206370830535889,197.45425415039062,-71.5595703125
0,1390630,-25.230571746826172,7.509129047393799,-65.67292022705078,226.3268280029297
0,1390633,24.78231430053711,-6.533112525939941,-370.78900146484375,86.05760955810547
0,1390634,45.349639892578125,-5.261723518371582,44.32042694091797,-124.97362518310547
0,1390637,-20.78403663635254,-11.848448753356934,371.6131896972656,15.07737922668457
0,1390638,-26.600048065185547,-0.8725354671478271,11.747360229492188,-25.885595321655273
0,1390641,11.003758430480957,20.682933807373047,-242.0037384033203,-52.923126220703125
0,1390642,-5.238049507141113,4.836105823516846,196.35081481933594,87.55717468261719
0,1390645,24.71971893310547,-5.43241548538208,37.021087646484375,-12.116012573242188
0,1390646,14.035094261169434,-0.7687940001487732,-194.65716552734375,-82.26221466064453
0,1390649,-45.12847900390625,-37.31803894042969,217.13638305664062,52.450164794921875
0,1390650,-5.023990631103516,1.6986573934555054,-55.2784423828125,108.51556396484375
0,1390653,39.12059020996094,71.33720397949219,-313.6909484863281,-32.149314880371094
0,1390654,11.120004653930664,2.62684965133667,83.71931457519531,-46.71748733520508
0,1390657,-31.99004554748535,-48.72306442260742,288.8616638183594,-13.431599617004395
0,1390658,-11.823498725891113,9.270766258239746,13.566789627075195,-81.06798553466797
0,1390661,15.769893646240234,8.534514427185059,-232.1739959716797,28.30862045288086
0,1390662,-3.684225082397461,-12.520150184631348,61.6485710144043,78.11148834228516
0,1390665,20.185701370239258,-3.5723204612731934,46.8875846862793,11.276771545410156
0,1390666,27.780580520629883,11.933487892150879,-52.07902908325195,-29.80946159362793
0,1390669,-24.322938919067383,42.23073196411133,212.65951538085938,-10.50899600982666
0,1390670,-11.73375129699707,-41.3487663269043,-114.97017669677734,22.420541763305664
0,1390673,6.469939231872559,-47.659568786621094,-304.1199951171875,22.63435935974121
0,1390674,-29.155054092407227,45.8167724609375,90.41199493408203,52.84052276611328
0,1390677,-35.15409469604492,-5.7669806480407715,265.6506042480469,-130.1081085205078
0,1390678,23.87794303894043,-29.16387939453125,-5.883773326873779,-169.4857940673828
0,1390681,41.12353515625,3.563065767288208,-229.01686096191406,136.6155548095703
0,1390682,-10.719565391540527,28.75080108642578,116.23361206054688,147.0096435546875
0,1390685,-4.528994560241699,9.279823303222656,36.15138244628906,-44.741294860839844
0,1390686,-8.430932998657227,-42.91166305541992,-125.32608032226562,-64.78204345703125
0,1390689,-16.87311553955078,10.641141891479492,249.4781494140625,-146.64047241210938
0,1390690,27.999622344970703,43.78607177734375,-57.74000549316406,-30.58171272277832
0,1390693,48.474491119384766,-7.495666027069092,-340.7938537597656,447.2781677246094
0,1390694,5.68666410446167,0.19620992243289948,101.48251342773438,242.0940399169922
0,1390697,-60.58502960205078,6.008384704589844,301.8835144042969,-422.0162658691406
0,1390698,-27.123952865600586,-18.783641815185547,-31.3856143951416,-331.27789306640625
0,1390701,5.557833194732666,-14.373442649841309,-242.10552978515625,189.33773803710938
0,1390702,-22.798288345336914,-4.7431793212890625,62.64875030517578,180.2707061767578
0,1390705,42.69594955444336,9.16800594329834,26.000370025634766,-130.96177673339844
0,1390706,34.15351486206055,-6.98848295211792,-74.39015197753906,-119.49845123291016
0,1390709,-24.018747329711914,24.088886260986328,247.28575134277344,97.64138793945312
0,1390710,6.734471797943115,24.941829681396484,-42.65363311767578,178.5464324951172
0,1390713,-24.796171188354492,-69.39950561523438,-337.0906066894531,55.04206466674805
0,1390714,-2.178028106689453,-14.604790687561035,98.06974792480469,-80.6761245727539
0,1390717,42.289302825927734,75.8262710571289,328.9384460449219,-163.11146545410156
0,1390718,-11.623119354248047,-2.6089425086975098,-67.54057312011719,-47.24182891845703
0,1390721,-34.92876052856445,-57.43337631225586,-304.0047607421875,38.72704315185547
0,1390722,15.679272651672363,23.36446762084961,117.19136810302734,85.48857879638672
0,1390725,56.164798736572266,77.49817657470703,100.93204498291016,158.5615997314453
0,1390726,11.324057579040527,-19.176008224487305,-87.23121643066406,-107.10780334472656
0,1390729,-60.5533561706543,-31.50613784790039,203.7796173095703,-118.8024673461914
0,1390730,-52.20355224609375,-4.413707733154297,-85.25288391113281,94.20956420898438
0,1390733,36.15388870239258,-56.83538055419922,-292.111572265625,-64.94754791259766
0,1390734,-0.31391364336013794,-10.031575202941895,106.90335083007812,-95.8968734741211
0,1390737,-8.671449661254883,18.71267318725586,257.4178466796875,-4.372473239898682
0,1390738,68.59378814697266,22.30018424987793,-27.843393325805664,48.203033447265625
0,1390741,-44.108394622802734,-2.9839324951171875,-274.388671875,213.76327514648438
0,1390742,-78.23272705078125,-26.049806594848633,59.474979400634766,39.37574005126953
0,1390745,39.022743225097656,47.873714447021484,65.27198028564453,-152.27923583984375
0,1390746,54.85896682739258,54.6403694152832,-52.669857025146484,-5.3056769371032715
0,1390749,33.05192565917969,-21.947818756103516,226.79208374023438,-49.06076431274414
0,1390751,-22.380828857421875,-57.3406982421875,-118.13463592529297,-30.985536575317383
0,1390753,-63.93456268310547,44.328041076660156,-184.3642120361328,65.9942855834961
0,1390755,10.14585018157959,63.62456130981445,184.12110900878906,-65.42279052734375
0,1390757,35.9611930847168,-80.44401550292969,111.17450714111328,-3.3843612670898438
0,1390759,32.36970901489258,-45.61832046508789,-64.14000701904297,122.27003479003906
0,1390761,-20.467517852783203,15.84659194946289,-172.0196533203125,13.891475677490234
0,1390763,-65.53636932373047,-5.824370861053467,40.3092041015625,-90.5766830444336
0,1390765,47.42212677001953,15.504414558410645,-8.084009170532227,21.289813995361328
0,1390767,44.20064163208008,-2.1726064682006836,-49.83762741088867,86.105712890625
0,1390769,-54.68930435180664,-0.4837380647659302,234.13821411132812,-79.15478515625
0,1390771,-16.814443588256836,7.483823299407959,-113.67477416992188,-42.00761795043945
0,1390773,56.3235969543457,-11.70909595489502,-133.8887481689453,-8.03495979309082
0,1390775,17.70954132080078,-0.23872753977775574,233.3135528564453,-5.045736789703369
0,1390777,-69.72415924072266,28.291807174682617,37.049503326416016,68.51786804199219
0,1390779,-35.22597122192383,9.952345848083496,-168.77940368652344,-7.177704334259033
0,1390781,37.16501998901367,-15.248028755187988,-95.21630096435547,49.189613342285156
0,1390783,8.472038269042969,-1.392337679862976,111.87109375,45.18138885498047
0,1390786,13.479646682739258,-1.8844934701919556,-53.2845344543457,-35.21956253051758
0,1390788,40.616031646728516,10.916954040527344,-50.726768493652344,-113.65693664550781
0,1390788,-39.57740020751953,-9.312808990478516,334.42999267578125,-116.65837097167969
0,1390791,-28.82180404663086,-20.273990631103516,-149.7575225830078,140.94515991210938
0,1390792,54.36930465698242,16.85677146911621,-469.0672607421875,33.92533493041992
0,1390795,-15.655868530273438,5.4644012451171875,355.9674072265625,-212.80384826660156
0,1390796,-49.1937255859375,-23.25293731689453,360.45965576171875,124.74203491210938
0,1390799,47.76469039916992,-12.61229419708252,-321.9433898925781,342.69854736328125
0,1390800,39.93111038208008,5.952255725860596,-180.6723175048828,-47.00528335571289
0,1390803,-32.58988952636719,51.4882698059082,98.06941223144531,-307.48541259765625
0,1390804,-42.2932014465332,38.507991790771484,152.1793670654297,-79.13959503173828
0,1390807,-33.99293899536133,-77.27163696289062,44.59001541137695,73.85747528076172
0,1390808,19.608060836791992,-35.749515533447266,40.22731018066406,65.75139617919922
0,1390811,24.573509216308594,44.518062591552734,-130.30157470703125,38.336891174316406
0,1390812,15.005602836608887,8.112959861755371,-332.8617858886719,34.40935134887695
0,1390815,1.4753445386886597,-1.9861383438110352,293.2767028808594,-84.57319641113281
0,1390816,13.4854154586792,10.081217765808105,331.11602783203125,-99.2498550415039
0,1390819,42.422367095947266,34.45853805541992,-293.9119567871094,195.01406860351562
0,1390820,-69.96590423583984,-0.5103229284286499,-170.795166015625,56.08795166015625
0,1390823,-50.47140884399414,-79.70118713378906,80.85314178466797,-110.02232360839844
0,1390824,71.51277923583984,-27.182861328125,38.33698272705078,-21.48470687866211
0,1390827,54.08447265625,106.50879669189453,79.5803451538086,43.03459548950195
0,1390828,-38.885005950927734,59.95074462890625,152.7421875,80.98573303222656
0,1390831,-46.220829010009766,-141.61090087890625,-200.93655395507812,-66.48957824707031
0,1390832,25.514623641967773,-92.73019409179688,-359.801513671875,-78.46699523925781
0,1390835,-26.034244537353516,96.9993667602539,337.7914123535156,20.144779205322266
0,1390836,-32.86415100097656,49.20219802856445,318.9156188964844,-11.064440727233887
0,1390839,61.14191818237305,-8.568281173706055,-292.94146728515625,6.566028118133545
0,1390840,18.855083465576172,-3.032183885574341,-139.19927978515625,19.035083770751953
0,1390843,-49.298404693603516,-35.18074417114258,58.71570587158203,-55.081207275390625
0,1390844,-2.8717732429504395,15.027876853942871,53.03269577026367,2.159827470779419
0,1390847,12.199236869812012,32.33199691772461,92.18831634521484,35.521034240722656
0,1390848,-24.78565788269043,-14.728169441223145,120.42050170898438,-9.545998573303223
0,1390851,31.34309196472168,-3.391329526901245,-211.41795349121094,86.60541534423828
0,1390852,54.62349319458008,4.266994476318359,-376.61669921875,25.10371208190918
0,1390855,-40.645347595214844,-6.703487396240234,426.55621337890625,-92.43682098388672
0,1390856,-21.467557907104492,27.96866226196289,386.39013671875,-90.56180572509766
0,1390859,63.74201965332031,2.9106733798980713,-413.5484313964844,-24.82356834411621
0,1390860,-0.17414367198944092,-44.58488082885742,-191.6571502685547,184.74595642089844
0,1390863,-78.24994659423828,-24.769271850585938,123.84484100341797,237.1569366455078
0,1390864,-31.754602432250977,-15.906984329223633,54.77468490600586,-22.474613189697266
0,1390867,67.54554748535156,66.00227355957031,70.88748931884766,-436.5899658203125
0,1390868,31.98241424560547,51.98389434814453,96.00738525390625,-314.2212829589844
0,1390871,-52.463802337646484,-59.42216491699219,-172.4680938720703,366.15374755859375
0,1390872,0.06266546249389648,-9.616717338562012,-302.73968505859375,348.03271484375
0,1390875,25.224477767944336,15.158876419067383,343.65277099609375,-185.01004028320312
0,1390876,0.933112621307373,3.475240468978882,342.3590087890625,-130.4393768310547
0,1390879,-9.028447151184082,2.6593551635742188,-356.5555114746094,64.29655456542969
0,1390880,-13.2366304397583,-27.560760498046875,-209.42916870117188,2.7128098011016846
0,1390883,-5.119235038757324,-4.9347028732299805,127.39360809326172,-92.87130737304688
0,1390884,4.119415760040283,14.609875679016113,64.6689224243164,22.8525447845459
0,1390887,39.06158447265625,25.79962730407715,60.79144287109375,338.10919189453125
0,1390888,7.968745708465576,8.902510643005371,153.0287322998047,105.64043426513672
0,1390891,-64.24065399169922,-83.08793640136719,-214.0150909423828,-352.4389343261719
0,1390892,-12.908679008483887,-45.61117935180664,-361.66729736328125,-200.9052276611328
0,1390895,15.521597862243652,88.2831039428711,406.4071350097656,156.1624298095703
0,1390896,11.80296516418457,51.58808898925781,324.9035339355469,83.66920471191406
0,1390899,26.226110458374023,-25.756330490112305,-353.2319030761719,-131.470947265625
0,1390900,0.17306196689605713,5.447363376617432,-145.790771484375,136.6039581298828
0,1390903,12.932677268981934,-8.104758262634277,44.094512939453125,-3.417572259902954
0,1390904,-3.250452995300293,-49.498844146728516,15.920345306396484,-470.4463195800781
0,1390907,-6.781973361968994,23.720882415771484,131.90084838867188,67.61197662353516
0,1390908,2.2068700790405273,52.18212890625,132.17587280273438,443.3050537109375
0,1390911,-47.591487884521484,-9.01447582244873,-176.48828125,170.1153564453125
0,1390912,-10.902053833007812,-34.87010192871094,-306.18798828125,-118.81231689453125
0,1390915,9.898423194885254,-26.34305763244629,291.5908203125,-221.64329528808594
0,1390916,-33.33047103881836,8.234824180603027,266.8945617675781,-22.791576385498047
0,1390919,39.15623092651367,38.52040100097656,-282.7677001953125,86.33838653564453
0,1390920,52.26719284057617,3.8845932483673096,-101.18000030517578,106.7901382446289
0,1390923,-11.078304290771484,-79.19126892089844,59.288211822509766,9.476598739624023
0,1390924,-9.090806007385254,-9.775473594665527,23.447998046875,-44.54210662841797
0,1390927,20.949533462524414,115.70770263671875,120.56651306152344,-38.059322357177734
0,1390929,-4.995698928833008,8.466618537902832,140.3538818359375,-20.90161895751953
0,1390931,-27.945302963256836,-84.6541519165039,-251.45372009277344,87.33826446533203
0,1390933,32.828697204589844,22.757699966430664,-357.10546875,29.601478576660156
0,1390935,-10.551536560058594,54.761837005615234,439.9271240234375,-219.6459503173828
0,1390937,-28.081748962402344,-9.501035690307617,364.9448547363281,-128.27413940429688
0,1390939,4.435771942138672,-84.51190948486328,-438.4169006347656,249.02162170410156
0,1390941,-20.17453956604004,-42.79056930541992,-188.60911560058594,202.76902770996094
0,1390943,11.027913093566895,90.88697052001953,169.14085388183594,-137.5977325439453
0,1390945,27.578542709350586,36.60771179199219,-6.102999210357666,-254.50161743164062
0,1390947,-3.1026227474212646,-20.9282169342041,89.84591674804688,47.186641693115234
0,1390949,-23.959672927856445,3.7717626094818115,178.0411834716797,127.22241973876953
0,1390951,-15.697060585021973,-36.97978973388672,-240.74952697753906,-91.22803497314453
0,1390953,7.340548038482666,-37.26769256591797,-262.77288818359375,92.77861022949219
0,1390955,44.51519775390625,64.46149444580078,441.24139404296875,195.6234588623047
0,1390957,38.93836975097656,46.14446258544922,216.59156799316406,-125.59333801269531
0,1390959,-14.097668647766113,-82.71139526367188,-512.1513671875,-128.50767517089844
0,1390961,-46.53484344482422,-9.977387428283691,-118.13761138916016,27.822294235229492
0,1390964,-79.28789520263672,77.30799865722656,179.11268615722656,10.075008392333984
0,1390965,-19.15399742126465,-36.94901657104492,-21.670671463012695,-12.18019962310791
0,1390966,77.77481842041016,-61.42190170288086,187.92196655273438,-93.95384216308594
0,1390969,60.874603271484375,45.59379577636719,163.70472717285156,141.35963439941406
0,1390970,9.910935401916504,4.886880874633789,-281.9160461425781,142.41575622558594
0,1390974,-34.674007415771484,-29.913650512695312,-118.50786590576172,-189.7261962890625
0,1390975,-12.05436897277832,111.18661499023438,280.2537536621094,-29.397842407226562
0,1390976,11.07965087890625,38.837223052978516,-27.587831497192383,71.33950805664062
0,1390979,-26.263429641723633,-128.86172485351562,-174.42840576171875,-162.09690856933594
0,1390980,-5.701841831207275,-28.471487045288086,21.071292877197266,121.87007904052734
0,1390983,22.035343170166016,30.044384002685547,-3.4164788722991943,368.977783203125
0,1390984,11.475059509277344,-25.090259552001953,26.62045669555664,-99.6878433227539
0,1390987,8.89055061340332,27.02167510986328,81.9405746459961,-388.34912109375
0,1390988,-20.787843704223633,34.95778274536133,101.64777374267578,-107.87102508544922
0,1390991,-7.5847673416137695,-53.99699020385742,-208.02725219726562,157.26490783691406
0,1390992,20.28192710876465,-52.62318420410156,-403.3097839355469,54.61826705932617
0,1390995,-52.02255630493164,37.907283782958984,347.6674499511719,186.42750549316406
0,1390996,-13.31358528137207,69.89747619628906,441.093017578125,204.47813415527344
0,1390999,68.96858978271484,-9.418267250061035,-291.2255859375,-352.75213623046875
0,1391000,7.115475177764893,-23.996749877929688,-182.2292938232422,-291.5863952636719
0,1391003,-10.647026062011719,32.03805160522461,134.10653686523438,35.18482971191406
0,1391004,-10.196202278137207,-0.03034963086247444,63.8890380859375,30.159961700439453
0,1391007,-31.050291061401367,-18.16384506225586,13.521760940551758,335.4833679199219
0,1391008,27.243257522583008,13.042757987976074,96.68941497802734,140.46888732910156
0,1391011,12.163360595703125,-35.8785400390625,-220.97706604003906,-193.74676513671875
0,1391012,-70.89665222167969,-26.540733337402344,-382.797119140625,66.8490219116211
0,1391015,-13.055757522583008,47.52925109863281,424.32666015625,-104.75151824951172
0,1391016,70.81654357910156,26.58289337158203,375.84832763671875,-199.6707000732422
0,1391019,43.35762405395508,-47.421836853027344,-375.702880859375,161.07322692871094
0,1391020,-11.969001770019531,-44.14495086669922,-137.6979522705078,105.27762603759766
0,1391023,-37.499305725097656,39.92789077758789,125.20796966552734,-8.252336502075195
0,1391024,-16.844539642333984,16.404521942138672,24.71600341796875,20.99808692932129
0,1391027,34.952518463134766,13.554695129394531,58.551815032958984,-84.19729614257812
0,1391028,-11.717333793640137,29.245534896850586,104.08026123046875,-53.87434387207031
0,1391031,-39.66823196411133,-41.86910629272461,-186.48959350585938,129.45452880859375
0,1391032,53.624359130859375,-28.64116096496582,-336.34857177734375,-4.943678379058838
0,1391035,23.477386474609375,39.90381622314453,359.351318359375,-280.600341796875
0,1391036,-27.992267608642578,25.960119247436523,359.2872619628906,-36.72161865234375
0,1391039,32.169918060302734,-12.120375633239746,-362.91656494140625,266.3901062011719
0,1391040,-3.8861501216888428,3.043602705001831,-194.87852478027344,99.10096740722656
0,1391043,-90.0010757446289,-24.342504501342773,157.75506591796875,-154.06126403808594
0,1391044,-21.754770278930664,-11.422210693359375,75.31404876708984,-25.361862182617188
0,1391047,65.0732192993164,7.616310119628906,5.550877571105957,123.15280151367188
0,1391048,-4.677325248718262,-31.90595245361328,81.81852722167969,-40.470558166503906
0,1391051,-25.814590454101562,-0.1425768882036209,-182.4832000732422,-82.57115173339844
0,1391052,49.28783416748047,4.9572649002075195,-311.6178894042969,21.072105407714844
0,1391055,-6.314448833465576,16.66329574584961,398.8475646972656,81.49960327148438
0,1391056,-31.98434829711914,48.06113052368164,326.353759765625,10.81751823425293
0,1391059,42.62673568725586,-30.14666175842285,-394.3819274902344,-34.95371627807617
0,1391060,12.646953582763672,-59.76525115966797,-117.68243408203125,100.18638610839844
0,1391063,-26.931396484375,36.212501525878906,150.55596923828125,-74.78553009033203
0,1391064,32.156368255615234,84.52507019042969,45.116451263427734,-246.60740661621094
0,1391067,22.219465255737305,47.40818786621094,68.75564575195312,51.58109664916992
0,1391068,-62.089027404785156,-60.33350372314453,66.04418182373047,157.49978637695312
0,1391071,-37.43394088745117,-117.04557037353516,-215.46902465820312,78.2928695678711
0,1391072,41.91538619995117,4.759839057922363,-310.0403137207031,-12.686623573303223
0,1391075,1.183347463607788,46.948307037353516,348.5816650390625,-50.947750091552734
0,1391076,-42.44245147705078,-13.331827163696289,288.50360107421875,-4.941387176513672
0,1391079,28.19894790649414,-4.8845343589782715,-303.915283203125,-162.95999145507812
0,1391080,34.39887237548828,15.049872398376465,-130.04714965820312,27.41667366027832
0,1391083,-18.124746322631836,15.849398612976074,63.5404167175293,236.75035095214844
0,1391084,-0.2963191270828247,8.274321556091309,45.14620590209961,-2.5957911014556885
0,1391087,24.432477951049805,-4.836643218994141,121.26223754882812,-189.49803161621094
0,1391088,-24.710346221923828,-16.2324161529541,154.317626953125,-106.4293441772461
0,1391091,-3.0030009746551514,7.781259536743164,-217.6494903564453,119.54318237304688
0,1391092,51.985069274902344,25.049911499023438,-382.0655822753906,61.18022155761719
0,1391095,-38.274105072021484,22.70828628540039,360.1164855957031,-7.957787036895752
0,1391096,-59.70203399658203,10.10053539276123,371.2102966308594,14.550442695617676
0,1391099,28.097707748413086,-72.99319458007812,-353.719970703125,4.953879356384277
0,1391100,23.906150817871094,-67.308837890625,-179.39830017089844,27.725873947143555
0,1391103,-20.910938262939453,47.890071868896484,101.67340087890625,-50.63200378417969
0,1391104,-19.445491790771484,30.41914176940918,-5.614325523376465,55.82451629638672
0,1391107,16.22826385498047,-7.172820091247559,93.0704574584961,126.18994903564453
0,1391108,11.156147003173828,26.055418014526367,231.99240112304688,-115.75362396240234
0,1391111,11.009418487548828,7.0979533195495605,-206.3396759033203,-180.6599578857422
0,1391112,54.3834228515625,-15.725604057312012,-433.13592529296875,46.51329040527344
0,1391115,-25.664888381958008,-8.048091888427734,386.59869384765625,65.2803955078125
0,1391116,-105.6935806274414,15.469362258911133,362.28704833984375,-98.6328353881836
0,1391119,19.240184783935547,19.529924392700195,-365.6754455566406,35.903778076171875
0,1391120,91.34891510009766,-7.120607852935791,-153.54335021972656,168.47999572753906
0,1391123,-24.10960578918457,-14.91025161743164,68.11865234375,-52.30286407470703
0,1391124,-30.90675926208496,-8.77175521850586,33.50126647949219,-206.74996948242188
0,1391127,20.85035514831543,-16.652118682861328,120.72169494628906,70.00365447998047
0,1391128,-11.69013786315918,-1.1309696435928345,108.95928192138672,210.56704711914062
0,1391131,12.807844161987305,14.251340866088867,-217.72618103027344,-36.346858978271484
0,1391132,29.897262573242188,-0.14009596407413483,-290.84661865234375,-81.71282196044922
0,1391135,-0.8471342325210571,15.650654792785645,386.2994079589844,-2.687312602996826
0,1391136,-29.388813018798828,19.87508201599121,294.2739562988281,7.905759811401367
0,1391139,3.580500602722168,-31.426040649414062,-363.11578369140625,-34.1961784362793
0,1391140,21.110925674438477,-22.754535675048828,-166.63540649414062,-13.76039981842041
0,1391143,-35.475032806396484,20.37848663330078,73.38442993164062,122.41801452636719
0,1391144,-8.721539497375488,-15.32275390625,41.69406509399414,-18.69741439819336
0,1391147,6.988368988037109,-21.38389778137207,139.2086181640625,-104.78085327148438
0,1391148,-17.635568618774414,20.206279754638672,155.53746032714844,110.12371063232422
0,1391151,21.379684448242188,23.550724029541016,-229.29891967773438,40.463539123535156
0,1391152,19.61244773864746,-1.3206554651260376,-320.95147705078125,-194.10049438476562
0,1391155,1.5618535280227661,36.6159782409668,421.4093017578125,-56.413734436035156
0,1391156,7.574763298034668,31.732927322387695,308.084228515625,139.72776794433594
0,1391159,-18.791210174560547,-72.61112213134766,-459.32733154296875,76.98329162597656
0,1391160,-9.718650817871094,-29.10284423828125,-127.97119903564453,-35.36925506591797
0,1391163,9.734519004821777,29.38166046142578,141.37088012695312,-100.65792083740234
0,1391164,-11.74699878692627,-11.863526344299316,-72.62862396240234,70.50576782226562
0,1391167,-10.115869522094727,1.4366403818130493,117.401123046875,57.2761116027832
0,1391169,5.007481575012207,10.89962387084961,189.56666564941406,-182.9933624267578
0,1391173,-16.95701026916504,5.979650020599365,20.751245498657227,-18.076688766479492
0,1391173,-10.68950366973877,-8.755155563354492,-174.4801788330078,150.77357482910156
0,1391175,28.569721221923828,-9.4716215133667,-115.49577331542969,65.91803741455078
0,1391177,21.149656295776367,9.563098907470703,146.58230590820312,-59.36502456665039
0,1391179,1.2814825773239136,-10.862382888793945,-42.68152618408203,-131.4668426513672
0,1391181,-7.509920120239258,3.0996253490448,-160.49928283691406,13.826668739318848
0,1391183,2.4545960426330566,39.88797378540039,75.19017791748047,82.51220703125
0,1391185,41.734432220458984,-6.879659652709961,-36.37133026123047,36.79106521606445
0,1391187,-13.057044982910156,-21.311656951904297,-0.08615788072347641,12.962231636047363
0,1391189,-74.39934539794922,-3.2091243267059326,151.794677734375,4.567681312561035
0,1391191,24.062063217163086,-31.049758911132812,-205.2869110107422,100.19957733154297
0,1391193,47.60926818847656,8.798999786376953,-26.711458206176758,-85.05811309814453
0,1391195,-45.012935638427734,26.062782287597656,300.25933837890625,-252.67709350585938
0,1391197,-21.630064010620117,4.277519702911377,22.301361083984375,101.82952880859375
0,1391199,44.6192626953125,-0.018505914136767387,-103.21693420410156,214.22865295410156
0,1391201,-9.888898849487305,-10.010721206665039,-96.35896301269531,-59.77499008178711
0,1391203,-17.754404067993164,15.397748947143555,35.67605209350586,-40.64163589477539
0,1391205,65.89549255371094,-2.6604762077331543,-37.217098236083984,-39.17289733886719
0,1391207,-26.30486488342285,-14.84060287475586,-5.229457378387451,-94.96025085449219
0,1391209,-78.77333068847656,8.670159339904785,224.45892333984375,106.99362182617188
0,1391211,48.281593322753906,-20.929903030395508,-224.1696319580078,104.21180725097656
0,1391213,42.204063415527344,16.9628849029541,-128.23477172851562,-68.8118667602539
0,1391215,-22.771615982055664,40.86864471435547,324.4468078613281,-26.027393341064453
0,1391217,-17.450958251953125,-32.39448547363281,22.57813262939453,14.281776428222656
0,1391219,-1.369649052619934,-52.6004524230957,-182.81546020507812,-71.91351318359375
0,1391221,-2.2143654823303223,-5.779277324676514,-75.82795715332031,46.62165832519531
0,1391223,9.178401947021484,78.85474395751953,133.96490478515625,103.6628646850586
0,1391225,18.865720748901367,26.77581024169922,-61.3851432800293,-150.8597412109375
0,1391227,-33.61953353881836,-72.95166015625,-64.66978454589844,-92.32876586914062
0,1391229,-11.141972541809082,-18.082834243774414,208.3074951171875,224.95225524902344
0,1391231,55.73963928222656,5.725200653076172,-230.88995361328125,106.00129699707031
0,1391233,8.921534538269043,33.644309997558594,-73.03107452392578,-181.60623168945312
0,1391235,-46.842708587646484,33.83451843261719,342.7991638183594,-171.51815795898438
0,1391237,-37.362548828125,-18.579687118530273,-1.9886915683746338,-65.17855072021484
0,1391239,23.212167739868164,14.825569152832031,-169.47750854492188,69.98793029785156
0,1391241,46.412376403808594,-18.677749633789062,-78.96969604492188,309.7892150878906
0,1391243,-8.770442008972168,-38.181846618652344,73.85091400146484,213.81362915039062
0,1391245,-9.36388874053955,6.848563194274902,-2.695159673690796,-149.91363525390625
0,1391247,9.196881294250488,13.252140998840332,44.13832473754883,-128.15354919433594
0,1391249,-13.040022850036621,15.07706069946289,138.5365447998047,-227.84812927246094
0,1391251,1.5041894912719727,-29.780847549438477,-296.77459716796875,-147.70851135253906
0,1391253,31.67217445373535,-6.446501731872559,-46.99506759643555,262.2917785644531
0,1391255,-15.332273483276367,35.56151580810547,341.72760009765625,72.12599182128906
0,1391257,-37.50362777709961,2.5648303031921387,-6.819241523742676,-29.418790817260742
0,1391259,8.805994987487793,-11.856738090515137,-161.2098846435547,83.46369171142578
0,1391261,-10.310470581054688,-29.535751342773438,-107.79556274414062,-74.39864349365234
0,1391263,-7.796658992767334,-21.469715118408203,70.21990966796875,-67.98548889160156
0,1391265,47.555843353271484,21.062271118164062,17.265188217163086,-54.607120513916016
0,1391267,-8.02143383026123,47.688629150390625,52.65855026245117,-13.284645080566406
0,1391269,-51.29146957397461,9.38377571105957,158.39820861816406,181.21498107910156
0,1391271,34.95480728149414,-26.84332275390625,-298.3017578125,70.36141967773438
0,1391273,24.473859786987305,1.2230037450790405,-58.50049591064453,-81.04179382324219
0,1391275,-35.74466323852539,-8.591161727905273,283.3739013671875,-22.833620071411133
0,1391277,-1.529336929321289,-12.693710327148438,-33.05672836303711,-68.48146057128906
0,1391279,29.96849822998047,22.938417434692383,-55.45407485961914,-17.789323806762695
0,1391281,18.60120964050293,56.35967254638672,-61.29032516479492,116.08965301513672
0,1391283,-25.29871940612793,41.91106414794922,34.19620895385742,-65.01293182373047
0,1391285,-20.323284149169922,-82.93444061279297,-12.869367599487305,-152.71551513671875
0,1391287,1.4468351602554321,-129.35513305664062,-22.270936965942383,7.202303886413574
0,1391289,15.883146286010742,50.43096160888672,173.20013427734375,147.60435485839844
0,1391291,18.712844848632812,103.82435607910156,-197.6205291748047,164.39202880859375
0,1391293,-25.339933395385742,-48.968685150146484,-95.9476089477539,-97.51888275146484
0,1391295,-22.231046676635742,-23.230037689208984,253.10728454589844,-121.63652038574219
0,1391297,9.449848175048828,52.391841888427734,3.738138437271118,71.7964859008789
0,1391299,34.30592727661133,-23.447845458984375,-117.37666320800781,16.97417449951172
0,1391301,8.23935604095459,-38.75517272949219,-51.671043395996094,18.506364822387695
0,1391303,-33.50309371948242,35.343605041503906,83.72211456298828,-0.2432786077260971
0,1391305,19.263690948486328,21.17511558532715,-36.42024612426758,-114.49653625488281
0,1391307,4.542800426483154,-1.0653924942016602,30.695024490356445,-42.47304153442383
0,1391309,-36.97521209716797,11.363003730773926,187.17233276367188,71.89596557617188
0,1391311,30.0184268951416,-13.637651443481445,-291.7981262207031,87.39434814453125
0,1391313,-10.647645950317383,-29.8890438079834,-91.78487396240234,16.867630004882812
0,1391315,-38.8560676574707,-16.578857421875,321.3591003417969,-58.41230010986328
0,1391317,41.607486724853516,4.593807697296143,-17.83843421936035,-20.321378707885742
0,1391319,31.923538208007812,19.54007339477539,-163.40939331054688,-22.311635971069336
0,1391321,-37.64497375488281,12.612375259399414,-37.013710021972656,-18.254636764526367
0,1391323,-12.725281715393066,-9.449348449707031,117.69652557373047,47.35237503051758
0,1391325,42.653106689453125,5.330892086029053,-31.209604263305664,-19.0273494720459
0,1391327,-32.14996337890625,2.5480029582977295,-6.17381477355957,-90.76738739013672
0,1391329,-35.55293655395508,-2.182849168777466,173.2237091064453,62.00886535644531
0,1391331,29.977699279785156,-25.810543060302734,-286.2463684082031,194.034423828125
0,1391333,35.51209259033203,7.683344841003418,-63.46281051635742,21.498058319091797
0,1391335,4.823458671569824,63.729610443115234,382.1878662109375,-94.54654693603516
0,1391337,-33.271793365478516,-41.83012008666992,-75.2273941040039,-131.67295837402344
0,1391339,24.883169174194336,-33.22380065917969,-194.50767517089844,-124.4112777709961
0,1391341,6.361718654632568,37.24774169921875,-29.69852638244629,73.05204010009766
0,1391343,-64.311279296875,-27.927228927612305,69.32823181152344,123.06298065185547
0,1391345,32.80036163330078,1.4105180501937866,60.579952239990234,120.75437927246094
0,1391347,68.07965087890625,68.3892593383789,38.502723693847656,55.35403823852539
0,1391349,-57.47687911987305,-35.90700149536133,35.38091278076172,-84.11651611328125
0,1391351,-35.75408935546875,-67.99214935302734,-267.6708068847656,-181.08668518066406
0,1391353,45.05543518066406,66.46446990966797,49.11431884765625,-208.92489624023438
0,1391355,-40.04022979736328,4.728001117706299,309.8509521484375,109.76744842529297
0,1391357,-20.95123291015625,-64.59165954589844,-104.22293090820312,280.3392028808594
0,1391359,57.801170349121094,41.47296142578125,-138.02151489257812,50.08363342285156
0,1391361,-2.898291826248169,4.014580249786377,-38.15523147583008,-45.67724609375
0,1391363,-34.08115768432617,-36.98857498168945,31.210145950317383,-54.4004020690918
0,1391365,40.05821228027344,28.254749298095703,-6.107827186584473,-160.41143798828125
0,1391367,50.34288024902344,40.67007064819336,99.01155853271484,-79.8566665649414
0,1391369,-61.221336364746094,-26.315732955932617,110.77879333496094,99.59284973144531
0,1391371,-51.60639572143555,-32.342437744140625,-304.4529113769531,113.69298553466797
0,1391374,16.159656524658203,46.325496673583984,89.14546966552734,49.166080474853516
0,1391375,30.31426239013672,8.594215393066406,330.97711181640625,-16.42782211303711
0,1391376,31.616601943969727,-38.29330062866211,-229.7008514404297,-26.20851707458496
0,1391379,-14.598139762878418,-32.32649612426758,-178.11508178710938,46.91947555541992
0,1391380,-19.086315155029297,27.973430633544922,128.97622680664062,30.674850463867188
0,1391384,-0.6162552237510681,35.512725830078125,-67.99852752685547,-134.7803497314453
0,1391385,-2.4072177410125732,-38.25825500488281,-79.17056274414062,-87.68049621582031
0,1391387,11.547245025634766,23.364023208618164,335.5980529785156,57.6984748840332
0,1391389,0.062160369008779526,-1.004642367362976,57.272377014160156,61.728179931640625
0,1391391,-5.940147399902344,-45.614959716796875,-425.7043151855469,33.49068069458008
0,1391393,-0.6340737342834473,41.774173736572266,50.479591369628906,-28.948850631713867
0,1391395,-30.302494049072266,10.555113792419434,332.6602783203125,-9.476761817932129
0,1391397,32.37535095214844,-3.734376907348633,-48.13825225830078,-2.324363946914673
0,1391399,41.9755973815918,-3.929929494857788,-163.5669708251953,-35.26520919799805
0,1391401,-53.47591781616211,-32.658992767333984,-22.710790634155273,42.1230354309082
0,1391403,-12.162878036499023,48.10538864135742,119.12884521484375,14.183511734008789
0,1391405,25.13576889038086,6.793184280395508,-68.1448974609375,-101.72367095947266
0,1391407,-22.3992977142334,-27.511972427368164,-17.999420166015625,-28.387985229492188
0,1391409,11.75149154663086,20.683551788330078,148.9081573486328,127.33098602294922
0,1391411,43.954803466796875,-31.61038589477539,-297.12066650390625,54.59769821166992
0,1391413,-17.943798065185547,-12.666176795959473,-20.389738082885742,-43.44152069091797
0,1391415,-19.920177459716797,32.76394271850586,346.5041198730469,12.503886222839355
0,1391417,16.045806884765625,-7.939530372619629,-84.74546813964844,-94.13792419433594
0,1391419,-1.46782386302948,-21.42276382446289,-131.34063720703125,-68.35072326660156
0,1391421,-40.94035339355469,1.3495142459869385,-0.5146841406822205,202.2235107421875
0,1391423,-10.70725154876709,12.280495643615723,64.93500518798828,53.074371337890625
0,1391425,49.3554573059082,23.20882225036621,-29.261131286621094,-203.68418884277344
0,1391427,-2.0670318603515625,-4.877195358276367,41.67416000366211,51.94470977783203
0,1391429,-17.90546417236328,-34.59065628051758,135.90914916992188,141.1147918701172
0,1391431,22.928272247314453,-12.007805824279785,-319.61279296875,-83.03556060791016
0,1391433,11.407833099365234,47.120296478271484,-3.0923221111297607,-197.92152404785156
0,1391435,-13.743983268737793,46.93921661376953,358.8476257324219,3.8680527210235596
0,1391437,-20.588287353515625,-59.51757049560547,-89.90630340576172,356.6879577636719
0,1391439,26.750186920166016,-47.88939666748047,-166.2925567626953,9.124096870422363
0,1391441,-1.8129029273986816,56.743003845214844,-12.732738494873047,-408.79962158203125
0,1391443,-33.95436477661133,26.988101959228516,92.03654479980469,-78.7769546508789
0,1391445,35.22413635253906,-36.632835388183594,-13.849068641662598,275.4015197753906
0,1391447,-2.0354726314544678,4.215538024902344,21.23109245300293,168.43258666992188
0,1391449,-35.1102294921875,-15.83621597290039,85.5152587890625,-81.23590850830078
0,1391451,33.5071907043457,-26.108205795288086,-265.7391052246094,-111.57714080810547
0,1391453,-11.895200729370117,45.52891540527344,31.491132736206055,-73.20935821533203
0,1391455,-57.29737854003906,3.732377529144287,298.9560241699219,-6.2703657150268555
0,1391457,35.64779281616211,-17.924509048461914,-119.70802307128906,71.00312805175781
0,1391459,43.06739807128906,1.4553167819976807,-167.0066375732422,40.38368225097656
0,1391461,-26.087305068969727,-1.1832776069641113,44.03978729248047,53.57691192626953
0,1391463,-24.609909057617188,-1.2493438720703125,111.62318420410156,-28.049577713012695
0,1391465,39.584075927734375,-8.730341911315918,-55.36360168457031,-58.821693420410156
0,1391467,39.92074203491211,43.93657684326172,53.06664276123047,13.425024032592773
0,1391469,-58.741241455078125,-1.273294448852539,111.99440002441406,-61.95555114746094
0,1391471,-48.385223388671875,-71.72698211669922,-330.82452392578125,32.356956481933594
0,1391473,75.04566192626953,64.9140853881836,33.46290969848633,145.370361328125
0,1391475,51.58710479736328,52.63871383666992,357.4164123535156,-37.4831428527832
0,1391477,-57.37068557739258,-106.76931762695312,-129.4016876220703,-69.14620971679688
0,1391479,-20.54574203491211,-20.939287185668945,-185.82272338867188,29.65114974975586
0,1391481,-9.162705421447754,71.29660034179688,21.270036697387695,-38.917945861816406
0,1391483,-39.41200637817383,-9.278962135314941,93.63542938232422,-9.416261672973633
0,1391485,38.12770462036133,-32.5274658203125,-44.399845123291016,57.39128494262695
0,1391487,49.99364471435547,29.4657039642334,80.06520080566406,-18.438566207885742
0,1391489,-11.627220153808594,6.647528648376465,130.43141174316406,-36.13890075683594
0,1391491,-6.051784038543701,-50.043704986572266,-364.7124938964844,-9.164198875427246
0,1391493,1.419564962387085,36.53901672363281,24.021377563476562,14.551069259643555
0,1391495,-20.49944305419922,45.51119613647461,385.0285949707031,97.6894760131836
0,1391497,-8.1251220703125,-41.760520935058594,-111.40535736083984,-37.09848403930664
0,1391499,25.121627807617188,-7.6883864402771,-199.45913696289062,-153.22093200683594
0,1391501,-13.843154907226562,-17.898344039916992,-13.15152645111084,19.482379913330078
0,1391503,-35.01457214355469,-9.680928230285645,100.72997283935547,67.58757781982422
0,1391505,36.8244743347168,57.47700500488281,-1.8096364736557007,67.03421020507812
0,1391507,38.608497619628906,29.223270416259766,69.56255340576172,38.63003158569336
0,1391509,-22.984424591064453,-24.523727416992188,91.92597961425781,-73.99657440185547
0,1391511,-26.43390464782715,-74.40447235107422,-327.6625061035156,-21.7696475982666
0,1391513,-10.295080184936523,1.6671600341796875,39.45111846923828,-21.406583786010742
0,1391515,16.053564071655273,83.36595916748047,348.3537292480469,-30.32390594482422
0,1391517,8.179447174072266,-23.02582359313965,-131.0740509033203,72.02623748779297
0,1391519,-24.960826873779297,-21.805286407470703,-198.43414306640625,24.035202026367188
0,1391521,38.39615249633789,30.346534729003906,25.491186141967773,-48.627323150634766
0,1391523,23.43410301208496,-19.881929397583008,139.74990844726562,-24.966176986694336
0,1391525,-32.19584274291992,-22.94107437133789,-89.70166778564453,77.45372772216797
0,1391527,-18.1583309173584,0.09364964067935944,9.732635498046875,54.49079513549805
0,1391529,-19.029863357543945,7.353000164031982,152.17562866210938,-77.68445587158203
0,1391531,10.508428573608398,-0.19657458364963531,-336.4342041015625,12.299238204956055
0,1391533,2.7161288261413574,0.5361828207969666,48.48415756225586,-105.31952667236328
0,1391535,2.626218557357788,23.023483276367188,398.9989013671875,-123.18712615966797
0,1391537,38.10760498046875,18.06517219543457,-127.50511169433594,187.1356201171875
0,1391539,20.813373565673828,-6.812591075897217,-183.85531616210938,11.095650672912598
0,1391541,-41.529937744140625,-21.771772384643555,-7.258203983306885,28.084285736083984
0,1391543,-42.197731018066406,-12.224114418029785,77.5940170288086,172.69512939453125
0,1391545,52.67936706542969,21.259817123413086,-14.59142780303955,-181.56454467773438
0,1391547,25.49793243408203,15.08984375,77.4173812866211,-186.8399200439453
0,1391549,-64.08009338378906,-34.960975646972656,124.36823272705078,77.5618896484375
0,1391551,-12.523871421813965,-51.4526252746582,-335.0029296875,141.57398986816406
0,1391553,37.88935089111328,34.37308120727539,-0.36195990443229675,11.530665397644043
0,1391555,-11.415246963500977,68.43167877197266,328.4161682128906,-95.2683334350586
0,1391557,-0.16898906230926514,-41.04689407348633,-93.29570770263672,9.214385986328125
0,1391559,25.702486038208008,-32.488319396972656,-173.15574645996094,33.12099075317383
0,1391561,-9.09509563446045,14.590691566467285,-20.50081443786621,16.670974731445312
0,1391563,34.47898864746094,1.8634158372879028,113.32391357421875,-50.5386848449707
0,1391565,7.346616744995117,42.48684310913086,-9.054070472717285,-70.27193450927734
0,1391567,-85.60620880126953,9.590719223022461,57.41954803466797,62.65463638305664
0,1391569,-35.63112258911133,-46.82771301269531,104.86321258544922,105.56890106201172
0,1391571,32.17913055419922,-15.169726371765137,-333.5336608886719,29.859840393066406
0,1391573,56.1402473449707,37.95762252807617,25.376962661743164,-101.6528091430664
0,1391575,29.828834533691406,24.94939422607422,373.3343505859375,-17.60334587097168
0,1391577,-31.33479118347168,-53.46334457397461,-133.36434936523438,90.04521942138672
0,1391579,-5.612570762634277,-27.946699142456055,-211.40118408203125,6.207518100738525
0,1391581,-14.98757266998291,38.75163650512695,21.737316131591797,-106.7508544921875
0,1391583,-37.96726608276367,-11.0233736038208,92.21221923828125,-42.1671142578125
0,1391585,70.481689453125,24.429588317871094,13.220845222473145,66.25189971923828
0,1391587,53.55846405029297,65.33284759521484,103.275146484375,-116.43091583251953
0,1391589,-61.982521057128906,-52.451934814453125,18.693349838256836,-1.6403065919876099
0,1391591,-14.759076118469238,-68.6260986328125,-340.96795654296875,233.29714965820312
0,1391593,8.99339771270752,51.42194366455078,159.6355438232422,59.12146759033203
0,1391595,-23.038972854614258,37.26655197143555,349.9129943847656,-63.147499084472656
0,1391597,1.7450053691864014,-37.90967559814453,-202.82066345214844,-233.19680786132812
0,1391599,-5.016429424285889,-13.329781532287598,-225.95504760742188,-143.8795166015625
0,1391602,-9.075353622436523,3.932295083999634,-2.72760009765625,325.3949890136719
0,1391603,16.230998992919922,-15.925119400024414,122.98771667480469,198.87742614746094
0,1391604,10.55070972442627,-35.64792251586914,60.84331512451172,-146.5618438720703
0,1391609,-17.672443389892578,25.347721099853516,-38.61531066894531,-181.8325958251953
0,1391609,3.0534067153930664,64.64524841308594,28.114595413208008,-78.39106750488281
0,1391610,26.44907569885254,-18.97972297668457,-105.5588607788086,98.60094451904297
0,1391613,-11.026449203491211,-11.364861488342285,-74.26673126220703,-60.972164154052734
0,1391614,2.295738697052002,27.231874465942383,196.4005584716797,-68.50179290771484
0,1391617,14.052188873291016,-18.87448501586914,46.79848861694336,315.4530029296875
0,1391618,-24.21505355834961,-20.332534790039062,-91.45169067382812,184.55860900878906
0,1391621,7.009148120880127,-12.351689338684082,-33.49042892456055,-384.2923278808594
0,1391622,-0.09420338273048401,22.29244041442871,97.09778594970703,-224.18743896484375
0,1391625,-1.6774165630340576,31.751659393310547,0.4931934177875519,404.0320129394531
0,1391626,-1.2919809818267822,-42.706825256347656,-36.951622009277344,189.0640106201172
0,1391629,-38.34037399291992,-14.091054916381836,105.26940155029297,-322.8530578613281
0,1391630,30.454696655273438,17.246992111206055,-267.00018310546875,-114.01536560058594
0,1391633,39.6242790222168,-1.0590397119522095,-98.7784652709961,124.17216491699219
0,1391634,-18.262306213378906,3.428415060043335,286.67822265625,-11.793625831604004
0,1391637,-9.541234970092773,-13.397106170654297,4.311445236206055,-57.129207611083984
0,1391638,16.545568466186523,23.681854248046875,-92.07132720947266,-24.246015548706055
0,1391641,-28.0983943939209,26.70596694946289,-14.208902359008789,124.984130859375
0,1391642,-46.28525924682617,-32.63481521606445,86.98503875732422,20.647357940673828
0,1391645,53.36057662963867,-16.712146759033203,-15.107568740844727,-126.48018646240234
0,1391646,39.331016540527344,35.55575942993164,3.4850587844848633,44.621578216552734
0,1391649,-48.3975715637207,-13.162932395935059,109.86750030517578,73.29731750488281
0,1391650,-7.670219898223877,-22.957422256469727,-284.1381530761719,5.660676956176758
0,1391653,26.664216995239258,22.80903434753418,-62.53559494018555,-1.2416621446609497
0,1391654,-18.087623596191406,1.5902512073516846,305.7580261230469,74.27570343017578
0,1391657,-21.614994049072266,-1.9193933010101318,-15.990767478942871,-47.87819290161133
0,1391658,37.21943664550781,-18.042755126953125,-125.53101348876953,-109.57902526855469
0,1391661,11.576882362365723,-12.288460731506348,-35.79729461669922,59.24625778198242
0,1391662,-30.16855239868164,16.74977684020996,83.79267883300781,23.451377868652344
0,1391665,13.221109390258789,18.97577667236328,-0.289614737033844,-123.97434997558594
0,1391666,11.383216857910156,6.502142429351807,22.547664642333984,-75.20567321777344
0,1391669,0.34976306557655334,-12.247044563293457,129.41802978515625,168.7683563232422
0,1391670,23.57195281982422,-6.333293437957764,-255.36563110351562,106.94194793701172
0,1391673,-7.870302677154541,8.76287841796875,-55.711936950683594,-117.3968505859375
0,1391674,-53.40897750854492,-6.296511173248291,264.4683532714844,-28.39731788635254
0,1391677,-7.6355791091918945,-20.896814346313477,-36.626731872558594,31.491788864135742
0,1391678,52.04218292236328,9.976566314697266,-113.75293731689453,-15.678990364074707
0,1391681,-8.00582218170166,2.925732135772705,-52.290321350097656,-2.0202126502990723
0,1391682,-33.878414154052734,-3.710526466369629,82.31868743896484,15.157552719116211
0,1391685,39.86091232299805,21.39267921447754,14.223536491394043,-3.6024630069732666
0,1391686,1.690466284751892,1.624752163887024,16.380022048950195,-35.72703552246094
0,1391689,-53.222171783447266,-19.020652770996094,130.25584411621094,110.31417846679688
0,1391690,9.198636054992676,-9.567704200744629,-273.2703552246094,109.72183227539062
0,1391693,42.2111701965332,20.94441032409668,-73.38664245605469,-104.79566192626953
0,1391694,-13.237025260925293,-5.463262557983398,286.6613464355469,-124.62590026855469
0,1391697,-28.825042724609375,-34.37607955932617,-25.24989891052246,-69.65553283691406
0,1391698,26.08092498779297,28.62830924987793,-86.19331359863281,-1.1321483850479126
0,1391701,0.4248845875263214,42.97498321533203,-8.527480125427246,139.89927673339844
0,1391702,-26.074905395507812,-26.131982803344727,50.13547897338867,84.81903839111328
0,1391705,41.65930938720703,-41.985294342041016,-35.17169189453125,-107.42025756835938
0,1391706,12.298816680908203,21.405515670776367,23.25703239440918,-66.3929443359375
0,1391709,-44.90938949584961,27.484580993652344,141.8065185546875,11.286291122436523
0,1391710,15.399652481079102,-11.051885604858398,-247.7124786376953,-24.413114547729492
0,1391713,34.501888275146484,-15.369898796081543,-59.95777130126953,33.81816864013672
0,1391714,-10.215421676635742,-7.159945964813232,281.3309631347656,167.02392578125
0,1391717,-19.90444564819336,11.214144706726074,-31.31965446472168,110.81353759765625
0,1391718,-16.739866256713867,23.86369514465332,-144.74061584472656,-116.7932357788086
0,1391721,-16.441875457763672,3.253218412399292,-37.98653793334961,-234.47622680664062
0,1391722,9.5924711227417,-18.67966651916504,82.604248046875,-39.87434387207031
0,1391725,23.416595458984375,-4.231481075286865,-19.143978118896484,131.3253173828125
0,1391726,17.239604949951172,-1.0813231468200684,35.573123931884766,-12.857866287231445
0,1391729,-4.277333736419678,13.021693229675293,129.88706970214844,35.48983383178711
0,1391730,-38.559810638427734,-18.326709747314453,-298.0524597167969,145.393310546875
0,1391733,2.1028153896331787,-0.48706454038619995,-6.918365955352783,-117.96113586425781
0,1391734,40.24687576293945,59.32942199707031,349.9221496582031,-181.0916748046875
0,1391737,-12.820636749267578,-39.796165466308594,-89.2396240234375,72.05838012695312
0,1391738,-12.988471984863281,-59.77159118652344,-161.77650451660156,107.85909271240234
0,1391741,24.40432357788086,45.173580169677734,0.31178829073905945,109.63429260253906
0,1391742,-35.837833404541016,11.507573127746582,65.25015258789062,49.085933685302734
0,1391745,-11.82793140411377,-32.45560073852539,-25.86146354675293,-123.10091400146484
0,1391746,45.679561614990234,48.79826736450195,39.650814056396484,-92.76380920410156
0,1391749,-18.392704010009766,14.55280590057373,122.45659637451172,-26.232877731323242
0,1391750,2.252610683441162,-65.2947998046875,-257.4935607910156,2.7667388916015625
0,1391753,14.362353324890137,-4.78633975982666,-25.771732330322266,61.37147903442383
0,1391754,-33.5511360168457,31.605777740478516,306.68359375,44.62801742553711
0,1391757,-15.4994535446167,-15.133928298950195,-60.512481689453125,-77.63158416748047
0,1391758,13.423388481140137,-11.838133811950684,-177.2007598876953,-108.45060729980469
0,1391761,27.822702407836914,38.13848114013672,14.286147117614746,122.09721374511719
0,1391762,4.953801155090332,26.675167083740234,98.58577728271484,131.6458282470703
0,1391765,-2.366089105606079,-37.77793502807617,-83.97457885742188,-97.44638061523438
0,1391766,-5.019974231719971,-27.73138427734375,25.460302352905273,-10.052337646484375
0,1391769,-5.045189380645752,7.766973495483398,157.6117706298828,93.81634521484375
0,1391770,13.15878963470459,-17.20802116394043,-274.6083068847656,-25.56380271911621
0,1391773,-22.128692626953125,17.540464401245117,0.9938187599182129,-138.23597717285156
0,1391774,-2.7794923782348633,42.07257843017578,332.81329345703125,-25.10615348815918
0,1391777,40.874420166015625,-3.5729894638061523,-98.572998046875,64.14727020263672
0,1391778,-4.5574188232421875,-6.433969020843506,-170.76393127441406,2.3282673358917236
0,1391781,-24.714845657348633,2.949611186981201,-9.87199878692627,63.310462951660156
0,1391782,6.56001091003418,1.0865278244018555,110.0743408203125,-32.76877975463867
0,1391785,12.869319915771484,-0.9390062093734741,-1.8160072565078735,-107.02861785888672
0,1391786,-21.34686851501465,-15.248817443847656,7.230563640594482,12.215163230895996
0,1391789,-52.27111053466797,-16.752573013305664,71.21773529052734,131.93145751953125
0,1391790,12.390559196472168,3.540515661239624,-274.9400939941406,168.2159423828125
0,1391793,56.92687225341797,16.51788330078125,58.071556091308594,-123.06883239746094
0,1391794,-5.425397872924805,-9.009912490844727,326.271240234375,-226.9295196533203
0,1391797,1.489382028579712,0.1976408213376999,-108.32862091064453,76.1484146118164
0,1391798,19.20217514038086,20.30042266845703,-162.73243713378906,139.6427459716797
0,1391801,-25.377328872680664,-17.860492706298828,-25.956499099731445,-6.407790660858154
0,1391802,-12.052567481994629,-28.890295028686523,59.972816467285156,-42.74043273925781
0,1391805,24.636516571044922,17.634037017822266,-2.720479965209961,-85.00487518310547
0,1391806,-7.12056827545166,30.293405532836914,92.44386291503906,-36.626827239990234
0,1391809,-22.08565330505371,-19.039104461669922,42.43178176879883,57.479915618896484
0,1391810,6.45042085647583,-14.665587425231934,-319.27691650390625,7.24821138381958
0,1391813,1.7162119150161743,33.61043930053711,162.53561401367188,29.538026809692383
0,1391814,-6.614791393280029,12.88547420501709,337.7256774902344,41.582481384277344
0,1391817,4.8356852531433105,-34.421600341796875,-206.77980041503906,-15.243379592895508
0,1391818,0.6431074738502502,-38.307186126708984,-214.08082580566406,12.961803436279297
0,1391821,-16.06157112121582,24.51861572265625,-2.3854849338531494,16.617786407470703
0,1391823,2.121727228164673,19.763410568237305,68.65568542480469,19.572675704956055
0,1391825,26.355789184570312,-6.053773403167725,5.638637542724609,-102.00131225585938
0,1391827,2.9193828105926514,21.563892364501953,177.81321716308594,-103.7982406616211
0,1391829,-16.82926368713379,-18.00138282775879,38.341827392578125,109.06192779541016
0,1391831,4.4090142250061035,-23.200197219848633,-379.56573486328125,46.719703674316406
0,1391833,14.88454532623291,9.755067825317383,176.2970733642578,-53.721920013427734
0,1391835,-11.99167537689209,43.290733337402344,379.4424133300781,-1.1692744493484497
0,1391837,7.327653884887695,-1.3615800142288208,-234.60118103027344,20.387428283691406
0,1391839,31.59708595275879,-50.7806282043457,-266.4609680175781,-1.3762117624282837
0,1391841,-41.610931396484375,-14.137547492980957,8.884747505187988,14.664149284362793
0,1391845,-17.110048294067383,13.751373291015625,-52.638580322265625,3.1638336181640625
0,1391845,46.42022705078125,42.04207229614258,49.132991790771484,-49.09257888793945
0,1391846,-13.480334281921387,-0.7919776439666748,437.2056884765625,-32.705665588378906
0,1391849,-32.61245346069336,-37.011993408203125,-27.961441040039062,161.07138061523438
0,1391850,5.051047325134277,-17.799152374267578,-489.3006896972656,228.70030212402344
0,1391853,4.992762565612793,22.601043701171875,153.2977294921875,-266.85906982421875
0,1391854,-14.712234497070312,49.84129333496094,318.3684997558594,-305.26629638671875
0,1391857,24.736572265625,-16.782190322875977,-147.61813354492188,121.57006072998047
0,1391858,29.788772583007812,-48.17060852050781,-132.1938018798828,55.15798568725586
0,1391861,-58.512413024902344,31.69331932067871,51.20420837402344,199.53269958496094
0,1391862,-30.064327239990234,32.10552978515625,76.34612274169922,118.3747329711914
0,1391865,65.01939392089844,-43.870033264160156,-63.411720275878906,-281.0128479003906
0,1391866,18.106494903564453,-2.626039743423462,55.06822204589844,-93.01338195800781
0,1391869,-29.798994064331055,16.80699920654297,63.32977294921875,41.298423767089844
0,1391870,-1.1290395259857178,-32.49665451049805,-353.13934326171875,53.938148498535156
0,1391873,-2.2867038249969482,26.644197463989258,42.19345474243164,114.23540496826172
0,1391874,6.596931457519531,40.18543243408203,365.5738525390625,46.36442184448242
0,1391877,19.716691970825195,-40.029197692871094,-88.94196319580078,-82.07064056396484
0,1391878,-6.2740068435668945,-20.281211853027344,-166.83766174316406,-136.37893676757812
0,1391881,-24.874727249145508,15.220953941345215,18.04551887512207,43.29458999633789
0,1391882,-6.067807674407959,2.3029818534851074,80.81458282470703,83.35414123535156
0,1391885,46.609432220458984,17.60004425048828,-44.347965240478516,12.884899139404297
0,1391886,5.226325511932373,20.208965301513672,88.97215270996094,-2.1975362300872803
0,1391889,-40.682735443115234,-31.34488868713379,67.00357055664062,-55.19951248168945
0,1391890,25.328189849853516,-10.182584762573242,-339.47900390625,-37.48185729980469
0,1391893,-23.68037223815918,17.66783332824707,51.0953254699707,43.31247329711914
0,1391894,-33.840267181396484,-25.780113220214844,306.89752197265625,42.095069885253906
0,1391897,49.768436431884766,-3.427314043045044,-91.65023040771484,-40.0048942565918
0,1391898,6.5362229347229,10.922171592712402,-118.08929443359375,-17.404842376708984
0,1391901,-51.51469421386719,0.11274097859859467,0.7777169942855835,20.194910049438477
0,1391902,-9.838130950927734,0.14890345931053162,64.00582122802734,17.650291442871094
0,1391905,64.6263198852539,-6.173417091369629,-23.336091995239258,-37.51665115356445
0,1391906,12.018171310424805,4.254831790924072,55.31496047973633,-85.7042465209961
0,1391909,-39.98912811279297,15.641688346862793,84.74760437011719,119.28002166748047
0,1391910,14.546747207641602,-11.165144920349121,-325.3826599121094,60.25969314575195
0,1391913,-3.8108692169189453,-15.93148422241211,36.67300033569336,-137.74896240234375
0,1391914,-19.14160919189453,18.372922897338867,353.88519287109375,68.27464294433594
0,1391917,43.55004119873047,12.268298149108887,-87.9903335571289,85.9100341796875
0,1391918,13.958944320678711,0.21466580033302307,-183.3987579345703,-40.28681945800781
0,1391921,-64.97965240478516,-21.62729263305664,-22.04632568359375,-16.074623107910156
0,1391922,-32.1547737121582,-7.991174221038818,110.7017822265625,11.055438041687012
0,1391925,67.70112609863281,40.56119155883789,10.313617706298828,-33.34367752075195
0,1391926,28.398807525634766,14.542017936706543,71.18649291992188,-100.24266052246094
0,1391929,-68.33177947998047,-31.905101776123047,40.365089416503906,50.65543746948242
0,1391930,7.692679405212402,-20.10248565673828,-335.9964599609375,132.9936065673828
0,1391933,26.429847717285156,6.069482803344727,106.25872039794922,-28.18699836730957
0,1391934,-22.78486442565918,-0.6975824236869812,333.0984191894531,-91.40066528320312
0,1391937,15.010782241821289,-0.4657595753669739,-194.1370849609375,-31.56471061706543
0,1391938,15.371380805969238,11.391561508178711,-154.6036834716797,38.67102813720703
0,1391941,-14.930136680603027,-3.7577126026153564,79.46016693115234,20.94005012512207
0,1391942,-16.604549407958984,-8.681843757629395,70.04063415527344,-1.8730815649032593
0,1391945,33.064327239990234,-0.7385501861572266,-60.396297454833984,12.912752151489258
0,1391946,18.36437225341797,21.64848518371582,82.88545989990234,-24.400800704956055
0,1391949,-40.329383850097656,9.055851936340332,58.251617431640625,14.7687406539917
0,1391950,-5.70581579208374,-49.154640197753906,-337.58587646484375,-53.182395935058594
0,1391953,25.751413345336914,32.16102981567383,110.54776763916016,-1.1069374084472656
0,1391954,-2.109515428543091,61.79170608520508,345.6593322753906,186.82070922851562
0,1391957,-23.975351333618164,-56.272361755371094,-165.80714416503906,-13.975831031799316
0,1391958,4.7658538818359375,-31.60862159729004,-196.90896606445312,-153.24111938476562
0,1391961,17.031171798706055,45.529666900634766,54.473148345947266,-65.64300537109375
0,1391962,-0.8511837720870972,5.385653972625732,111.60063934326172,-17.781774520874023
0,1391965,5.817698955535889,-44.20789337158203,-41.4568977355957,124.24309539794922
0,1391966,-33.748863220214844,1.445019245147705,73.63719940185547,143.71075439453125
0,1391969,-15.541203498840332,2.442361831665039,35.57133102416992,-54.70927047729492
0,1391970,54.939552307128906,-22.86835289001465,-331.8045959472656,-126.84850311279297
0,1391973,-11.161667823791504,19.26410675048828,100.67491149902344,-35.640968322753906
0,1391974,-32.35325241088867,15.088324546813965,366.0238952636719,65.66639709472656
0,1391977,33.49950408935547,20.062435150146484,-120.17927551269531,14.821379661560059
0,1391978,-3.6426122188568115,13.164390563964844,-212.5013427734375,-108.98870849609375
0,1391981,-28.534717559814453,-45.27629470825195,-10.018442153930664,31.407560348510742
0,1391982,20.847795486450195,-0.9939494132995605,117.73861694335938,136.9566650390625
0,1391985,19.56447410583496,46.1257438659668,-5.542027950286865,-44.644386291503906
0,1391986,-13.967660903930664,1.8406308889389038,67.3507080078125,-60.026123046875
0,1391989,-36.467105865478516,-50.23654556274414,39.82191467285156,34.79377746582031
0,1391990,19.706106185913086,-25.001510620117188,-333.3004150390625,7.577980041503906
0,1391993,36.30116271972656,28.84298324584961,81.60721588134766,42.26322937011719
0,1391994,-38.013492584228516,-1.7115813493728638,320.92041015625,34.97853469848633
0,1391997,17.924224853515625,32.00806427001953,-73.5415267944336,-108.477783203125
0,1391998,33.20586013793945,8.478050231933594,-176.49656677246094,-78.01251983642578
0,1392001,-50.720916748046875,-62.22282409667969,-57.40974807739258,96.5880126953125
0,1392002,2.678955078125,36.56064224243164,146.6796417236328,95.84648895263672
0,1392005,50.0185661315918,33.18754959106445,6.0682148933410645,-47.325958251953125
0,1392006,-30.28375244140625,-40.63962936401367,14.074358940124512,-61.930381774902344
0,1392009,-46.99528503417969,1.183727502822876,42.86046600341797,11.185693740844727
0,1392010,18.383142471313477,-2.158149480819702,-299.61737060546875,-25.124013900756836
0,1392013,25.73516082763672,3.6637210845947266,103.47742462158203,-18.20416831970215
0,1392014,13.760220527648926,31.34931182861328,318.8039855957031,51.43777084350586
0,1392017,5.437534332275391,-4.003890514373779,-115.31768798828125,15.098897933959961
0,1392018,-30.66976547241211,-29.483552932739258,-183.0869903564453,-58.49467468261719
0,1392021,-16.306798934936523,-3.9863803386688232,-38.54798889160156,38.5212287902832
0,1392022,8.204612731933594,2.341559886932373,120.2538070678711,53.41326904296875
0,1392025,12.110254287719727,-10.447826385498047,12.02900218963623,-87.2552261352539
0,1392026,15.401111602783203,24.04861068725586,73.91078186035156,-26.813072204589844
0,1392029,-27.80400276184082,-8.32172966003418,38.619842529296875,67.66161346435547
0,1392030,5.028436183929443,-28.89890480041504,-311.8811340332031,33.94193649291992
0,1392033,31.741456985473633,36.60649108886719,148.397705078125,11.785699844360352
0,1392034,-22.707469940185547,29.77520179748535,343.3228454589844,-1.6368937492370605
0,1392037,-6.754788875579834,-18.384315490722656,-218.058837890625,-114.10099792480469
0,1392038,22.679370880126953,-34.855430603027344,-269.1846923828125,-24.477224349975586
0,1392041,-15.398804664611816,-26.228872299194336,37.09860610961914,172.6085662841797
0,1392042,4.583559036254883,44.318702697753906,145.7636260986328,16.794696807861328
0,1392045,3.212282180786133,20.31537437438965,-13.17031478881836,-240.91452026367188
0,1392047,-38.36623764038086,-23.60973358154297,104.64250183105469,-90.68597412109375
0,1392049,51.88072204589844,26.514150619506836,28.11907386779785,363.22137451171875
0,1392051,23.011188507080078,-21.186080932617188,-344.8818359375,165.47642517089844
0,1392053,-61.891666412353516,3.308901071548462,214.44837951660156,-336.9983825683594
0,1392055,-15.722238540649414,42.49051284790039,349.931884765625,-177.013916015625
0,1392057,28.925199508666992,-40.967552185058594,-286.95391845703125,196.07887268066406
0,1392059,29.57382583618164,-39.26739501953125,-222.62123107910156,186.97804260253906
0,1392061,-38.10426712036133,-5.885316371917725,35.40176010131836,-71.26227569580078
0,1392063,-19.85664939880371,20.415834426879883,109.70204162597656,-109.83309936523438
0,1392065,45.99000930786133,34.205535888671875,34.41816711425781,-60.1358642578125
0,1392067,0.19734515249729156,-2.9530396461486816,119.23359680175781,-42.79658508300781
0,1392069,-15.98327350616455,-2.3241796493530273,-20.72199058532715,103.94546508789062
0,1392071,-0.7461771965026855,11.709906578063965,-332.4457092285156,30.284345626831055
0,1392073,8.173057556152344,6.077664375305176,267.0331115722656,-94.34473419189453
0,1392075,2.768942356109619,-16.32522964477539,339.9797668457031,47.684608459472656
0,1392077,-17.212661743164062,-26.226762771606445,-341.58905029296875,79.4632797241211
0,1392079,8.227046012878418,-11.033889770507812,-255.1566925048828,4.1897783279418945
0,1392082,4.263771057128906,-13.94009017944336,66.95611572265625,20.28590202331543
0,1392083,0.4086386263370514,23.908645629882812,111.20616912841797,-11.892391204833984
0,1392084,17.94280242919922,53.41965103149414,124.89653778076172,-85.03960418701172
0,1392087,-13.932333946228027,-10.486120223999023,119.1819076538086,-52.75447463989258
0,1392088,-37.70427703857422,-7.529385566711426,-20.877582550048828,85.34579467773438
0,1392092,4.1152167320251465,10.283867835998535,-93.41099548339844,22.492393493652344
0,1392093,42.055728912353516,-48.04086685180664,-141.15614318847656,-115.97012329101562
0,1392095,-16.858129501342773,-4.572360992431641,13.951715469360352,-8.325385093688965
0,1392097,-15.36693286895752,30.453306198120117,145.97213745117188,53.64780807495117
0,1392099,15.093486785888672,-17.660850524902344,-185.84336853027344,110.69049835205078
0,1392101,-24.685821533203125,-12.155163764953613,-31.836475372314453,29.320632934570312
0,1392103,22.33829116821289,12.089630126953125,62.841552734375,-110.18118286132812
0,1392105,41.81984329223633,30.026369094848633,-93.4136734008789,10.268288612365723
0,1392107,-34.67719650268555,-6.654634952545166,179.89614868164062,13.153158187866211
0,1392109,-26.60114097595215,-60.76622772216797,32.92646789550781,-15.77560806274414
0,1392111,38.59540557861328,5.4594831466674805,-259.1973876953125,1.032893419265747
0,1392113,0.7179792523384094,39.4002685546875,22.247194290161133,-46.22647476196289
0,1392115,-15.857367515563965,3.906043767929077,340.28692626953125,5.30349588394165
0,1392117,11.83597469329834,20.59453582763672,11.666536331176758,19.625972747802734
0,1392119,-28.631881713867188,1.5926557779312134,-262.810302734375,25.031740188598633
0,1392121,-7.531515121459961,-14.749442100524902,80.80282592773438,60.29684066772461
0,1392123,41.269920349121094,-23.384605407714844,-18.35868263244629,-39.63236999511719
0,1392125,-3.790005683898926,-20.781721115112305,-115.1739730834961,-68.53388214111328
0,1392127,-27.23309326171875,46.22365188598633,273.4703369140625,-4.576282501220703
0,1392129,-4.031129360198975,-5.356132984161377,-5.053317546844482,52.56954574584961
0,1392131,17.533966064453125,-31.49918556213379,-318.5110778808594,70.57191467285156
0,1392133,18.917177200317383,46.187721252441406,58.974586486816406,-16.17253875732422
0,1392135,-12.010039329528809,19.613977432250977,297.9107360839844,-72.10918426513672
0,1392137,-12.210051536560059,-30.89478302001953,-42.77784729003906,-13.22666072845459
0,1392139,0.1726030856370926,-37.57450485229492,-269.8695373535156,56.161006927490234
0,1392141,-4.404152870178223,22.991743087768555,118.20247650146484,13.691984176635742
0,1392143,-3.6080667972564697,23.04213523864746,40.17412185668945,-118.02837371826172
0,1392145,12.677148818969727,-30.07935333251953,-110.4803466796875,-74.50204467773438
0,1392147,-10.161460876464844,24.230697631835938,256.51409912109375,125.43608093261719
0,1392149,-22.411949157714844,1.552599549293518,-51.862876892089844,91.8370132446289
0,1392151,35.00358581542969,-38.58835220336914,-325.4905090332031,2.8232250213623047
0,1392153,26.635326385498047,16.28913688659668,63.576080322265625,-30.362911224365234
0,1392155,-26.106849670410156,6.32393741607666,291.3664245605469,-91.71942901611328
0,1392157,6.318670749664307,-14.326370239257812,32.88154983520508,0.8836340308189392
0,1392159,15.59041690826416,0.39476898312568665,-264.7142639160156,61.950477600097656
0,1392161,-23.453161239624023,13.316155433654785,6.10093355178833,33.81331253051758
0,1392163,13.024415969848633,28.398393630981445,44.45894241333008,22.788427352905273
0,1392165,15.915005683898926,-5.440188884735107,-46.73335266113281,-63.01560974121094
0,1392167,-35.99030303955078,-19.788293838500977,260.9814758300781,-57.198524475097656
0,1392169,-17.840770721435547,-7.044121742248535,-47.420997619628906,88.39313507080078
0,1392171,16.686527252197266,-5.878354072570801,-350.5135192871094,48.324607849121094
0,1392173,16.638256072998047,8.711342811584473,74.5341567993164,-143.7159423828125
0,1392175,-24.496721267700195,5.541901588439941,318.9953918457031,-84.06961822509766
0,1392177,-17.80390739440918,-2.9863946437835693,11.553924560546875,130.91099548339844
0,1392179,39.026554107666016,6.288136005401611,-261.0080871582031,94.63153076171875
0,1392181,1.189008116722107,4.287891387939453,22.317371368408203,-57.571563720703125
0,1392183,-4.673458576202393,-4.7159013748168945,33.679527282714844,-38.579612731933594
0,1392185,11.157732963562012,-11.050764083862305,-68.3752670288086,-13.660656929016113
0,1392187,-10.959683418273926,-10.001520156860352,224.58155822753906,-10.487211227416992
0,1392189,1.8933500051498413,-2.0203306674957275,-57.9622802734375,62.75873565673828
0,1392191,-7.091188907623291,-1.649846076965332,-284.8843688964844,16.754558563232422
0,1392193,3.7827188968658447,27.09263038635254,128.94387817382812,-42.559326171875
0,1392195,13.918658256530762,19.84515380859375,278.3211364746094,-12.210558891296387
0,1392197,-15.536624908447266,-21.26798439025879,-97.88408660888672,18.2188663482666
0,1392199,-31.839771270751953,-34.645931243896484,-286.57958984375,-17.782119750976562
0,1392201,-1.733659029006958,20.01654815673828,126.89241027832031,-77.19361877441406
0,1392203,52.67725372314453,52.616939544677734,89.59512329101562,87.49197387695312
0,1392205,24.41808319091797,-35.99088668823242,-130.2390594482422,145.18179321289062
0,1392207,-22.528535842895508,-25.234281539916992,238.31678771972656,-78.89448547363281
0,1392209,-23.843645095825195,23.533605575561523,24.440927505493164,-91.33441162109375
0,1392211,-24.765823364257812,-37.67332077026367,-352.8192138671875,35.841224670410156
0,1392213,4.060819625854492,-1.5776824951171875,38.72626876831055,-4.016318321228027
0,1392215,16.060684204101562,61.5643196105957,330.806640625,-60.603355407714844
0,1392217,6.143595218658447,-2.128842353820801,-24.638090133666992,39.59819412231445
0,1392219,-3.6283116340637207,-46.93669509887695,-296.7643127441406,72.1847915649414
0,1392221,-9.6002836227417,-7.1608052253723145,79.99879455566406,-75.38162994384766
0,1392223,29.77371597290039,25.35267448425293,70.0682144165039,-2.9218881130218506
0,1392225,18.433124542236328,22.867679595947266,-85.633056640625,46.01671600341797
0,1392227,-47.002830505371094,-1.5887858867645264,206.3421630859375,-131.24644470214844
0,1392229,-0.3656083345413208,-32.47810745239258,-39.68815994262695,-5.114044666290283
0,1392231,44.30831527709961,-6.060878753662109,-273.7466735839844,193.05230712890625
0,1392233,-9.085979461669922,23.467918395996094,77.04428100585938,30.974502563476562
0,1392235,-16.092435836791992,13.603452682495117,307.1591491699219,-159.6293182373047
0,1392237,-14.154755592346191,-1.363530158996582,-22.584644317626953,-33.5489616394043
0,1392239,-20.199485778808594,-25.878780364990234,-294.6661682128906,109.79554748535156
0,1392241,10.12681770324707,-9.876181602478027,71.09197998046875,78.93915557861328
0,1392243,17.365800857543945,9.659928321838379,54.827972412109375,-46.81184768676758
0,1392245,17.4244327545166,6.957318305969238,-92.35128784179688,-125.0201187133789
0,1392247,-14.29540729522705,10.249086380004883,204.81956481933594,6.2647705078125
0,1392249,-25.181156158447266,5.0468244552612305,-36.898399353027344,47.96466827392578
0,1392251,50.14692306518555,-20.778369903564453,-289.0560302734375,18.979564666748047
0,1392253,8.299351692199707,-9.872302055358887,72.3838882446289,31.714216232299805
0,1392255,-69.52521514892578,43.662654876708984,288.3177795410156,-97.66818237304688
0,1392257,19.51388168334961,-7.370182514190674,-9.412348747253418,-67.3600082397461
0,1392259,53.70970153808594,-17.907997131347656,-243.88365173339844,142.6450958251953
0,1392261,-28.868165969848633,31.814868927001953,71.78129577636719,134.3912353515625
0,1392263,-4.852642059326172,-30.03952980041504,15.176839828491211,-70.0882339477539
0,1392265,12.700943946838379,-42.97841262817383,-104.73771667480469,-145.96266174316406
0,1392267,-40.800682067871094,10.732588768005371,284.7069091796875,-18.09025001525879
0,1392269,5.045528888702393,31.684661865234375,-41.70640182495117,91.2235336303711
0,1392271,6.278130054473877,1.4246675968170166,-355.2492370605469,47.86820983886719
0,1392273,6.477597236633301,-21.06330108642578,123.14466094970703,-44.16889572143555
0,1392275,28.403715133666992,28.339143753051758,305.70538330078125,-34.869815826416016
0,1392277,-37.462642669677734,9.849512100219727,-77.85501098632812,-39.91660690307617
0,1392279,6.873350620269775,-28.52654457092285,-256.0511779785156,34.328948974609375
0,1392281,13.722408294677734,7.958508491516113,90.93949127197266,57.51811981201172
0,1392283,3.984222173690796,26.0234317779541,15.410530090332031,9.775691032409668
0,1392285,33.11604309082031,1.346876859664917,-89.69306945800781,-54.256248474121094
0,1392287,-75.84635925292969,-30.6446475982666,262.95550537109375,-102.65254211425781
0,1392289,-29.00008773803711,-9.13802719116211,-38.53237533569336,115.09637451171875
0,1392291,75.24594116210938,13.814905166625977,-276.0106506347656,98.28429412841797
0,1392293,3.8115010261535645,7.659720420837402,94.59487915039062,-52.87755584716797
0,1392295,-15.7809476852417,21.640653610229492,233.91017150878906,6.470912933349609
0,1392297,32.2161750793457,-21.570615768432617,-23.53978157043457,-19.10147476196289
0,1392299,-12.758430480957031,-59.63041687011719,-241.85723876953125,-57.37242889404297
0,1392301,-51.79706573486328,14.182512283325195,33.62389373779297,27.878440856933594
0,1392303,12.974563598632812,30.105918884277344,18.680519104003906,41.743080139160156
0,1392305,27.346927642822266,10.42393684387207,-21.23358154296875,-39.48051452636719
0,1392308,-12.684242248535156,16.816598892211914,253.67047119140625,-13.626120567321777
0,1392309,12.413329124450684,-13.709589958190918,-146.69268798828125,33.64358139038086
0,1392310,15.383672714233398,-37.74045181274414,-406.3565979003906,7.0699286460876465
0,1392313,-23.435192108154297,10.995665550231934,248.2254180908203,-50.37119674682617
0,1392314,3.013242721557617,42.190765380859375,353.0644226074219,-69.56401062011719
0,1392317,7.842869758605957,-10.368796348571777,-194.6695098876953,31.90553855895996
0,1392318,-14.16274356842041,-10.31234359741211,-151.0395050048828,75.822509765625
0,1392321,4.216860771179199,-15.199463844299316,89.92749786376953,-1.199617624282837
0,1392322,5.594907283782959,-10.834263801574707,122.3934555053711,-6.6087327003479
0,1392325,-14.569111824035645,35.816280364990234,-8.738825798034668,-32.565704345703125
0,1392326,-2.307080030441284,14.129393577575684,60.37466049194336,-38.33331298828125
0,1392329,-0.5699223875999451,-37.20763397216797,-66.3794174194336,69.74020385742188
0,1392330,-6.838595390319824,-18.912172317504883,-391.9701843261719,54.23434066772461
0,1392333,-14.93958854675293,30.360776901245117,206.0841064453125,-77.16715240478516
0,1392334,14.025968551635742,23.439313888549805,401.3421325683594,-59.49776840209961
0,1392337,44.83363723754883,-4.810808181762695,-241.2879180908203,95.70217895507812
0,1392338,-25.846694946289062,-38.65999221801758,-242.5358123779297,99.77732849121094
0,1392341,-19.75710105895996,-13.723799705505371,112.36643981933594,-63.74079895019531
0,1392342,16.9827823638916,47.458736419677734,154.12841796875,-103.48342895507812
0,1392345,11.137014389038086,3.521312952041626,-23.948667526245117,-4.2498393058776855
0,1392349,24.11358642578125,-34.07294845581055,-183.45945739746094,41.45188522338867
0,1392349,-20.108104705810547,-1.6548866033554077,-77.21792602539062,43.16023254394531
0,1392351,-10.504498481750488,35.74663543701172,169.0503387451172,14.811952590942383
0,1392353,28.33169937133789,24.31037139892578,263.47332763671875,-57.861297607421875
0,1392355,-29.085432052612305,-39.07403564453125,87.97472381591797,-55.740177154541016
0,1392357,-25.16594123840332,-25.24141502380371,-289.68902587890625,14.900558471679688
0,1392359,19.35704803466797,10.038167953491211,-211.482421875,29.16094207763672
0,1392361,-10.163711547851562,-10.814654350280762,78.65475463867188,33.70714569091797
0,1392363,-3.1103951930999756,21.96449851989746,110.62049102783203,-11.73178768157959
0,1392365,37.6605224609375,35.706932067871094,95.86597442626953,-68.62872314453125
0,1392367,-8.594928741455078,-16.289308547973633,108.98230743408203,18.83758544921875
0,1392369,-24.94346046447754,-12.6585111618042,-173.73443603515625,106.45393371582031
0,1392371,14.329317092895508,-6.455120086669922,-349.3551025390625,26.4122257232666
0,1392373,-8.80637264251709,-14.328973770141602,302.2940979003906,-83.42160034179688
0,1392375,-18.525375366210938,15.620232582092285,331.1534423828125,-69.44402313232422
0,1392377,-0.6990537047386169,-15.659205436706543,-294.8408203125,26.836915969848633
0,1392379,9.827110290527344,-21.688777923583984,-196.0010223388672,94.7459945678711
0,1392381,8.896016120910645,43.321598052978516,43.40664291381836,34.034149169921875
0,1392383,18.23244285583496,12.775459289550781,67.98270416259766,-102.34085845947266
0,1392385,-2.130531072616577,-35.28255844116211,89.99958038330078,-94.23734283447266
0,1392387,-24.019868850708008,18.951993942260742,164.7335205078125,66.06405639648438
0,1392389,23.752748489379883,20.835294723510742,-127.31304931640625,121.21373748779297
0,1392391,29.593547821044922,-33.394954681396484,-354.9859924316406,-18.85198974609375
0,1392393,-23.646608352661133,22.943700790405273,314.8790588378906,-149.5832061767578
0,1392395,-34.76142501831055,30.635732650756836,304.2679138183594,8.705759048461914
0,1392397,36.400489807128906,-31.372814178466797,-310.5620422363281,120.31060028076172
0,1392399,42.358455657958984,-14.53429889678955,-171.1211395263672,43.605186462402344
0,1392401,-45.625423431396484,-1.1096822023391724,52.063148498535156,-23.67976951599121
0,1392403,-19.427169799804688,-10.732337951660156,67.16304016113281,-80.3829116821289
0,1392405,9.709656715393066,-3.3612334728240967,91.85921478271484,-16.95447540283203
0,1392407,-57.215389251708984,25.391971588134766,137.89785766601562,19.125152587890625
0,1392409,-0.9710988402366638,-8.46803092956543,-182.86105346679688,49.5178337097168
0,1392411,80.87055206298828,-45.119483947753906,-346.7215881347656,29.956392288208008
0,1392413,-12.767598152160645,34.443790435791016,358.55377197265625,-63.53504943847656
0,1392415,-46.55976867675781,31.386289596557617,292.16680908203125,-98.79434204101562
0,1392417,46.46902084350586,-23.380422592163086,-363.0707702636719,25.441099166870117
0,1392419,9.25493335723877,-18.36880111694336,-127.95195770263672,183.1499786376953
0,1392421,-33.635643005371094,-3.792402982711792,97.69562530517578,-37.43971252441406
0,1392423,25.5753173828125,12.549382209777832,33.336524963378906,-156.27020263671875
0,1392425,3.735185384750366,17.693008422851562,81.33715057373047,6.545631408691406
0,1392427,-10.36178207397461,38.610774993896484,163.6483154296875,43.992305755615234
0,1392429,28.123315811157227,-9.041200637817383,-146.07260131835938,84.70918273925781
0,1392431,-30.536195755004883,-61.55990982055664,-368.7437744140625,49.668949127197266
0,1392433,-34.35757827758789,23.171445846557617,328.2677917480469,-58.21307373046875
0,1392435,25.44452667236328,27.184457778930664,326.9442443847656,-43.9462890625
0,1392437,-4.112072467803955,-48.6959342956543,-347.81866455078125,-0.47527557611465454
0,1392439,-15.055487632751465,1.049803376197815,-151.8307342529297,-15.649415969848633
0,1392441,31.00847053527832,11.9646635055542,74.92792510986328,-18.786771774291992
0,1392443,16.406856536865234,-18.62122917175293,29.66164207458496,25.381284713745117
0,1392445,-18.532447814941406,18.707284927368164,123.0712661743164,17.968740463256836
0,1392447,-14.386866569519043,39.26815414428711,129.90721130371094,-66.0460433959961
0,1392449,0.7493699789047241,4.146003723144531,-186.79415893554688,41.609397888183594
0,1392451,30.76666259765625,-52.83910369873047,-329.65216064453125,140.75022888183594
0,1392453,-32.24555206298828,0.6233738660812378,304.1623840332031,-110.31051635742188
0,1392455,-30.993682861328125,32.33350372314453,332.67724609375,-120.42720794677734
0,1392457,58.40556716918945,-14.587125778198242,-314.69232177734375,104.42151641845703
0,1392459,1.1274243593215942,9.345148086547852,-178.6551971435547,98.74237823486328
0,1392461,-32.62359619140625,4.400644779205322,97.95356750488281,12.113036155700684
0,1392463,2.8467602729797363,-1.3095240592956543,62.452816009521484,-102.63593292236328
0,1392465,-10.930919647216797,7.915527820587158,60.92461395263672,-161.32125854492188
0,1392467,8.968263626098633,-12.853368759155273,102.84088897705078,53.318058013916016
0,1392469,17.392311096191406,-20.763675689697266,-153.59056091308594,198.35340881347656
0,1392471,-0.9694679379463196,-21.99250602722168,-317.0103759765625,-40.948768615722656
0,1392473,1.6018251180648804,38.839263916015625,353.7545471191406,-119.66616821289062
0,1392475,2.002573251724243,44.54967498779297,321.8984069824219,23.02642822265625
0,1392477,36.14863967895508,-24.349435806274414,-369.9886169433594,54.731693267822266
0,1392479,-14.369300842285156,-26.005224227905273,-142.84121704101562,10.692447662353516
0,1392481,-54.92332458496094,-6.847014904022217,93.91368865966797,-43.951576232910156
0,1392483,22.305482864379883,9.048892974853516,2.693216562271118,18.66737937927246
0,1392485,15.633986473083496,-11.321794509887695,134.06350708007812,22.390840530395508
0,1392487,-5.8526740074157715,-13.63379955291748,180.4011993408203,-31.914798736572266
0,1392489,-10.10590934753418,7.9648966789245605,-247.24911499023438,45.5123291015625
0,1392491,-0.9807009100914001,17.66457176208496,-377.23187255859375,19.732074737548828
0,1392493,1.5754237174987793,16.002195358276367,377.4598388671875,-41.92832946777344
0,1392495,-27.99966049194336,-9.37001895904541,335.144287109375,2.3251171112060547
0,1392497,1.917693018913269,-5.1096272468566895,-357.1249694824219,-42.17323303222656
0,1392499,30.677635192871094,-22.095766067504883,-170.48719787597656,-3.58020281791687
0,1392501,20.196685791015625,-1.9581913948059082,102.50215148925781,85.24121856689453
0,1392503,-32.63663101196289,48.51963424682617,51.98092269897461,-42.81771469116211
0,1392505,0.20247527956962585,-27.895410537719727,83.34479522705078,-100.42762756347656
0,1392507,38.43687057495117,-29.575965881347656,131.29954528808594,61.89741134643555
0,1392509,-36.570987701416016,74.7728042602539,-180.92727661132812,102.10848236083984
0,1392511,12.78518295288086,-0.926322340965271,-319.319091796875,-27.732484817504883
0,1392513,32.932350158691406,-44.71308898925781,352.37261962890625,-72.09996795654297
0,1392515,-35.94808578491211,18.20631980895996,295.1689147949219,-43.904727935791016
0,1392517,-6.796548843383789,-19.186569213867188,-351.21875,47.30840301513672
0,1392519,3.900580883026123,-17.745853424072266,-107.43278503417969,77.89643096923828
0,1392521,-6.160576820373535,17.356477737426758,87.01322937011719,-14.750081062316895
0,1392523,-19.353445053100586,12.711531639099121,-31.376338958740234,-36.58560562133789
0,1392525,6.8792524337768555,17.823129653930664,110.24579620361328,-73.37582397460938
0,1392527,24.677202224731445,0.7164289951324463,169.14686584472656,-21.866626739501953
0,1392529,-0.44718876481056213,-25.089797973632812,-186.8218231201172,107.6060562133789
0,1392531,15.175198554992676,-35.64030456542969,-342.8509826660156,102.26747131347656
0,1392533,-17.218753814697266,10.538637161254883,316.8603515625,-98.5875473022461
0,1392535,-33.43831253051758,31.121234893798828,306.6209411621094,-154.6972198486328
0,1392537,29.971351623535156,-36.81525802612305,-315.9552001953125,100.07374572753906
0,1392539,33.733150482177734,3.3507423400878906,-121.45154571533203,107.6204833984375
0,1392541,-25.104734420776367,55.78408432006836,85.862548828125,-6.118463039398193
0,1392543,-19.729318618774414,-15.776881217956543,15.020169258117676,-30.659748077392578
0,1392545,29.152761459350586,1.48060941696167,110.0042953491211,-62.62485885620117
0,1392547,-0.27008795738220215,25.89779281616211,147.59202575683594,-10.735723495483398
0,1392550,-36.16267776489258,-65.91234588623047,-239.35792541503906,26.56972312927246
0,1392551,22.035634994506836,-33.98154830932617,-333.8037109375,20.196678161621094
0,1392552,27.90325355529785,54.9198112487793,233.11996459960938,22.248714447021484
0,1392555,-42.06276321411133,23.678577423095703,309.6673278808594,-9.636343002319336
0,1392556,-3.935948371887207,-18.39409065246582,-60.33509826660156,-39.215370178222656
0,1392559,33.121707916259766,-2.602665424346924,-197.97564697265625,-31.067712783813477
0,1392560,-42.35023880004883,19.42603302001953,93.6019515991211,8.726755142211914
0,1392563,-2.478325605392456,-6.5434064865112305,78.87860870361328,104.8698959350586
0,1392564,46.75331115722656,-11.123941421508789,-115.52344512939453,51.0236701965332
0,1392567,-23.59701156616211,2.1826391220092773,165.3500518798828,-111.12944793701172
0,1392568,-20.87335777282715,-22.85830307006836,-53.2583122253418,-63.809635162353516
0,1392571,27.069629669189453,7.536901473999023,-321.5934753417969,42.55393981933594
0,1392572,28.12067413330078,40.477420806884766,46.21670913696289,37.77738571166992
0,1392575,-6.606546878814697,-4.071689605712891,299.16107177734375,-18.652231216430664
0,1392576,-19.526256561279297,-27.80790901184082,12.041637420654297,-79.40679168701172
0,1392579,0.41020673513412476,-2.0179567337036133,-244.58839416503906,80.8655776977539
0,1392580,1.2334165573120117,31.363399505615234,86.83580780029297,96.5438461303711
0,1392585,21.202829360961914,-32.0328254699707,-86.17889404296875,-137.94117736816406
0,1392586,18.558643341064453,-32.127708435058594,-114.97437286376953,-21.34933853149414
0,1392587,-43.21930694580078,48.616729736328125,481.2467041015625,79.80672454833984
0,1392588,-29.704282760620117,-12.686168670654297,-36.82001495361328,30.150588989257812
0,1392591,23.131725311279297,-7.99550724029541,-451.2259521484375,6.05507755279541
0,1392592,19.609941482543945,25.105737686157227,99.00424194335938,-104.95763397216797
0,1392595,-34.60529327392578,-16.5307559967041,311.5032653808594,-21.941776275634766
0,1392596,-29.079784393310547,2.072568655014038,-55.798126220703125,63.556419372558594
0,1392599,49.01998519897461,2.479011297225952,-231.1183624267578,-13.3894681930542
0,1392600,17.13928985595703,-16.948257446289062,115.15525817871094,10.913864135742188
0,1392603,-19.623214721679688,-10.589900016784668,37.464481353759766,31.184152603149414
0,1392604,9.465970993041992,15.05927562713623,-98.23298645019531,-19.584482192993164
0,1392607,-16.656356811523438,28.234426498413086,207.80929565429688,-40.841678619384766
0,1392608,-11.789318084716797,-20.902320861816406,-62.6345100402832,32.08353042602539
0,1392611,20.421052932739258,-21.110050201416016,-344.68109130859375,78.08638763427734
0,1392612,8.625083923339844,34.48731994628906,73.92019653320312,-35.37217330932617
0,1392615,-12.488503456115723,-1.3849164247512817,304.9442138671875,-106.7861328125
