Aktueller Finger,timestamp_ms,sensor_0,sensor_1,sensor_2,sensor_3
0,633452,5.758663654327393,-24.724021911621094,-23.01412010192871,13.201546669006348
0,633452,22.218523025512695,-32.33010482788086,-31.915931701660156,-28.401613235473633
0,633452,-9.651496887207031,27.16853904724121,28.77138328552246,-18.67355728149414
0,633452,1.4554169178009033,-4.6016740798950195,26.074010848999023,19.323671340942383
0,633452,-10.98564624786377,-3.618459939956665,-13.060007095336914,11.81629753112793
0,633453,-19.181873321533203,32.32890319824219,-0.6146463751792908,-3.255167245864868
0,633453,27.889368057250977,-4.953887462615967,-0.46570438146591187,0.18243125081062317
0,633453,8.823031425476074,-21.828197479248047,-3.443906784057617,6.094155788421631
0,633453,-19.139453887939453,-0.7440137267112732,4.296474933624268,-15.128068923950195
0,633453,-7.1590752601623535,-2.45744252204895,-6.8963093757629395,0.7166796326637268
0,633453,3.742680072784424,8.790616989135742,10.344280242919922,12.692740440368652
0,633454,8.623294830322266,26.989852905273438,6.414168357849121,-6.479342937469482
0,633454,-1.3576581478118896,9.0274658203125,-9.083357810974121,7.950931549072266
0,633454,-7.589191436767578,-35.79411697387695,8.41816520690918,-0.8131467700004578
0,633454,-6.0420002937316895,-20.16216278076172,-2.2287893295288086,-7.528594493865967
0,633454,8.9054594039917,40.719852447509766,-14.553872108459473,15.334007263183594
0,633455,14.256731986999512,5.756414413452148,22.74835777282715,-5.066921234130859
0,633455,-13.42190933227539,-31.538124084472656,16.38368034362793,-15.866630554199219
0,633455,-6.523855686187744,10.778841972351074,-26.816816329956055,7.755038738250732
0,633455,8.510261535644531,27.339139938354492,1.5591508150100708,8.699840545654297
0,633455,0.039279453456401825,-19.361642837524414,11.26511001586914,-24.22882652282715
0,633455,-1.3860747814178467,-29.944948196411133,-6.64775276184082,2.2929527759552
0,633456,-5.2059431076049805,12.031096458435059,15.5481538772583,27.884096145629883
0,633456,1.3958587646484375,17.698076248168945,-9.962307929992676,-11.244264602661133
0,633456,2.474243640899658,-6.621346473693848,-22.470050811767578,-11.156333923339844
0,633457,-13.138188362121582,4.069526195526123,17.80661964416504,-12.066754341125488
0,633457,4.332950115203857,13.57174301147461,-7.222598075866699,-8.453802108764648
0,633458,10.612648963928223,-17.07587242126465,-24.080900192260742,18.625682830810547
0,633460,-13.721612930297852,6.1280975341796875,14.207474708557129,29.555313110351562
0,633462,11.046414375305176,20.58123207092285,22.454526901245117,-2.4581007957458496
0,633464,12.70419979095459,-31.618574142456055,-5.723286151885986,-28.847965240478516
0,633466,-13.545002937316895,-13.92678451538086,-25.374300003051758,7.869278430938721
0,633468,0.17963166534900665,27.701499938964844,12.998710632324219,-3.612133502960205
0,633470,19.142635345458984,-14.331687927246094,17.93769645690918,-23.880727767944336
0,633472,14.399263381958008,-21.169113159179688,-12.05915641784668,14.02143383026123
0,633474,-27.841949462890625,14.366630554199219,-1.9323488473892212,18.53359031677246
0,633476,-18.218400955200195,3.4990012645721436,0.7580109238624573,18.70795440673828
0,633478,12.807218551635742,4.2178192138671875,10.605508804321289,36.162330627441406
0,633480,-1.6308077573776245,14.282451629638672,-4.619946479797363,-27.049114227294922
0,633482,-5.456180572509766,0.9915414452552795,-4.986502647399902,-97.07325744628906
0,633541,-2.3520383834838867,-12.28719711303711,18.83136749267578,12.82352352142334
0,633541,2.277524471282959,5.536337375640869,-15.652848243713379,101.03773498535156
0,633542,-6.140434741973877,11.000375747680664,-8.955994606018066,-8.547441482543945
0,633542,4.708864212036133,8.379775047302246,29.347646713256836,-24.88810920715332
0,633542,31.418886184692383,-0.6867786645889282,3.4412002563476562,0.8572773933410645
0,633542,-2.357879161834717,-14.310522079467773,-26.757205963134766,-12.344123840332031
0,633542,-32.554622650146484,-10.604846000671387,-12.428923606872559,15.949548721313477
0,633542,14.579994201660156,-3.561387538909912,3.589808702468872,-24.064443588256836
0,633543,15.887465476989746,4.250261306762695,14.567558288574219,-25.0747013092041
0,633543,-20.31920623779297,-24.816757202148438,4.7040205001831055,30.508909225463867
0,633543,11.47969913482666,6.6477131843566895,-5.130940914154053,25.629268646240234
0,633543,2.826997995376587,38.548519134521484,6.561259746551514,-19.91680335998535
0,633543,-11.84305477142334,-25.477800369262695,-12.172808647155762,-34.55865478515625
0,633543,6.523383140563965,-5.2916083335876465,-3.209740161895752,5.701577663421631
0,633544,-9.650444030761719,23.984031677246094,10.454068183898926,33.4770393371582
0,633544,4.87305212020874,-35.61863708496094,-20.92621612548828,-2.2317769527435303
0,633544,3.168565034866333,-13.01980972290039,-2.4785590171813965,-22.813718795776367
0,633544,-9.971833229064941,37.08393859863281,24.257396697998047,7.881407737731934
0,633544,19.86866569519043,-2.833958387374878,-9.677495956420898,11.910407066345215
0,633544,-5.400479316711426,-18.897661209106445,-24.943201065063477,8.439059257507324
0,633545,-22.49036979675293,23.885251998901367,7.444790363311768,3.4016807079315186
0,633545,13.681410789489746,14.47618293762207,8.806947708129883,-23.291414260864258
0,633545,-0.45291876792907715,-16.55734634399414,-6.546278953552246,-26.259889602661133
0,633545,-19.046836853027344,-21.020702362060547,1.9765260219573975,18.876306533813477
0,633545,2.5308806896209717,-13.552712440490723,8.362263679504395,20.441211700439453
0,633545,0.6420405507087708,9.548224449157715,20.900747299194336,-28.367441177368164
0,633546,18.901966094970703,34.98432159423828,-9.139214515686035,-5.3328094482421875
0,633546,11.823802947998047,19.230634689331055,-22.41148567199707,15.252400398254395
0,633546,-20.35484504699707,-25.257410049438477,26.662139892578125,9.77389907836914
0,633546,19.152687072753906,2.7647297382354736,3.7008109092712402,13.134044647216797
0,633548,11.492955207824707,3.243360757827759,-21.92540168762207,-8.097247123718262
0,633548,-13.521020889282227,-25.6924991607666,15.953782081604004,6.153736114501953
0,633548,-4.900754928588867,25.633459091186523,0.2324962019920349,17.7872257232666
0,633549,9.696270942687988,19.83631706237793,-19.573606491088867,-29.82063865661621
0,633552,7.027766704559326,-23.947546005249023,17.791887283325195,-32.01887512207031
0,633553,-12.70175552368164,-10.366606712341309,10.724388122558594,41.045841217041016
0,633556,3.3931586742401123,5.834759712219238,-19.010311126708984,26.274099349975586
0,633557,-2.28261661529541,4.9980998039245605,10.68375301361084,-15.717731475830078
0,633560,-15.736087799072266,-4.056618690490723,5.705994606018066,-6.153512001037598
0,633561,-8.901970863342285,-11.075833320617676,-8.821372032165527,-12.889180183410645
0,633564,-13.279280662536621,-3.8901665210723877,-1.927743673324585,-5.807003021240234
0,633565,17.796039581298828,9.81758975982666,-17.455018997192383,5.363339424133301
0,633568,32.16106414794922,3.90203595161438,-9.339306831359863,26.391338348388672
0,633569,-15.944938659667969,2.3809125423431396,9.057050704956055,1.096305251121521
0,633572,-12.863574981689453,-17.43630027770996,17.08047103881836,-39.36496353149414
0,633573,2.1173994541168213,-16.883434295654297,-0.7582130432128906,3.8697752952575684
0,633576,-6.976914405822754,37.34632873535156,12.534460067749023,27.57338523864746
0,633577,7.8201422691345215,16.588340759277344,30.51282501220703,-5.395863056182861
0,633650,12.132031440734863,-30.340974807739258,-36.250770568847656,-20.605947494506836
0,633650,-0.034389678388834,-21.077163696289062,-52.3848991394043,-12.009411811828613
0,633650,3.225203514099121,17.061180114746094,38.51020812988281,23.245698928833008
0,633650,-6.967824935913086,23.55340576171875,32.75469970703125,16.540849685668945
0,633650,-21.535659790039062,-11.573081016540527,-22.83747673034668,-20.97085952758789
0,633650,10.23755168914795,0.38915684819221497,-12.882877349853516,0.5524740219116211
0,633651,7.088997840881348,0.5307533740997314,-7.717264175415039,17.502281188964844
0,633651,-5.648897171020508,-20.67324447631836,11.829482078552246,-1.9218930006027222
0,633651,6.148369312286377,3.576313018798828,8.527514457702637,-22.30767822265625
0,633651,9.145319938659668,19.40991973876953,-9.89588737487793,-12.172975540161133
0,633651,-6.771141529083252,4.540047645568848,5.482241630554199,18.96291160583496
0,633651,-13.882610321044922,-3.7228007316589355,11.081117630004883,4.525307655334473
0,633652,30.0623779296875,16.208276748657227,-9.680459976196289,-14.458968162536621
0,633652,11.887447357177734,3.3721020221710205,2.1973235607147217,12.651664733886719
0,633652,-28.81740951538086,-28.80244255065918,7.056908130645752,22.575162887573242
0,633652,-29.83416175842285,-10.48331069946289,-21.817781448364258,-1.8343849182128906
0,633652,1.4129751920700073,5.9187750816345215,8.257552146911621,-17.496675491333008
0,633652,27.780105590820312,5.606363296508789,6.803371429443359,-13.279366493225098
0,633653,-3.081101894378662,-3.4414680004119873,-24.055410385131836,-8.465819358825684
0,633653,-8.842533111572266,-5.388559818267822,5.341824054718018,6.908418655395508
0,633653,0.6544767618179321,18.950773239135742,8.102142333984375,11.618744850158691
0,633653,-11.10378646850586,1.390689730644226,10.151122093200684,-1.8172467947006226
0,633653,5.010366916656494,-25.66355323791504,-3.3988840579986572,-4.651966571807861
0,633654,16.74692726135254,-10.042607307434082,-19.483802795410156,3.3798069953918457
0,633654,-0.5385605096817017,22.16288185119629,18.04096031188965,-6.8131256103515625
0,633654,-1.1409374475479126,15.849377632141113,13.977537155151367,-5.981085777282715
0,633654,-0.48824775218963623,-19.78742027282715,-0.6559398174285889,22.724754333496094
0,633654,12.991511344909668,7.844353199005127,3.504248857498169,10.382682800292969
0,633654,4.801276683807373,22.629762649536133,-7.708977699279785,-13.652216911315918
0,633655,-10.604907989501953,-22.24680519104004,-10.22107982635498,-16.331640243530273
0,633655,0.5084030032157898,-17.200429916381836,15.814949989318848,12.021740913391113
0,633655,-5.359755992889404,35.47532272338867,13.917108535766602,22.161819458007812
0,633655,-5.529170989990234,16.037704467773438,-22.23284149169922,-33.1549072265625
0,633655,-4.785845756530762,-28.64296531677246,-14.82735538482666,-15.623055458068848
0,633655,7.9324469566345215,-13.71192455291748,24.818885803222656,37.371585845947266
0,633656,14.213841438293457,7.4507365226745605,12.986273765563965,6.369175434112549
0,633657,-3.6337740421295166,19.992937088012695,-29.550928115844727,-17.528715133666992
0,633657,-1.6120840311050415,-4.159538269042969,-16.683530807495117,-5.241369247436523
0,633657,-13.43046760559082,-16.534391403198242,13.598721504211426,5.814435005187988
0,633659,-8.46393871307373,13.545987129211426,7.639533996582031,2.9750754833221436
0,633660,-6.315651893615723,10.968300819396973,4.616186141967773,-7.399972438812256
0,633661,-9.883829116821289,-42.857200622558594,18.418855667114258,16.663818359375
0,633664,38.97026062011719,-19.259986877441406,-4.831791877746582,-15.468283653259277
0,633665,6.615658283233643,34.997886657714844,-33.4343147277832,-33.088069915771484
0,633668,-27.067977905273438,2.5060079097747803,-5.580900192260742,36.8392448425293
0,633669,33.43229675292969,-0.707146942615509,7.814919471740723,26.652984619140625
0,633672,20.334543228149414,1.2436383962631226,4.830949783325195,20.44906234741211
0,633673,-29.76251220703125,-2.2085087299346924,1.1661369800567627,11.333821296691895
0,633676,-28.85025405883789,2.711138963699341,1.2098829746246338,-88.94152069091797
0,633677,5.465848922729492,5.092194080352783,17.58355712890625,-78.71842956542969
0,633680,24.188766479492188,23.176679611206055,-17.800695419311523,82.66336059570312
0,633681,-12.305578231811523,-1.6386182308197021,-9.405333518981934,97.64911651611328
0,633684,-11.485992431640625,-30.07017707824707,15.88972282409668,-39.89013671875
0,633685,7.502350807189941,-8.327966690063477,-7.18195104598999,-70.1436538696289
0,633688,-0.6378031969070435,15.640417098999023,-2.028182029724121,-1.5271767377853394
0,633689,1.0998786687850952,-18.64628791809082,-0.1575641930103302,27.094797134399414
0,633774,1.828513741493225,-19.431310653686523,-8.78470516204834,12.469990730285645
0,633775,5.976495265960693,21.12065315246582,5.301452159881592,12.29327392578125
0,633775,21.391498565673828,-3.875605821609497,18.21833610534668,12.177224159240723
0,633775,22.947982788085938,-3.1122887134552,-0.2615252733230591,-11.370003700256348
0,633775,-15.977889060974121,27.514930725097656,-2.441983222961426,-13.224416732788086
0,633775,-47.806190490722656,4.034382343292236,4.60617733001709,21.34673309326172
0,633775,-9.010906219482422,-5.999288082122803,4.478285789489746,-4.1219305992126465
0,633776,15.930109977722168,15.408693313598633,3.544106960296631,-30.427160263061523
0,633776,-21.42641258239746,0.5364134311676025,-5.663888931274414,4.189660549163818
0,633776,-8.403793334960938,1.6514250040054321,-3.4435224533081055,1.0235704183578491
0,633776,24.054649353027344,6.8274359703063965,-0.21351316571235657,-9.402151107788086
0,633776,-14.296857833862305,-33.658241271972656,3.1406290531158447,10.528621673583984
0,633777,-14.807368278503418,-2.8540897369384766,-13.220248222351074,6.375092029571533
0,633777,45.3682861328125,40.10002899169922,-5.753705024719238,-14.185652732849121
0,633777,32.615501403808594,-25.997276306152344,6.027677536010742,-1.8025074005126953
0,633777,-20.271020889282227,-38.7766227722168,-19.702199935913086,36.8822021484375
0,633777,10.621220588684082,30.84804344177246,-0.23669157922267914,8.449098587036133
0,633777,49.733131408691406,10.21634578704834,24.582523345947266,-32.31853485107422
0,633778,10.249610900878906,-24.679550170898438,4.814058303833008,2.924833297729492
0,633778,-18.43671226501465,12.316704750061035,-2.993065118789673,5.1585211753845215
0,633778,-29.230070114135742,7.801671028137207,23.012298583984375,-24.43561553955078
0,633778,-12.3383150100708,-7.522042751312256,7.841405868530273,-11.959501266479492
0,633778,3.8478634357452393,9.396367073059082,-35.48051452636719,11.846270561218262
0,633778,-41.702945709228516,-3.024902582168579,-15.853608131408691,1.6589405536651611
0,633779,-37.068302154541016,-22.35914421081543,18.501317977905273,2.501155138015747
0,633779,15.596309661865234,1.5040925741195679,-11.234484672546387,13.641685485839844
0,633779,4.214413166046143,25.51182746887207,-7.731626510620117,-3.6380088329315186
0,633779,-40.70081329345703,-4.519741535186768,32.83361053466797,2.6150360107421875
0,633779,-3.449282646179199,-14.311521530151367,-9.481184959411621,18.02912139892578
0,633779,27.69219207763672,6.441619396209717,-22.220685958862305,13.67648983001709
0,633780,-19.401575088500977,25.668764114379883,14.132210731506348,3.32116436958313
0,633780,18.5667667388916,12.344806671142578,10.572925567626953,19.746780395507812
0,633780,53.18333053588867,-26.667205810546875,-6.7696356773376465,-7.136064052581787
0,633780,-14.944196701049805,-24.46108055114746,-18.128450393676758,-37.26614761352539
0,633780,-8.46163558959961,1.0421985387802124,-1.487155556678772,8.381382942199707
0,633780,25.29109001159668,17.940773010253906,18.633092880249023,6.278874397277832
0,633781,10.324761390686035,-2.955779552459717,7.404017448425293,-8.853299140930176
0,633781,-1.871181607246399,-5.357875823974609,-12.38251781463623,-13.686714172363281
0,633781,-17.658519744873047,8.988597869873047,-1.7573415040969849,-34.656803131103516
0,633781,4.512846946716309,-11.304445266723633,10.125083923339844,5.076653003692627
0,633781,-4.075245380401611,-10.606042861938477,2.049050807952881,37.17857360839844
0,633782,-12.37268352508545,21.794736862182617,2.058269739151001,8.082477569580078
0,633783,33.74270248413086,26.729488372802734,-3.351700782775879,-37.41436767578125
0,633783,0.3514102101325989,-7.538640022277832,-11.565263748168945,-39.143394470214844
0,633783,-36.08189392089844,-18.285137176513672,5.187839984893799,24.360593795776367
0,633783,9.009828567504883,-37.542781829833984,16.251026153564453,42.852020263671875
0,633785,23.248613357543945,-15.676329612731934,-14.074092864990234,-37.89199447631836
0,633786,-18.803274154663086,57.75913619995117,-10.57986068725586,77.68392944335938
0,633787,-9.280980110168457,26.967315673828125,4.02810525894165,118.2314453125
0,633790,41.11488723754883,-38.973968505859375,39.26829147338867,-240.2613067626953
0,633791,28.917236328125,-11.952922821044922,71.93559265136719,-136.4658660888672
0,633794,-28.441917419433594,0.1723630577325821,-239.88613891601562,337.79730224609375
0,633795,-71.04789733886719,-22.806440353393555,-166.85000610351562,110.07500457763672
0,633798,-43.01948547363281,36.940452575683594,346.4422912597656,-324.5566711425781
0,633799,70.17035675048828,40.83390426635742,146.57296752929688,-39.89911651611328
0,633802,74.53821563720703,-22.949203491210938,-164.3146209716797,196.35679626464844
0,633803,-35.062015533447266,7.3511552810668945,-54.77594757080078,-21.6511287689209
0,633806,-29.10419464111328,0.770085334777832,38.291236877441406,-36.387657165527344
0,633807,15.134344100952148,-37.75496292114258,-11.05555534362793,37.8683967590332
0,633810,-17.52711296081543,-6.4559149742126465,-34.189544677734375,-57.78944396972656
0,633811,-20.69077491760254,-10.574972152709961,10.125874519348145,-35.49140930175781
0,633814,13.266081809997559,22.409399032592773,37.66405487060547,37.569053649902344
0,633815,2.1005499362945557,31.585922241210938,36.56303787231445,-2.8028056621551514
0,633818,5.483158588409424,-25.215341567993164,-4.021682262420654,34.090576171875
0,633914,11.812236785888672,-14.325823783874512,-39.59148406982422,-9.668952941894531
0,633914,-1.6222556829452515,0.5442987680435181,-46.410850524902344,-60.50587844848633
0,633914,0.7791235446929932,20.674489974975586,11.309218406677246,2.8288583755493164
0,633914,-7.435678482055664,13.370925903320312,18.169389724731445,-7.580665111541748
0,633915,-13.719236373901367,-15.647069931030273,6.773130893707275,2.0708751678466797
0,633915,4.639209747314453,22.190500259399414,25.34418487548828,25.466955184936523
0,633915,20.186742782592773,2.795053243637085,2.3022987842559814,-2.6785922050476074
0,633915,-11.18950080871582,-45.27757263183594,-17.19099998474121,-19.115957260131836
0,633915,-18.09665298461914,12.150166511535645,4.174344539642334,6.451385974884033
0,633916,28.16541862487793,20.56296730041504,6.516020774841309,34.892181396484375
0,633916,22.55130958557129,-13.887056350708008,-28.4907283782959,15.346877098083496
0,633916,-16.58807373046875,-2.5424110889434814,-8.562261581420898,14.054601669311523
0,633916,-26.25570297241211,-6.77930212020874,20.984729766845703,32.08626937866211
0,633916,0.31014347076416016,4.413440704345703,5.071946144104004,-3.4187614917755127
0,633916,7.014364242553711,11.705224990844727,-10.225115776062012,-19.94803237915039
0,633917,-4.085188865661621,-17.42389678955078,0.5494493246078491,-13.459325790405273
0,633917,12.349589347839355,-5.923370361328125,6.924300193786621,-15.781240463256836
0,633917,-3.6164894104003906,13.474166870117188,1.3308982849121094,7.206558704376221
0,633917,-15.951799392700195,-2.3421378135681152,-3.5199475288391113,-11.565936088562012
0,633917,8.775725364685059,9.214842796325684,-14.458903312683105,-10.217143058776855
0,633917,15.184248924255371,-1.0826342105865479,-8.483062744140625,2.20265531539917
0,633918,-7.191463947296143,-5.208939552307129,20.390424728393555,-14.091647148132324
0,633918,-9.576811790466309,14.193239212036133,3.6931610107421875,-4.954164981842041
0,633918,9.448684692382812,-14.985319137573242,-21.345970153808594,2.7566275596618652
0,633918,-5.0775299072265625,-1.7858928442001343,25.748842239379883,18.14434814453125
0,633918,9.247696876525879,34.676822662353516,31.507505416870117,12.91068172454834
0,633918,18.64773941040039,1.9239736795425415,-15.27180290222168,8.657751083374023
0,633919,-6.683875560760498,-25.326496124267578,-29.738950729370117,17.47723960876465
0,633919,-8.28720474243164,-0.7294496893882751,4.129944324493408,12.526771545410156
0,633919,-8.668163299560547,6.695032119750977,5.684659481048584,10.021968841552734
0,633919,-0.4648279547691345,-6.508774280548096,-23.402877807617188,3.7857656478881836
0,633919,1.8097013235092163,-0.403656929731369,15.550765991210938,-16.067934036254883
0,633919,-6.1929168701171875,-9.515168190002441,24.625314712524414,-18.35447120666504
0,633920,-21.406457901000977,-5.2038655281066895,-20.848838806152344,-13.587495803833008
0,633920,7.22941780090332,7.639316082000732,-18.225234985351562,-14.375444412231445
0,633920,25.42148208618164,-8.838611602783203,15.262215614318848,0.4922674000263214
0,633920,-7.9224419593811035,-2.881784200668335,0.10497134923934937,6.328335285186768
0,633920,-16.504671096801758,-6.8324151039123535,-11.870829582214355,7.2160964012146
0,633920,1.891944169998169,-4.102005958557129,26.51173210144043,9.819669723510742
0,633921,29.94932746887207,33.03173065185547,6.261260032653809,-29.810894012451172
0,633921,5.992607116699219,-1.5367590188980103,-33.46173858642578,-26.041961669921875
0,633921,-28.618728637695312,-20.78182029724121,12.660305976867676,23.296768188476562
0,633921,-9.813448905944824,8.66622257232666,23.441335678100586,0.12411361932754517
0,633921,19.97065544128418,5.279043197631836,-33.67382049560547,-6.12112283706665
0,633921,7.5257062911987305,3.8481733798980713,-26.51066780090332,-0.02335255965590477
0,633922,-5.918238639831543,-11.87601375579834,14.833612442016602,-1.658204197883606
0,633922,-2.9098587036132812,-5.087939262390137,13.916003227233887,30.820932388305664
0,633922,-8.198445320129395,4.4862060546875,19.314136505126953,21.17053985595703
0,633923,23.603397369384766,13.417006492614746,-6.965373516082764,-3.2296762466430664
0,633923,16.726099014282227,-3.292494297027588,-28.003376007080078,29.728717803955078
0,633924,-18.132387161254883,-37.27448272705078,19.384450912475586,5.618380546569824
0,633924,-0.48819684982299805,17.894397735595703,-1.5995234251022339,-22.76932144165039
0,633924,-19.295377731323242,21.859249114990234,-23.881877899169922,10.119882583618164
0,633925,-52.589935302734375,-58.51335525512695,-1.047109603881836,31.663471221923828
0,633928,19.311723709106445,7.378242492675781,31.185218811035156,-64.62728881835938
0,633929,64.73798370361328,75.08775329589844,41.06092071533203,-149.91197204589844
0,633932,-6.233713150024414,-5.878525257110596,-21.99436378479004,28.482440948486328
0,633933,-21.01468849182129,-19.60866928100586,-26.20296859741211,116.8456802368164
0,633936,-8.55239200592041,19.78885841369629,35.312843322753906,-18.98908233642578
0,633937,-19.373937606811523,3.1979188919067383,15.055614471435547,-77.00918579101562
0,633940,14.559173583984375,-22.977975845336914,-36.31161880493164,-27.649555206298828
0,633941,28.985843658447266,2.8079440593719482,11.77916145324707,46.276153564453125
0,633944,-10.97265338897705,-14.934999465942383,3.395329713821411,150.81573486328125
0,633945,-30.78215789794922,-3.7787585258483887,-45.05206298828125,40.63319396972656
0,633948,39.023685455322266,46.5184440612793,23.72462272644043,-242.27305603027344
0,633949,35.67393493652344,-16.663440704345703,20.320528030395508,-30.315977096557617
0,633952,-52.44210433959961,-38.2549934387207,-35.68679428100586,384.6334533691406
0,633953,-36.91373062133789,-0.6415858268737793,-29.420740127563477,10.261600494384766
0,633956,21.070575714111328,10.53877067565918,5.689269065856934,-512.8565673828125
0,633957,58.23693084716797,13.15682601928711,44.3148193359375,-108.55472564697266
0,633960,-26.295841217041016,-19.48189926147461,1.2981349229812622,484.30987548828125
0,634066,-24.47345733642578,21.1350154876709,4.792520046234131,208.74752807617188
0,634066,78.5917739868164,58.53485870361328,26.783443450927734,-266.8398132324219
0,634067,-11.5310697555542,-32.02260971069336,-26.43960189819336,-108.53492736816406
0,634067,-49.89255142211914,-29.666955947875977,-12.208500862121582,66.77630615234375
0,634067,7.002194404602051,19.594562530517578,-2.250199556350708,2.406782388687134
0,634067,18.669193267822266,-23.7570743560791,-17.257667541503906,13.356937408447266
0,634067,3.7221992015838623,-30.00752830505371,0.4665789306163788,26.66769790649414
0,634068,-8.013341903686523,28.94077491760254,-7.802218914031982,-8.510590553283691
0,634068,4.794077396392822,0.37366607785224915,-4.407809257507324,-10.581576347351074
0,634068,-11.441061973571777,-48.657135009765625,22.58997917175293,-8.922958374023438
0,634068,-27.339845657348633,9.5853853225708,33.19242477416992,-25.528425216674805
0,634068,-6.816464900970459,19.905502319335938,16.931320190429688,-2.846731424331665
0,634068,-2.620365619659424,-30.898088455200195,-15.408970832824707,22.835979461669922
0,634069,1.6822737455368042,-15.212546348571777,-18.008056640625,36.17808151245117
0,634069,18.882308959960938,30.350555419921875,30.609304428100586,25.994356155395508
0,634069,23.2517032623291,19.281558990478516,31.280048370361328,-22.496145248413086
0,634069,7.9327898025512695,-13.70687198638916,-28.892297744750977,-31.639862060546875
0,634069,-15.151603698730469,-4.950020790100098,-9.075608253479004,-15.606155395507812
0,634069,-15.372660636901855,16.25490951538086,32.56385040283203,-48.91810989379883
0,634070,-34.525333404541016,32.46261978149414,6.828789234161377,-49.07014083862305
0,634070,-16.938899993896484,13.532693862915039,-30.248046875,-12.23477554321289
0,634070,-9.652671813964844,-7.456088066101074,-20.892818450927734,-30.46379280090332
0,634070,-42.6358528137207,33.13196563720703,-9.210671424865723,-31.05010986328125
0,634070,-23.27199935913086,26.780858993530273,-18.396320343017578,1.8337559700012207
0,634070,-11.83127212524414,-4.338814735412598,14.100031852722168,3.074327230453491
0,634071,-14.501605033874512,-11.234148025512695,-6.511155128479004,-4.946219444274902
0,634071,28.767833709716797,-14.014089584350586,-40.8818359375,11.94973373413086
0,634071,78.65480041503906,1.492002010345459,-29.794702529907227,19.430204391479492
0,634071,48.32324981689453,-27.117218017578125,-34.87998962402344,32.630950927734375
0,634071,37.68009948730469,-15.545743942260742,6.85440731048584,62.96763229370117
0,634071,47.82633590698242,18.35405921936035,6.473331451416016,20.383922576904297
0,634072,15.461949348449707,-32.96192932128906,-38.93193817138672,6.5955915451049805
0,634072,-3.2060983180999756,-40.323917388916016,-3.00993013381958,66.4343032836914
0,634072,8.494747161865234,16.27985954284668,31.363496780395508,49.394649505615234
0,634072,16.882831573486328,32.662471771240234,21.272836685180664,19.499147415161133
0,634072,-36.64625549316406,-12.234702110290527,34.51631546020508,31.24827003479004
0,634072,-50.010986328125,-20.9935359954834,41.72576904296875,21.72933578491211
0,634073,-10.148847579956055,10.935405731201172,11.840347290039062,-14.606836318969727
0,634073,-28.40545082092285,14.307475090026855,-10.794840812683105,-40.90317153930664
0,634073,-52.04951477050781,24.007877349853516,15.74170970916748,-26.89609146118164
0,634073,-20.50514030456543,-1.6088591814041138,57.19157409667969,-28.292308807373047
0,634073,-0.06053333729505539,-25.198795318603516,29.46078872680664,-52.35511779785156
0,634074,-23.080089569091797,9.480053901672363,-9.572248458862305,-34.4326057434082
0,634074,-18.39499282836914,24.943626403808594,8.432361602783203,-40.546295166015625
0,634074,5.830951690673828,-9.995792388916016,21.851558685302734,-54.21351623535156
0,634074,-7.928051948547363,-21.409894943237305,6.709221839904785,20.858362197875977
0,634074,-5.422532081604004,9.25536060333252,-4.918797016143799,40.68043518066406
0,634074,18.74263572692871,17.466520309448242,-23.958051681518555,-17.06541633605957
0,634075,23.70779037475586,-7.77156925201416,-51.64918899536133,-14.109501838684082
0,634075,26.56344223022461,-6.142659664154053,-17.657623291015625,33.4670524597168
0,634075,21.616920471191406,17.299741744995117,-9.093637466430664,30.883115768432617
0,634075,24.288137435913086,-26.562196731567383,-49.46134567260742,2.7788658142089844
0,634075,34.11946105957031,-24.515735626220703,-17.450075149536133,50.33637237548828
0,634077,108.8587417602539,43.93544387817383,7.902409076690674,56.43925476074219
0,634077,76.14154052734375,15.910740852355957,8.751541137695312,-17.699623107910156
0,634077,-83.2137680053711,-23.135343551635742,16.763160705566406,-39.216373443603516
0,634077,-40.7127685546875,-6.324039459228516,2.7817437648773193,-33.57563018798828
0,634077,-11.126242637634277,14.058280944824219,8.286216735839844,-29.350440979003906
0,634079,-27.151451110839844,-3.2639682292938232,-6.549197196960449,-88.3707275390625
0,634080,32.77750778198242,-18.244483947753906,7.992327690124512,-47.99574661254883
0,634083,2.866692304611206,11.660372734069824,117.54456329345703,297.0489807128906
0,634084,-54.67006301879883,-33.08800506591797,-107.72891235351562,225.9141845703125
0,634087,-53.37132263183594,-13.625712394714355,-177.3286590576172,-345.1230773925781
0,634088,-19.630264282226562,26.630550384521484,143.26132202148438,-264.3810729980469
0,634091,-1.8461518287658691,-15.729846000671387,48.84307098388672,90.69664001464844
0,634092,7.194361686706543,15.394655227661133,-36.06436538696289,84.78946685791016
0,634095,28.69712257385254,5.835412502288818,42.577213287353516,308.6322021484375
0,634096,50.510738372802734,25.497772216796875,-37.13589859008789,294.0433044433594
0,634099,-99.23808288574219,13.973979949951172,-51.27203369140625,-396.69134521484375
0,634100,-108.01888275146484,-39.848018646240234,46.183658599853516,-513.55810546875
0,634103,186.05001831054688,45.99165725708008,116.18351745605469,106.52935791015625
0,634104,107.0081787109375,41.79133987426758,-4.495226860046387,190.2986602783203
0,634105,-130.43084716796875,-66.11821746826172,-208.47071838378906,278.6916809082031
0,634108,-79.7202377319336,-72.75379943847656,16.153352737426758,-222.03819274902344
0,634109,33.980464935302734,16.269643783569336,226.24850463867188,-610.0953979492188
0,634112,83.74221801757812,39.65060043334961,-63.94517135620117,679.3148803710938
0,634113,-17.05632972717285,-38.39378356933594,-145.40240478515625,596.6875
0,634116,-42.38284683227539,11.95151138305664,40.47306442260742,-369.99810791015625
0,634117,27.800813674926758,45.74919509887695,50.19960403442383,-497.0054931640625
0,634235,-38.43034744262695,-36.53330612182617,-9.497721672058105,-300.1466369628906
0,634235,-11.31212329864502,21.082590103149414,18.90125846862793,301.3006896972656
0,634235,62.22774887084961,38.77887725830078,8.506169319152832,290.04229736328125
0,634235,-4.3928117752075195,-27.558063507080078,-5.413756370544434,26.462432861328125
0,634236,-26.318321228027344,8.714531898498535,21.632143020629883,39.19694519042969
0,634236,11.826416015625,37.215492248535156,0.8838036060333252,-12.870686531066895
0,634236,22.031776428222656,-12.920605659484863,-16.35511589050293,2.9790985584259033
0,634236,4.953115463256836,-1.8882797956466675,-11.810949325561523,25.234678268432617
0,634236,-22.907581329345703,21.384559631347656,-22.096744537353516,1.9048634767532349
0,634236,-8.586967468261719,-49.48456954956055,-4.908047676086426,25.606569290161133
0,634237,10.086791038513184,-18.39664077758789,24.594287872314453,14.322380065917969
0,634237,0.611075758934021,27.775415420532227,2.800910234451294,-39.67633819580078
0,634237,-7.751539707183838,-33.24468994140625,-14.269841194152832,-41.73154830932617
0,634237,-4.797760486602783,-2.9438576698303223,8.809843063354492,-56.86453628540039
0,634237,-18.21674346923828,26.624849319458008,14.1371431350708,-95.959716796875
0,634237,-11.81583309173584,-8.64440631866455,-30.772306442260742,-99.04368591308594
0,634238,19.47658348083496,-7.729249477386475,-18.93587303161621,-81.62178039550781
0,634238,0.6772661805152893,-13.94105339050293,6.621441841125488,-49.397491455078125
0,634238,-6.145895481109619,-19.629703521728516,-10.1362886428833,9.156623840332031
0,634238,-1.0288290977478027,15.988856315612793,10.442395210266113,29.85776710510254
0,634238,4.824913024902344,28.2967529296875,-1.7962065935134888,54.74106216430664
0,634238,26.87373924255371,-23.58464241027832,-11.044323921203613,78.28165435791016
0,634239,-8.509661674499512,-14.978860855102539,22.824777603149414,17.767459869384766
0,634239,-23.986480712890625,14.642535209655762,10.292431831359863,-26.96285057067871
0,634239,16.477739334106445,5.178292274475098,-17.588890075683594,-27.705337524414062
0,634239,4.023488521575928,3.5953595638275146,8.984111785888672,-3.800591468811035
0,634239,-24.287269592285156,-8.081954002380371,28.289630889892578,1.5895119905471802
0,634240,12.51822566986084,10.51797103881836,1.668264627456665,0.1213725283741951
0,634240,44.947349548339844,12.356255531311035,1.7321140766143799,32.71604919433594
0,634240,11.931183815002441,-26.198728561401367,4.197000026702881,47.92292022705078
0,634240,-13.55167293548584,-0.3267069160938263,17.27024269104004,76.71450805664062
0,634240,-1.420285701751709,41.77702331542969,30.179237365722656,52.4945182800293
0,634240,19.091209411621094,-11.080842971801758,-18.670019149780273,-10.513416290283203
0,634241,4.252734661102295,-18.319093704223633,-28.055051803588867,-6.619455814361572
0,634241,-9.04621696472168,25.7156982421875,5.410938262939453,-4.37110710144043
0,634241,3.593569755554199,-6.512449264526367,-11.028633117675781,-12.565139770507812
0,634241,-29.36382293701172,-19.372289657592773,-36.04739761352539,13.199020385742188
0,634241,-23.692731857299805,-12.61007308959961,-26.486413955688477,27.78912925720215
0,634241,4.100625991821289,-21.048315048217773,-23.586196899414062,48.175933837890625
0,634242,-3.8864428997039795,-16.487159729003906,-29.011077880859375,64.66385650634766
0,634242,8.365164756774902,4.278912544250488,-6.917276382446289,10.718979835510254
0,634242,15.190271377563477,25.493906021118164,6.177632808685303,-2.9744815826416016
0,634242,-15.742548942565918,-4.398968696594238,-7.938786029815674,39.69929885864258
0,634242,-23.118894577026367,-6.14393949508667,2.3198983669281006,29.04670524597168
0,634242,20.420421600341797,40.52113723754883,16.013214111328125,4.014316558837891
0,634243,0.9633007645606995,5.7345757484436035,8.070619583129883,23.576335906982422
0,634243,-19.245349884033203,-9.01989459991455,14.818546295166016,-24.268712997436523
0,634243,21.964887619018555,39.26721954345703,-8.652603149414062,-82.60516357421875
0,634243,7.017569541931152,2.7287497520446777,-14.269989967346191,-3.2217230796813965
0,634243,-27.85108184814453,-36.161685943603516,34.123634338378906,0.5286306142807007
0,634243,5.75520658493042,2.034528970718384,11.075576782226562,-68.73258972167969
0,634244,8.448911666870117,25.136537551879883,-3.927353858947754,-52.06157302856445
0,634244,-29.76068115234375,-7.7049455642700195,13.557027816772461,-67.45846557617188
0,634244,3.5335705280303955,-31.15728759765625,14.130812644958496,-86.53589630126953
0,634244,15.037830352783203,-24.575626373291016,5.399526119232178,-39.9349479675293
0,634244,-10.65456771850586,-0.5487194061279297,-15.820612907409668,-47.73834991455078
0,634244,-7.825197696685791,10.67895793914795,11.544389724731445,-79.84368133544922
0,634245,-6.856582164764404,-13.687315940856934,26.405078887939453,-16.936447143554688
0,634246,-27.329259872436523,-1.8217889070510864,88.06524658203125,-68.08428955078125
0,634246,-14.735454559326172,44.239131927490234,75.08802032470703,-82.5379867553711
0,634246,54.03388595581055,20.14895248413086,-80.29309844970703,111.33672332763672
0,634246,16.08067512512207,-31.122879028320312,-32.4747200012207,123.12290954589844
0,634247,-23.441408157348633,4.6495585441589355,33.968017578125,49.687259674072266
0,634247,29.326650619506836,25.770877838134766,-33.796104431152344,20.145309448242188
0,634248,30.994117736816406,14.151876449584961,9.40590763092041,220.47129821777344
0,634249,49.299903869628906,30.363178253173828,45.1330680847168,234.0077362060547
0,634252,46.48490905761719,3.4711618423461914,-59.794410705566406,-96.5187759399414
0,634253,-59.44369125366211,-79.4959945678711,-131.4628448486328,-221.58038330078125
0,634256,-52.82278823852539,-25.209423065185547,15.483604431152344,-93.39954376220703
0,634257,44.010135650634766,82.64879608154297,103.48138427734375,247.21914672851562
0,634260,2.877023458480835,-2.810364246368408,-67.58253479003906,-187.22369384765625
0,634262,-52.06699752807617,-78.8115463256836,-71.11591339111328,-151.97569274902344
0,634264,-42.937355041503906,-39.806495666503906,86.6673583984375,611.9853515625
0,634266,55.6142578125,-14.610677719116211,-24.275638580322266,256.0794982910156
0,634268,-23.74656105041504,31.286876678466797,-70.26179504394531,-684.8533935546875
0,634270,-126.55911254882812,90.80032348632812,106.4137954711914,-622.599853515625
0,634272,127.52751159667969,15.302030563354492,45.455810546875,427.4721374511719
0,634274,94.44912719726562,-45.072532653808594,-50.3889274597168,320.3293762207031
0,634276,-74.58503723144531,38.95915985107422,-1.476743221282959,-269.7691345214844
0,634278,-30.08499526977539,-24.535375595092773,-17.296852111816406,272.6487731933594
0,634280,-26.258607864379883,-84.74003601074219,-4.9973320960998535,223.10214233398438
0,634282,6.378049373626709,60.14183807373047,52.78650665283203,-286.08221435546875
0,634284,30.285396575927734,46.58982467651367,10.626773834228516,-536.6726684570312
0,634286,82.86418914794922,-18.523773193359375,-18.264047622680664,-541.8121948242188
0,634288,-23.7768497467041,-25.41927719116211,-72.8936996459961,1248.7811279296875
0,634416,-77.26524353027344,-14.280135154724121,-37.354740142822266,413.8385925292969
0,634417,79.85064697265625,33.25812911987305,99.1986312866211,-1353.9620361328125
0,634417,-3.8946261405944824,-13.997368812561035,-0.039305832237005234,399.2471618652344
0,634417,-56.05598449707031,-18.398468017578125,-56.32341766357422,570.4143676757812
0,634417,11.263018608093262,6.422758102416992,13.306488037109375,-203.97528076171875
0,634417,-1.6915242671966553,4.886284828186035,0.4977112114429474,87.0484390258789
0,634417,4.4501872062683105,10.34338665008545,1.6532448530197144,82.83206939697266
0,634418,-3.306000232696533,20.081260681152344,6.929966926574707,13.422099113464355
0,634418,-32.48991012573242,-2.9481379985809326,2.0881285667419434,1.7056463956832886
0,634418,-20.09722137451172,-44.757957458496094,9.359484672546387,42.99816131591797
0,634418,0.4096977710723877,-17.279935836791992,-11.369885444641113,80.62484741210938
0,634418,-5.044739723205566,6.146739959716797,18.17997932434082,71.04804229736328
0,634418,17.81908416748047,10.688521385192871,34.75971603393555,15.373568534851074
0,634419,24.76112174987793,7.247374534606934,4.3155975341796875,-47.612388610839844
0,634419,5.816385269165039,2.250145196914673,0.3209977447986603,-100.17890930175781
0,634419,9.00195598602295,-2.2371060848236084,2.707444190979004,-118.14912414550781
0,634419,17.70948028564453,-6.0612473487854,-3.7909164428710938,-118.90653991699219
0,634419,-3.5312581062316895,9.183149337768555,-26.956483840942383,-115.91043853759766
0,634419,-32.10847091674805,-8.438281059265137,-0.08640281856060028,-90.38166809082031
0,634420,3.6400585174560547,-3.3463621139526367,15.558842658996582,-74.4431381225586
0,634420,11.01153564453125,0.6878830194473267,-13.425714492797852,-63.03435134887695
0,634420,-14.84409236907959,-23.92494010925293,-19.371376037597656,-4.857671737670898
0,634420,-8.706972122192383,14.083489418029785,-12.805861473083496,27.37163543701172
0,634420,13.143477439880371,29.35469627380371,3.1710002422332764,-3.4060983657836914
0,634420,29.44693946838379,-12.460967063903809,-16.481891632080078,30.1448974609375
0,634421,-21.936384201049805,-3.035501480102539,-23.880634307861328,49.656639099121094
0,634421,-37.893253326416016,23.784896850585938,15.12039566040039,20.616687774658203
0,634421,0.08926622569561005,-15.224617004394531,5.052687168121338,28.900102615356445
0,634421,-14.94311809539795,-35.403316497802734,3.6228134632110596,47.68009948730469
0,634421,-21.4599552154541,28.939638137817383,25.50471305847168,40.99248123168945
0,634422,18.766685485839844,38.03684997558594,-5.049748420715332,-7.833946228027344
0,634422,0.8427373170852661,-33.98849105834961,-7.429576396942139,-4.833830833435059
0,634422,-4.172708511352539,-14.552318572998047,27.171588897705078,3.5698325634002686
0,634422,47.73247528076172,33.99082946777344,4.360229015350342,-4.644604682922363
0,634422,23.77921485900879,-1.8584940433502197,-6.633092403411865,14.342730522155762
0,634422,2.0146944522857666,-0.514512300491333,6.913851737976074,-24.20075798034668
0,634423,24.0861873626709,7.640758514404297,-3.5705411434173584,-30.42092514038086
0,634423,15.80233383178711,-8.87491512298584,10.070549011230469,6.1132941246032715
0,634423,2.176673173904419,16.268457412719727,11.930743217468262,-35.54584884643555
0,634423,7.7814621925354,23.631330490112305,6.222126483917236,-33.42585754394531
0,634423,8.392962455749512,1.2605875730514526,17.33442497253418,12.533211708068848
0,634423,-5.712306022644043,-11.185141563415527,2.6568233966827393,-20.990320205688477
0,634424,-8.644388198852539,-11.563197135925293,1.278878092765808,-53.48316955566406
0,634424,5.6060075759887695,13.208439826965332,-8.877665519714355,-7.381345272064209
0,634424,-17.84248161315918,18.683895111083984,-22.059560775756836,16.69548225402832
0,634424,-24.339305877685547,-7.58819580078125,26.009748458862305,-14.443521499633789
0,634424,16.82122230529785,-15.435400009155273,10.350537300109863,30.982994079589844
0,634424,-5.5758466720581055,-9.024276733398438,-34.17082977294922,75.26396179199219
0,634425,-14.119709968566895,12.877278327941895,9.306498527526855,39.26082992553711
0,634425,13.8274564743042,-8.612043380737305,-1.5869163274765015,48.09669494628906
0,634425,-17.938968658447266,-25.78171157836914,-41.22770690917969,79.09408569335938
0,634425,-28.449317932128906,-5.615635395050049,-14.586926460266113,35.21821212768555
0,634425,2.646303415298462,-44.736961364746094,-6.510916709899902,-9.974127769470215
0,634425,6.73989200592041,-27.744403839111328,-17.77384376525879,3.5105550289154053
0,634426,-14.649559020996094,20.977670669555664,-18.01482391357422,25.67643165588379
0,634426,-18.946502685546875,3.445983409881592,9.070281028747559,-11.777472496032715
0,634426,5.884486675262451,-0.07692648470401764,12.605549812316895,-21.82482147216797
0,634426,15.713884353637695,-1.0970381498336792,-3.294956922531128,15.463827133178711
0,634426,4.648709297180176,5.462416172027588,3.893620491027832,-0.41148537397384644
0,634426,-1.539270281791687,24.802242279052734,4.8349223136901855,-18.673105239868164
0,634427,12.374727249145508,13.328582763671875,15.927016258239746,-29.112518310546875
0,634427,11.170148849487305,-23.374467849731445,-0.006843076087534428,5.278107166290283
0,634427,-21.632383346557617,16.500185012817383,-6.473394870758057,33.265602111816406
0,634427,-4.4311981201171875,32.385860443115234,9.203882217407227,-13.010422706604004
0,634428,15.716602325439453,-15.359797477722168,12.105910301208496,5.79682731628418
0,634429,-2.140559434890747,10.889387130737305,19.98162078857422,10.304813385009766
0,634429,5.0479416847229,10.268506050109863,6.022946357727051,-51.461734771728516
0,634429,-8.70189094543457,15.714518547058105,6.172879219055176,-45.15538787841797
0,634429,-9.071091651916504,21.71812629699707,-7.663460731506348,-13.864943504333496
0,634429,7.631564617156982,-29.965707778930664,-17.3250732421875,15.595685005187988
0,634431,-0.431037575006485,-5.980046272277832,19.56050682067871,219.0023956298828
0,634432,28.267105102539062,9.86490535736084,19.20941162109375,152.07644653320312
0,634435,8.669041633605957,-45.97770309448242,-55.795719146728516,-353.5289306640625
0,634436,-40.249568939208984,-6.2806501388549805,-52.43855285644531,-361.8348083496094
0,634439,-47.77337646484375,26.425334930419922,66.9193115234375,10.639663696289062
0,634440,-33.8166618347168,-15.680157661437988,69.6136245727539,272.1103210449219
0,634443,83.0216064453125,56.72484588623047,-13.8864164352417,521.6375122070312
0,634444,83.97431945800781,15.25589656829834,-44.87662124633789,-376.7237243652344
0,634447,-26.23404884338379,-159.41534423828125,-34.97116470336914,-373.1270446777344
0,634448,4.198139667510986,-37.03567123413086,-47.52499008178711,815.7470092773438
0,634451,-86.73429870605469,111.74482727050781,-36.19615936279297,-638.5642700195312
0,634452,-62.21456527709961,33.81960678100586,68.8359603881836,-860.0557250976562
0,634455,111.55242919921875,13.548726081848145,86.01458740234375,1291.6416015625
0,634456,15.025811195373535,-18.630369186401367,-34.807456970214844,650.0507202148438
0,634459,-38.63605499267578,-23.188615798950195,-31.150358200073242,-1139.92431640625
0,634460,-2.3081023693084717,73.0429916381836,62.73957061767578,-578.3869018554688
0,634463,30.748186111450195,7.8440842628479,7.894425392150879,624.583740234375
0,634464,21.74542999267578,-83.1749267578125,-48.18406295776367,-88.41195678710938
0,634465,-43.79506301879883,7.741897106170654,33.92578125,-723.969482421875
0,634468,12.808675765991211,20.94054412841797,-5.069892883300781,821.97314453125
0,634469,31.24987030029297,-25.51543426513672,-76.33740997314453,1259.0667724609375
0,634472,-112.40413665771484,-38.331138610839844,-64.60562896728516,7.061753749847412
0,634473,-72.32831573486328,-41.47113800048828,-43.640384674072266,-852.8828735351562
0,634613,150.15057373046875,77.07592010498047,147.15586853027344,-871.2750854492188
0,634613,64.2960433959961,40.74528121948242,91.50135040283203,307.4828186035156
0,634614,-98.4422607421875,-74.81049346923828,-123.65299224853516,508.4709777832031
0,634614,-28.7691650390625,12.138687133789062,-8.819620132446289,-96.6514663696289
0,634614,4.114291667938232,65.26457214355469,60.8619499206543,-79.78312683105469
0,634614,8.945453643798828,4.5422468185424805,-7.097428321838379,-85.54875183105469
0,634614,21.79106903076172,-13.73945140838623,19.03099822998047,-71.44094848632812
0,634614,22.167991638183594,6.858822345733643,39.45477294921875,18.149742126464844
0,634615,49.44066619873047,4.3285298347473145,-1.4214240312576294,42.100120544433594
0,634615,10.610949516296387,1.6339385509490967,-16.377920150756836,74.26254272460938
0,634615,-5.82750940322876,-23.08708381652832,-26.918962478637695,126.05157470703125
0,634615,-2.2872252464294434,-26.283021926879883,-31.529497146606445,102.25419616699219
0,634615,-19.116910934448242,9.408843040466309,-16.5841007232666,69.22892761230469
0,634616,-9.79281997680664,-21.270654678344727,-20.248868942260742,17.802114486694336
0,634616,-18.455944061279297,-5.638133525848389,6.6808247566223145,-100.5975341796875
0,634616,-17.504919052124023,37.40632247924805,26.318378448486328,-138.9320526123047
0,634616,1.7289478778839111,-0.8726125955581665,4.741009712219238,-92.05565643310547
0,634616,-2.127173900604248,-6.769212245941162,11.269832611083984,-95.25346374511719
0,634616,-2.815030813217163,10.49772834777832,8.774554252624512,-48.899349212646484
0,634617,9.085530281066895,2.5353121757507324,-11.564242362976074,58.17572784423828
0,634617,-2.625527858734131,4.5450897216796875,-4.965137958526611,83.04102325439453
0,634617,1.472206711769104,-6.068010330200195,-6.598921775817871,51.43291091918945
0,634617,-0.28756943345069885,-33.695987701416016,-13.581733703613281,63.96293640136719
0,634617,-20.41018295288086,1.8261266946792603,7.194150924682617,31.921661376953125
0,634617,17.644794464111328,27.04736328125,16.902225494384766,-83.65292358398438
0,634618,23.92906379699707,-12.18967056274414,-8.387144088745117,-126.37196350097656
0,634618,-18.651432037353516,7.738779544830322,2.6114354133605957,-111.2974853515625
0,634618,8.670016288757324,41.49013137817383,28.27374267578125,-103.23826599121094
0,634618,26.532712936401367,-0.937893807888031,9.035181045532227,-66.931640625
0,634618,-21.886859893798828,-21.37519645690918,0.48127037286758423,-11.039751052856445
0,634618,-37.162139892578125,-4.100418567657471,2.0003774166107178,49.84295654296875
0,634619,17.544021606445312,12.466190338134766,2.141583204269409,102.05668640136719
0,634619,44.447391510009766,9.525568008422852,-13.258532524108887,98.3591079711914
0,634619,-10.674123764038086,-20.130617141723633,-12.426051139831543,76.70539855957031
0,634619,-15.150484085083008,-4.77389669418335,3.7425785064697266,49.139617919921875
0,634619,15.587985038757324,6.939331531524658,-5.526077747344971,-11.88619327545166
0,634619,6.834949970245361,0.1034008041024208,11.71427059173584,-50.01087188720703
0,634620,0.10860870778560638,13.299177169799805,17.240930557250977,-56.13500213623047
0,634620,-14.599661827087402,-4.886918544769287,1.1980414390563965,-27.168729782104492
0,634620,3.785008668899536,-22.722322463989258,-2.963421106338501,26.50670051574707
0,634620,16.540021896362305,-7.017393589019775,-22.016162872314453,44.66730499267578
0,634620,-30.818944931030273,12.953449249267578,-22.96784210205078,-9.988370895385742
0,634620,-27.787561416625977,-6.530960559844971,-11.444559097290039,-30.172224044799805
0,634621,10.028003692626953,-22.580469131469727,-16.128326416015625,18.291688919067383
0,634621,-6.278530120849609,-3.498401641845703,-3.4775476455688477,26.650436401367188
0,634621,-11.50054931640625,11.47716999053955,24.042526245117188,-28.933086395263672
0,634621,12.25765323638916,6.233381271362305,20.32134246826172,-67.0701904296875
0,634621,3.996825933456421,8.286831855773926,3.7556793689727783,-24.766355514526367
0,634621,-16.228696823120117,11.65982723236084,-7.990869998931885,-35.15559768676758
0,634622,-8.284865379333496,-23.912639617919922,-28.368654251098633,-78.06529235839844
0,634622,-3.104153633117676,-29.861038208007812,-3.512564182281494,-34.1385498046875
0,634622,-0.4218161702156067,3.970482587814331,9.094435691833496,-96.10425567626953
0,634622,6.247867584228516,9.143543243408203,-9.759382247924805,-100.3191146850586
0,634622,-8.844271659851074,-0.43230196833610535,-5.548049449920654,96.18071746826172
0,634623,-8.754155158996582,6.281357288360596,18.421916961669922,95.2104263305664
0,634623,15.756129264831543,21.531797409057617,39.537139892578125,12.452217102050781
0,634623,42.42576217651367,14.987743377685547,2.067744255065918,34.98440170288086
0,634623,22.292438507080078,-20.908000946044922,-13.261689186096191,39.19794464111328
0,634623,-13.50251293182373,-4.588045120239258,30.655134201049805,68.87782287597656
0,634623,16.080848693847656,18.588998794555664,25.841358184814453,136.66213989257812
0,634624,30.540632247924805,12.236434936523438,-7.680044651031494,119.13611602783203
0,634624,7.168645858764648,29.96213722229004,-20.88239288330078,22.90031623840332
0,634624,-13.037426948547363,-6.069936275482178,-9.497417449951172,31.22126579284668
0,634624,-10.946267127990723,-32.70466613769531,13.881134033203125,63.45010757446289
0,634624,14.207982063293457,-0.8187084197998047,2.264127731323242,56.59938430786133
0,634624,-0.5833328366279602,17.86344337463379,3.6792855262756348,102.83185577392578
0,634625,-24.589847564697266,12.84105396270752,-6.159553527832031,109.21696472167969
0,634625,-18.84165382385254,-14.125866889953613,-44.39690017700195,64.80094146728516
0,634625,0.5125386118888855,-21.33839988708496,-13.618204116821289,79.8158187866211
0,634625,-6.773387908935547,6.222894191741943,22.616779327392578,33.01941680908203
0,634626,-11.62730884552002,-10.601061820983887,-19.259830474853516,-112.39033508300781
0,634627,11.492855072021484,-8.96945571899414,-28.089223861694336,-256.2626647949219
0,634627,-7.82373571395874,32.44630432128906,17.551170349121094,-262.2286376953125
0,634627,-8.341045379638672,-5.9818525314331055,39.83354187011719,-162.2301788330078
0,634627,9.94335651397705,-22.36248779296875,6.973994731903076,-178.52413940429688
0,634627,3.9900436401367188,-12.876653671264648,-31.856887817382812,-192.70498657226562
0,634628,9.582125663757324,-40.23185348510742,-25.786130905151367,-195.28956604003906
0,634630,24.72830581665039,-44.76072311401367,-84.22480010986328,470.4076843261719
0,634633,-107.84590148925781,-34.615325927734375,-69.3210220336914,871.3867797851562
0,634634,-117.85636138916016,35.79838180541992,117.41907501220703,-83.24296569824219
0,634637,165.09030151367188,143.9987030029297,169.6053466796875,-727.6146850585938
0,634638,107.54195404052734,57.16054916381836,-12.912454605102539,-267.5959777832031
0,634641,-86.12760925292969,-69.48441314697266,-80.60331726074219,384.38287353515625
0,634642,-21.823833465576172,-21.933055877685547,76.26341247558594,202.4486541748047
0,634643,24.753692626953125,4.466283321380615,-14.02895450592041,-68.1906967163086
0,634646,2.3835768699645996,11.217279434204102,-193.5030975341797,-138.58706665039062
0,634647,-49.7353401184082,43.48738098144531,61.775386810302734,-193.33566284179688
0,634650,21.002670288085938,-55.86734390258789,218.06430053710938,185.85853576660156
0,634651,76.7882080078125,-34.23423767089844,1.0740559101104736,365.5431213378906
0,634654,-8.403510093688965,69.80713653564453,-172.84451293945312,80.86236572265625
0,634655,26.431289672851562,-56.61006546020508,-122.43014526367188,-440.11920166015625
0,634658,-62.08226776123047,-45.23627853393555,88.93236541748047,-1150.496826171875
0,634659,-110.32942962646484,22.574174880981445,55.68242645263672,527.2123413085938
0,634662,97.19680786132812,16.533611297607422,-54.53472137451172,1931.6046142578125
0,634663,65.57278442382812,54.27641296386719,45.11634063720703,-597.009765625
0,634666,-44.18580627441406,-28.546527862548828,50.654632568359375,-1003.3775634765625
0,634667,-38.51961898803711,-58.025814056396484,-41.89933395385742,12.375370025634766
0,634670,25.530107498168945,43.15567398071289,3.523620128631592,-124.15886688232422
0,634671,62.518978118896484,11.200889587402344,43.19877624511719,814.1233520507812
0,634820,1.7542420625686646,-28.680973052978516,-7.010951519012451,24.1020450592041
0,634821,2.29068922996521,41.87590026855469,10.53894329071045,-907.4180297851562
0,634821,-38.92359161376953,-14.205236434936523,5.624320983886719,356.8763732910156
0,634821,-59.43566131591797,-30.578746795654297,-13.099021911621094,423.6249694824219
0,634821,7.483086109161377,16.12606430053711,-15.880738258361816,-137.74473571777344
0,634821,5.390583038330078,2.2458410263061523,-15.960683822631836,-6.6123809814453125
0,634821,-36.74995422363281,12.5812406539917,-4.0333333015441895,-71.85260772705078
0,634822,-4.787610054016113,1.0903124809265137,-3.3261001110076904,-126.39098358154297
0,634822,16.479267120361328,23.94651222229004,5.97883939743042,-92.16282653808594
0,634822,-18.837078094482422,20.612457275390625,3.7796947956085205,-29.288057327270508
0,634822,5.521475791931152,-41.99341583251953,-24.857410430908203,38.02747344970703
0,634822,18.1028995513916,-22.20006561279297,-38.75520706176758,96.36583709716797
0,634822,4.822452545166016,16.35451316833496,-17.32542610168457,137.56558227539062
0,634823,32.91237258911133,2.6006920337677,-0.1213272213935852,85.71864318847656
0,634823,33.29011154174805,-9.013138771057129,-7.686131477355957,6.66680908203125
0,634823,-19.95601463317871,-11.588587760925293,1.8205971717834473,-22.0650691986084
0,634823,-4.131114482879639,9.971339225769043,17.990962982177734,-70.07847595214844
0,634823,28.680496215820312,15.724071502685547,-2.670351982116699,-89.15161895751953
0,634824,-9.86616325378418,-4.444488048553467,11.512121200561523,-74.94014739990234
0,634824,-15.883204460144043,-3.403140068054199,10.309020042419434,-41.262489318847656
0,634824,-12.706188201904297,-17.326622009277344,-14.534687042236328,40.83447265625
0,634824,2.4267075061798096,5.892280101776123,13.999349594116211,59.61946105957031
0,634824,14.792797088623047,13.118010520935059,24.66848373413086,38.88002014160156
0,634824,-20.520458221435547,-36.74694061279297,-7.158987998962402,46.080718994140625
0,634825,-10.210009574890137,2.110212564468384,-2.786121129989624,28.571605682373047
0,634825,21.019338607788086,35.897056579589844,17.49574851989746,-10.785658836364746
0,634825,-12.30262565612793,-17.77926254272461,7.103107452392578,-29.96553611755371
0,634825,-22.816944122314453,-5.8118109703063965,27.302845001220703,-42.31390380859375
0,634825,5.7637739181518555,21.82482147216797,26.16065216064453,-51.516666412353516
0,634825,-15.682485580444336,5.439361572265625,-3.6197805404663086,-11.987140655517578
0,634826,0.11936785280704498,15.509199142456055,3.9757802486419678,6.647652626037598
0,634826,16.731521606445312,-12.450538635253906,-10.139305114746094,23.632802963256836
0,634826,-14.75913143157959,-24.802242279052734,-17.53877067565918,36.76961135864258
0,634826,2.8953349590301514,1.3515369892120361,15.073898315429688,9.553609848022461
0,634826,3.690263032913208,-3.687347173690796,6.091019630432129,24.528940200805664
0,634826,3.6852352619171143,15.742728233337402,-9.404454231262207,8.174216270446777
0,634827,21.935426712036133,14.556597709655762,-6.24819803237915,-36.25649642944336
0,634827,-0.9945747256278992,-13.469023704528809,-12.682463645935059,-35.126502990722656
0,634827,8.568336486816406,11.31743049621582,-25.624521255493164,-20.502269744873047
0,634827,9.379061698913574,14.183404922485352,-16.656219482421875,2.6322033405303955
0,634827,-8.769044876098633,-20.80904197692871,15.165990829467773,11.045675277709961
0,634828,22.567930221557617,-9.87358570098877,-11.764347076416016,4.317020416259766
0,634828,-0.6887465715408325,4.690882205963135,-14.013184547424316,29.104705810546875
0,634828,-6.519975662231445,-6.8050432205200195,-12.418006896972656,17.332712173461914
0,634828,29.681020736694336,-18.222410202026367,-16.608243942260742,9.430941581726074
0,634828,-9.28403377532959,-8.744790077209473,27.012481689453125,35.166080474853516
0,634828,-20.5323486328125,13.163193702697754,16.860532760620117,-26.668325424194336
0,634829,5.837392330169678,2.473551034927368,-15.26006031036377,-37.51717758178711
0,634829,-9.987951278686523,3.4531564712524414,2.80326247215271,1.1869823932647705
0,634829,-7.742585182189941,2.565138101577759,28.517946243286133,-25.710132598876953
0,634829,13.104488372802734,-13.227923393249512,-5.2054619789123535,15.094223976135254
0,634829,-8.495375633239746,4.73290491104126,-8.08198356628418,37.04753494262695
0,634829,-19.871225357055664,2.8065619468688965,34.53334045410156,-12.571368217468262
0,634830,-24.317689895629883,10.706681251525879,7.28089714050293,6.783884048461914
0,634830,2.8261260986328125,16.74149513244629,-6.66237211227417,8.55229663848877
0,634830,27.355316162109375,-7.358469009399414,6.12403678894043,-11.49478816986084
0,634830,-10.376537322998047,7.324084281921387,-9.269302368164062,0.3789309561252594
0,634830,-4.976014614105225,10.04936408996582,3.893700122833252,-24.999755859375
0,634830,-2.2917749881744385,-14.955101013183594,-2.766601085662842,-11.91010570526123
0,634831,-4.768427848815918,5.4093756675720215,-5.548571586608887,15.445798873901367
0,634831,23.242502212524414,10.193365097045898,5.92456579208374,-19.76719093322754
0,634831,-6.570917129516602,-37.846458435058594,-3.273286819458008,29.855920791625977
0,634831,-21.023881912231445,0.9304088354110718,2.9939756393432617,44.16677474975586
0,634831,27.78883934020996,42.044132232666016,1.2069331407546997,-59.281742095947266
0,634831,25.728805541992188,-10.904536247253418,-4.511163234710693,-12.662874221801758
0,634832,-10.81344223022461,-13.755496978759766,-22.124242782592773,41.43273162841797
0,634832,-8.87955379486084,-8.14984130859375,-16.400386810302734,-16.91470718383789
0,634832,5.055813312530518,-13.435513496398926,37.22665786743164,-9.664743423461914
0,634832,9.89459228515625,28.13275909423828,15.714447021484375,7.811515808105469
0,634832,-20.936573028564453,-5.027889728546143,-28.29694366455078,-0.5815579891204834
0,634832,-21.853425979614258,-24.46544075012207,-7.8496317863464355,-20.139190673828125
0,634833,18.247831344604492,17.67560577392578,-15.24223804473877,-17.309144973754883
0,634833,2.2245535850524902,-7.250147819519043,12.18690299987793,25.866962432861328
0,634833,-19.12529945373535,-16.376972198486328,28.966054916381836,15.418150901794434
0,634834,-13.74915599822998,16.583200454711914,-30.51117706298828,-16.217655181884766
0,634834,14.142498970031738,21.926054000854492,-19.098814010620117,14.737072944641113
0,634835,12.1480712890625,-11.857169151306152,11.620399475097656,20.12013053894043
0,634835,-11.149415016174316,-4.232983589172363,1.016187071800232,-24.39974021911621
0,634835,18.609561920166016,23.07221221923828,8.404666900634766,-12.036267280578613
0,634835,25.24383544921875,-2.3952293395996094,3.191089153289795,9.013802528381348
0,634835,-12.74648380279541,-7.613842010498047,-5.39420223236084,-12.893608093261719
0,634837,-39.69546890258789,8.663430213928223,13.737478256225586,14.260372161865234
0,634838,8.234228134155273,2.8125176429748535,-20.266786575317383,44.63335418701172
0,634841,23.934370040893555,-4.5715250968933105,-0.6374893188476562,-14.800098419189453
0,634842,-38.28448486328125,-2.678431749343872,47.73539352416992,-33.34993362426758
0,634845,4.160024642944336,-18.632579803466797,-25.348556518554688,1.4734151363372803
0,634846,66.1894302368164,-24.694002151489258,-20.820119857788086,20.309951782226562
0,634849,-16.487693786621094,0.6737397909164429,19.770992279052734,-15.13708782196045
0,634850,-51.887325286865234,12.628600120544434,-7.447587013244629,-44.667381286621094
0,634853,37.49449157714844,12.072653770446777,-3.5985465049743652,43.91195297241211
0,634854,33.439064025878906,16.2042179107666,4.565260887145996,32.384700775146484
0,634857,-37.65825653076172,-6.271853923797607,-2.602741241455078,-31.030576705932617
0,634858,-23.128215789794922,-9.420620918273926,4.578383445739746,-37.166015625
0,634859,31.137161254882812,6.091995716094971,12.733777046203613,-2.164226531982422
0,634862,3.365858793258667,4.581905364990234,-3.5409319400787354,69.004638671875
0,634863,-18.512727737426758,18.901304244995117,0.511322021484375,10.250839233398438
0,634866,13.830220222473145,-18.716533660888672,-7.944568634033203,-53.72826385498047
0,634867,7.823113441467285,-20.41632652282715,-25.416898727416992,-21.10150718688965
0,634870,-11.737805366516113,-11.279282569885254,4.968547821044922,29.33915138244629
0,634871,-14.055673599243164,-19.525291442871094,8.277849197387695,33.7564697265625
0,634874,-10.570388793945312,20.560749053955078,-1.950084924697876,-9.714533805847168
0,634875,18.978118896484375,30.051273345947266,13.14598274230957,-7.70763635635376
0,634878,1.3138654232025146,12.622258186340332,14.003435134887695,6.516122341156006
0,634879,-27.363128662109375,-14.491207122802734,3.0175108909606934,-5.9264678955078125
0,634882,27.700822830200195,12.465786933898926,8.986335754394531,-15.301980972290039
0,634884,8.463431358337402,-11.711932182312012,-10.58402156829834,18.581159591674805
0,635043,-13.545629501342773,-26.025135040283203,-80.16458892822266,16.982196807861328
0,635043,-2.3631179332733154,39.48817825317383,-19.907224655151367,-38.97098159790039
0,635043,-30.79395866394043,21.83099937438965,78.43975067138672,-1.4447520971298218
0,635043,10.547127723693848,-37.06891632080078,18.03860092163086,11.357460021972656
0,635043,23.05516242980957,-31.55061912536621,-12.892593383789062,3.9272570610046387
0,635043,-10.599949836730957,21.437583923339844,11.772650718688965,12.427393913269043
0,635044,16.558971405029297,30.924274444580078,6.490701198577881,3.0117745399475098
0,635044,3.9659368991851807,-6.308993816375732,-6.149593830108643,5.717829704284668
0,635044,-15.537439346313477,-43.24052047729492,1.2987000942230225,-5.894595146179199
0,635044,-2.4017081260681152,0.17797766625881195,1.3648030757904053,8.90363883972168
0,635044,-13.030709266662598,43.041866302490234,-3.2152926921844482,6.156789302825928
0,635044,7.349346160888672,1.366515040397644,20.4078311920166,-0.9059482216835022
0,635045,15.867548942565918,-7.997823715209961,1.2300041913986206,12.971940040588379
0,635045,9.125208854675293,-4.222396373748779,-31.590065002441406,-7.548945903778076
0,635045,3.230156183242798,-25.184955596923828,-9.425786018371582,-15.667387008666992
0,635045,-10.853974342346191,6.013329029083252,6.732876300811768,-16.16468048095703
0,635045,-0.7691037058830261,19.871719360351562,-29.12078857421875,-28.213592529296875
0,635045,-0.6181591749191284,-21.806148529052734,-3.601081132888794,-18.623497009277344
0,635046,13.73571491241455,-18.613201141357422,29.864879608154297,-7.043160915374756
0,635046,26.901920318603516,0.4417404532432556,4.205560684204102,7.329190731048584
0,635046,-28.455673217773438,19.509923934936523,11.984477043151855,-4.490307807922363
0,635046,-22.984203338623047,33.31185531616211,13.579002380371094,-18.477346420288086
0,635046,35.01939010620117,-11.586682319641113,-8.158477783203125,-11.917695045471191
0,635047,2.7475287914276123,-33.22710037231445,-30.388916015625,-7.387314319610596
0,635047,-31.281787872314453,8.026458740234375,-4.547207355499268,24.124433517456055
0,635047,-1.55996572971344,6.533492565155029,15.234721183776855,24.614002227783203
0,635047,30.208114624023438,-11.76598072052002,-4.192148685455322,-10.439730644226074
0,635047,-0.321340411901474,27.41234588623047,-8.15791130065918,11.282983779907227
0,635047,-35.47739791870117,18.432575225830078,-7.098939895629883,26.23346519470215
0,635048,-4.83215856552124,-32.76793670654297,9.784953117370605,6.022475242614746
0,635048,24.9161434173584,-7.210541248321533,14.054356575012207,10.110841751098633
0,635048,-9.888864517211914,32.27182388305664,9.135506629943848,1.6950602531433105
0,635048,-13.336636543273926,16.67160415649414,-9.242753982543945,2.034249782562256
0,635048,21.59183692932129,-23.7777156829834,-13.89780044555664,-1.457314133644104
0,635048,-15.232400894165039,-17.230960845947266,9.163839340209961,-15.220809936523438
0,635049,-14.10367488861084,23.43470001220703,12.255364418029785,9.132345199584961
0,635049,29.764617919921875,-12.92298412322998,-3.7782387733459473,20.489282608032227
0,635049,4.977659225463867,-27.35247039794922,-22.018768310546875,-4.682839870452881
0,635049,-10.844139099121094,14.330941200256348,0.30424031615257263,-15.829497337341309
0,635049,-2.045879602432251,13.487788200378418,34.058746337890625,3.5950632095336914
0,635049,-4.672054767608643,-15.707071304321289,21.289045333862305,-1.1948336362838745
0,635050,4.404481410980225,-6.388611793518066,-11.34158992767334,-22.632455825805664
0,635050,-4.970499038696289,15.207630157470703,-29.672836303710938,-4.558045387268066
0,635050,-6.765430927276611,-4.7476654052734375,-8.602348327636719,13.993634223937988
0,635050,23.008100509643555,3.6271767616271973,5.2952117919921875,-0.6602593660354614
0,635050,11.352757453918457,14.516128540039062,4.066964626312256,9.72342300415039
0,635050,-19.438467025756836,-8.610676765441895,18.53097915649414,-1.540881633758545
0,635051,-12.737195014953613,-23.67444610595703,-11.795329093933105,-11.751996040344238
0,635051,-12.306323051452637,-0.7720892429351807,-6.733587741851807,36.513519287109375
0,635051,5.503279209136963,32.795536041259766,24.110013961791992,-17.081466674804688
0,635051,34.59410095214844,18.483381271362305,-7.220266342163086,-56.861270904541016
0,635051,2.565814971923828,-26.34820556640625,-15.333192825317383,30.668298721313477
0,635051,-29.089353561401367,-5.891392230987549,4.337118148803711,26.97130012512207
0,635052,-7.545797824859619,30.11514663696289,13.891539573669434,-6.118782043457031
0,635052,31.711767196655273,-14.140674591064453,2.1549034118652344,-1.6242899894714355
0,635052,7.089024066925049,-17.1696834564209,-6.251832962036133,2.7365529537200928
0,635052,-23.085186004638672,40.212764739990234,-26.651830673217773,-2.5131070613861084
0,635052,22.016157150268555,9.761924743652344,-19.504138946533203,-21.812952041625977
0,635053,9.299111366271973,-40.53239440917969,18.336101531982422,19.920984268188477
0,635053,-43.4497184753418,-21.000566482543945,1.1534957885742188,7.84599494934082
0,635053,-1.032839298248291,3.5902392864227295,6.279613018035889,-42.32815933227539
0,635053,15.910378456115723,-2.1056835651397705,6.057220458984375,14.592884063720703
0,635053,-37.44482421875,-10.40817928314209,-16.902727127075195,36.97271728515625
0,635053,-3.2549564838409424,14.884008407592773,1.0963575839996338,-27.019451141357422
0,635053,35.31053161621094,18.456012725830078,26.488277435302734,-9.8402099609375
0,635054,7.489470958709717,-2.444244384765625,1.0558327436447144,10.449390411376953
0,635054,-7.1956400871276855,-14.99323558807373,-25.3614444732666,-15.869418144226074
0,635054,-1.8433022499084473,-1.9031665325164795,23.677173614501953,22.211822509765625
0,635054,8.825949668884277,21.4898681640625,9.047613143920898,17.072568893432617
0,635054,-4.085681438446045,18.25731086730957,-29.14551544189453,-31.23855209350586
0,635054,0.06894132494926453,-9.4505033493042,25.23101043701172,9.261687278747559
0,635055,5.906032562255859,-8.589842796325684,0.7118819355964661,32.30577087402344
0,635055,-4.626025676727295,16.92864418029785,-21.229711532592773,-18.216054916381836
0,635055,9.610517501831055,-5.83209228515625,31.619958877563477,-20.68480110168457
0,635055,-8.913328170776367,-14.99029541015625,-0.3939913213253021,15.087567329406738
0,635055,-2.9930472373962402,-2.7445743083953857,-22.56597900390625,3.603778839111328
0,635056,11.548104286193848,-6.673245906829834,-0.5099442005157471,-16.903759002685547
0,635056,-24.20561408996582,-16.86931800842285,-5.083798408508301,7.877544403076172
0,635056,-6.425595760345459,-1.0877763032913208,4.223819732666016,1.957952618598938
0,635057,31.88467788696289,27.45444107055664,0.6123844385147095,-4.726975440979004
0,635057,3.629746437072754,9.690316200256348,-15.456474304199219,17.79580307006836
0,635057,-25.910097122192383,-20.30574607849121,0.5285041332244873,-17.176645278930664
0,635058,7.973139762878418,-21.5563907623291,-2.371354579925537,-4.092617988586426
0,635058,6.633514881134033,2.4974191188812256,7.796078205108643,34.418025970458984
0,635058,-12.310688972473145,23.845172882080078,26.375999450683594,4.441827774047852
0,635058,8.425835609436035,11.508347511291504,-14.693761825561523,-24.931257247924805
0,635059,0.28715094923973083,-23.29768180847168,-28.31608772277832,-27.529964447021484
0,635060,-10.496552467346191,-12.422868728637695,8.026371955871582,4.007192611694336
0,635062,-6.189927577972412,30.110122680664062,15.525895118713379,23.785701751708984
0,635064,15.498995780944824,8.144826889038086,-7.683932304382324,4.619192600250244
0,635066,21.671306610107422,-25.223403930664062,-15.554556846618652,-17.727724075317383
0,635068,-17.450237274169922,-8.582343101501465,-4.389951705932617,-4.6630659103393555
0,635070,-12.773582458496094,9.690168380737305,17.901254653930664,-32.073360443115234
0,635072,23.535985946655273,16.422103881835938,26.16714096069336,-12.622150421142578
0,635074,8.700347900390625,-17.25272560119629,-14.311312675476074,80.10466003417969
0,635076,-11.016676902770996,-16.63654899597168,-11.381027221679688,20.31618309020996
0,635078,-6.662322044372559,34.140262603759766,17.26999282836914,-35.36250305175781
0,635080,-6.419220447540283,4.9779582023620605,2.7792818546295166,-15.472389221191406
0,635082,-8.212925910949707,0.6159055829048157,15.824585914611816,6.178197860717773
0,635084,0.46220663189888,24.685752868652344,7.9569196701049805,23.543014526367188
0,635086,-2.534372091293335,-34.43418502807617,-32.309295654296875,-27.422439575195312
0,635088,1.6251020431518555,-31.062519073486328,-26.09864616394043,-30.021873474121094
0,635090,19.81452178955078,27.578832626342773,3.0266480445861816,10.529394149780273
0,635092,-9.884079933166504,-3.242671489715576,20.40850830078125,8.63290786743164
0,635094,-5.605821132659912,-16.22150230407715,9.609468460083008,8.185493469238281
0,635096,0.17777016758918762,37.979068756103516,-2.236929178237915,2.2749695777893066
0,635098,-9.417040824890137,25.107955932617188,-9.219959259033203,-3.4620001316070557
0,635100,20.94858741760254,-21.900386810302734,-12.38869857788086,7.06240701675415
0,635102,3.063511371612549,-25.568710327148438,15.82097053527832,-7.207247734069824
0,635104,-8.291254043579102,-11.099092483520508,8.47193717956543,10.107613563537598
0,635106,-1.9299181699752808,4.511809825897217,-14.797628402709961,18.799711227416992
0,635108,-13.039316177368164,-10.111485481262207,-0.5333250164985657,-20.89125633239746
0,635276,9.627110481262207,5.336781978607178,16.55124855041504,-0.5139116048812866
0,635276,19.496593475341797,44.5743408203125,-2.193915605545044,-10.613218307495117
0,635277,-12.473414421081543,2.2542028427124023,-19.873899459838867,-27.87222671508789
0,635277,-6.712453842163086,-32.034488677978516,14.253268241882324,24.970256805419922
0,635277,12.847691535949707,-9.47059154510498,19.757625579833984,7.275546550750732
0,635277,1.7780343294143677,14.384209632873535,-19.57413673400879,-28.837894439697266
0,635277,-6.794026851654053,5.293389797210693,-2.187954902648926,22.631858825683594
0,635277,-6.260101795196533,-7.612760543823242,22.159767150878906,22.916671752929688
0,635278,15.068450927734375,15.134127616882324,-5.9211626052856445,-2.5436792373657227
0,635278,-12.745574951171875,12.115952491760254,1.16904878616333,25.85869026184082
0,635278,-27.79973602294922,-2.0178866386413574,8.408857345581055,-5.482159614562988
0,635278,22.944393157958984,-17.081586837768555,-27.752511978149414,-21.26997184753418
0,635278,-11.334673881530762,-42.531333923339844,-11.965261459350586,4.515698432922363
0,635279,-35.731353759765625,-14.012054443359375,8.70408821105957,4.28231954574585
0,635279,22.76384162902832,22.729415893554688,-18.048917770385742,5.537359237670898
0,635279,38.390586853027344,4.939239501953125,-1.6888936758041382,-12.939310073852539
0,635279,7.16745138168335,13.127632141113281,38.8787956237793,-17.85574722290039
0,635279,-14.063919067382812,23.957551956176758,0.15125694870948792,7.289711952209473
0,635279,-5.257661819458008,-11.960929870605469,-27.966140747070312,14.095386505126953
0,635280,13.860159873962402,-6.9259138107299805,22.46138572692871,-0.09575685858726501
0,635280,9.08111572265625,11.487889289855957,2.7013609409332275,-0.34440457820892334
0,635280,-6.290989398956299,6.054440498352051,-12.840913772583008,9.363219261169434
0,635280,8.576998710632324,-3.157238006591797,14.442903518676758,-28.7176513671875
0,635280,4.174982070922852,-11.665900230407715,-25.335962295532227,-32.66654586791992
0,635280,-25.72960662841797,-11.876117706298828,-19.791406631469727,35.4117431640625
0,635281,-6.827647686004639,-2.770834445953369,40.877891540527344,16.52843475341797
0,635281,5.078170299530029,17.540283203125,0.5541355013847351,-22.699115753173828
0,635281,-0.8518986105918884,-7.9693474769592285,-39.73723220825195,11.355879783630371
0,635281,-2.953937530517578,-25.715980529785156,15.729069709777832,19.794084548950195
0,635281,-9.125883102416992,23.950899124145508,29.429306030273438,-4.2870893478393555
0,635281,21.1350154876709,20.528589248657227,-9.543525695800781,-18.381248474121094
0,635282,-1.5502521991729736,-13.98469352722168,-6.646650314331055,-1.8708332777023315
0,635282,-26.591747283935547,3.6996994018554688,7.963113307952881,13.313379287719727
0,635282,26.217702865600586,-12.944795608520508,-18.598651885986328,12.098876953125
0,635282,10.24571704864502,-13.806706428527832,1.128968596458435,-8.374244689941406
0,635282,-13.895888328552246,23.455257415771484,10.527917861938477,-22.30936050415039
0,635282,13.192047119140625,-3.001816511154175,-9.9549560546875,8.8745756149292
0,635283,-10.563952445983887,-12.877445220947266,23.790016174316406,5.77665376663208
0,635283,-13.39714241027832,15.598313331604004,-7.6223015785217285,-4.543220520019531
0,635283,-0.5771772265434265,14.619312286376953,-13.64162540435791,4.679665565490723
0,635283,2.60227632522583,-3.8907487392425537,32.312862396240234,-6.828664302825928
0,635283,22.253257751464844,-2.9084413051605225,-10.044708251953125,-5.951681613922119
0,635284,6.238382816314697,2.5002009868621826,-21.753971099853516,11.9193115234375
0,635284,-33.256752014160156,-6.844978332519531,8.06201457977295,11.993661880493164
0,635284,-12.323745727539062,-1.0524479150772095,-1.4277524948120117,-37.8913688659668
0,635284,34.059234619140625,12.588178634643555,-8.472418785095215,-21.493106842041016
0,635284,-2.8257980346679688,-15.728906631469727,-9.671966552734375,40.301387786865234
0,635284,-9.975860595703125,-22.679946899414062,-5.978511333465576,23.861312866210938
0,635285,11.501012802124023,27.208389282226562,15.159839630126953,-18.1812686920166
0,635285,2.2321629524230957,7.710968017578125,3.5075926780700684,-43.49702072143555
0,635285,-8.411689758300781,-23.264453887939453,-8.495083808898926,12.872833251953125
0,635285,-17.858476638793945,-0.042755044996738434,7.3374924659729,38.349700927734375
0,635285,4.017077445983887,1.9411115646362305,6.675766944885254,-31.081817626953125
0,635285,-0.1519123762845993,-3.2187750339508057,9.619620323181152,-10.187128067016602
0,635286,3.6968555450439453,1.1131362915039062,-2.872331142425537,15.638989448547363
0,635286,3.439152240753174,-5.636336326599121,-20.245010375976562,-9.144208908081055
0,635286,-3.961089611053467,10.888392448425293,8.961149215698242,4.010798454284668
0,635286,21.52784538269043,15.849018096923828,20.97511863708496,-0.1357574611902237
0,635286,-9.575908660888672,-25.092870712280273,-11.334869384765625,-2.998316526412964
0,635286,-19.347919464111328,-17.756261825561523,-14.881720542907715,11.241703987121582
0,635287,3.335193157196045,16.492008209228516,-2.6042795181274414,-16.926132202148438
0,635287,-5.8820576667785645,15.633516311645508,-2.4514400959014893,8.564855575561523
0,635287,19.68116569519043,0.7779369354248047,16.563840866088867,48.331241607666016
0,635287,18.953279495239258,-13.050432205200195,5.252474784851074,-2.8561851978302
0,635287,-11.244634628295898,19.073747634887695,-12.905119895935059,-16.0406551361084
0,635287,3.9430370330810547,24.703968048095703,2.23043155670166,-19.616397857666016
0,635288,2.9925506114959717,-32.278564453125,3.2515711784362793,5.612960338592529
0,635288,-16.273515701293945,-18.426631927490234,12.010587692260742,38.190738677978516
0,635288,7.561450481414795,13.173925399780273,-4.924450397491455,-17.569671630859375
0,635288,14.449823379516602,2.8489503860473633,1.5835294723510742,-13.043325424194336
0,635288,-12.010424613952637,19.410064697265625,8.218742370605469,12.981929779052734
0,635288,-7.206751823425293,-0.19227823615074158,-18.68061065673828,-14.711179733276367
0,635289,8.42699909210205,-22.629003524780273,8.09435749053955,4.403314113616943
0,635289,12.141610145568848,16.652637481689453,0.8747636675834656,13.203889846801758
0,635289,-10.773331642150879,-6.3345489501953125,-4.138673305511475,0.2226860225200653
0,635289,-12.268233299255371,-11.70335865020752,14.23753833770752,4.567497730255127
0,635289,-4.110429286956787,27.563220977783203,-13.916936874389648,-7.5293989181518555
0,635289,-4.251805782318115,-7.695199966430664,-8.493213653564453,-10.22309398651123
0,635290,2.537064790725708,-9.615897178649902,5.991556644439697,-4.369771957397461
0,635290,-7.53824520111084,2.7679624557495117,-12.233138084411621,1.393110752105713
0,635290,5.074295520782471,-20.59848976135254,8.518651962280273,5.28542423248291
0,635290,6.365167617797852,3.5623133182525635,3.2908904552459717,4.205490589141846
0,635290,-0.5727517604827881,14.595263481140137,-12.453743934631348,-2.7904446125030518
0,635290,-13.957610130310059,-12.389123916625977,7.410158634185791,19.927370071411133
0,635292,-3.905097723007202,-6.785391807556152,4.850156307220459,-6.869645118713379
0,635292,22.85236167907715,18.19341468811035,6.596259593963623,-46.59018325805664
0,635292,2.080533027648926,-2.065516471862793,1.7451870441436768,0.5514369010925293
0,635292,-1.1690239906311035,-0.18969407677650452,-16.71734619140625,3.23309063911438
0,635292,-3.044306755065918,17.982820510864258,-9.638525009155273,10.659903526306152
0,635293,-0.2752695381641388,-17.184236526489258,14.422994613647461,28.66360092163086
0,635293,12.384539604187012,-3.8444416522979736,14.648154258728027,-16.596742630004883
0,635293,1.7960435152053833,-0.997020959854126,-21.180301666259766,-37.35799026489258
0,635294,-15.951887130737305,-9.686275482177734,-8.898276329040527,18.221933364868164
0,635296,-10.699052810668945,24.843442916870117,31.62257194519043,22.5377254486084
0,635298,-2.453697919845581,-0.3636312782764435,26.217939376831055,-11.427931785583496
0,635300,-4.305306911468506,-8.485125541687012,1.1507235765457153,6.51544189453125
0,635302,-0.4708445072174072,16.092580795288086,-37.06448745727539,-30.8769474029541
0,635304,0.8195077776908875,-6.141016960144043,-8.361791610717773,-0.826282262802124
0,635306,23.67171859741211,-10.38293743133545,15.222606658935547,35.56201171875
0,635308,9.918895721435547,-16.341623306274414,-20.68474769592285,-8.250032424926758
0,635310,-5.748239517211914,-12.064489364624023,-4.559114933013916,15.911093711853027
0,635312,5.563503742218018,42.15195846557617,26.66206169128418,0.3202531933784485
0,635314,-4.857151508331299,12.786614418029785,11.746317863464355,-1.2331702709197998
0,635316,0.18506167829036713,-24.2048282623291,-11.389155387878418,34.021324157714844
0,635318,-16.337543487548828,4.818775177001953,-9.430618286132812,3.1172730922698975
0,635320,-10.80087661743164,4.564834117889404,-6.268148899078369,-41.271549224853516
0,635323,23.39844512939453,-3.831496000289917,-4.0076775550842285,-35.595237731933594
0,635324,-1.4472469091415405,-24.459253311157227,6.2654218673706055,15.250504493713379
0,635327,-0.313457190990448,0.6872435212135315,2.2590675354003906,17.72693634033203
0,635328,-5.009738922119141,22.578168869018555,-10.188193321228027,-2.615868330001831
0,635331,-0.3096312880516052,-24.259920120239258,-4.499007225036621,-20.039066314697266
0,635332,12.173765182495117,-1.9601284265518188,10.232525825500488,-17.894609451293945
0,635335,-23.782705307006836,13.61754035949707,-3.27642822265625,32.1113395690918
0,635336,-3.968735694885254,-13.835920333862305,0.6014549732208252,12.705060958862305
0,635337,18.716094970703125,21.302160263061523,20.714733123779297,-35.39445114135742
0,635340,17.685483932495117,16.900760650634766,-10.597373008728027,22.694873809814453
0,635341,0.6171838641166687,-3.715836524963379,0.029089218005537987,35.27044677734375
0,635344,-27.704696655273438,-9.508670806884766,-2.640371322631836,-25.462017059326172
0,635521,-9.287627220153809,-29.159053802490234,-6.702300071716309,-41.72311019897461
0,635521,5.641506195068359,15.106751441955566,43.4704475402832,-30.83803367614746
0,635522,0.07019472867250443,28.297330856323242,7.326550006866455,-8.14525032043457
0,635522,18.92824363708496,1.0780078172683716,-34.394874572753906,12.836828231811523
0,635522,4.5810441970825195,-4.073401927947998,-6.439321517944336,4.134468078613281
0,635522,-22.753725051879883,-2.3054161071777344,11.201615333557129,-12.771193504333496
0,635522,6.015781879425049,4.112197399139404,-21.01082420349121,33.2022590637207
0,635522,8.617975234985352,-22.206804275512695,-21.792518615722656,34.14738082885742
0,635523,-7.600088596343994,-6.543447494506836,28.971521377563477,-11.925254821777344
0,635523,10.337494850158691,15.280877113342285,10.414007186889648,19.22591781616211
0,635523,-9.86328411102295,-5.992281436920166,-22.761545181274414,31.52117919921875
0,635523,-27.9864444732666,-4.555247783660889,15.223673820495605,10.404093742370605
0,635523,22.179834365844727,6.790521621704102,11.282065391540527,9.06898021697998
0,635523,28.938291549682617,-0.4180740714073181,-31.292888641357422,2.670008897781372
0,635524,-14.428215980529785,-19.593353271484375,-23.577686309814453,3.153642416000366
0,635524,-12.782831192016602,11.972474098205566,11.521098136901855,-3.583298683166504
0,635524,7.911244869232178,6.312434196472168,30.726659774780273,-19.66655921936035
0,635524,-2.4544665813446045,-22.359817504882812,3.518697500228882,1.3372446298599243
0,635524,9.807059288024902,9.995991706848145,-11.99600887298584,16.146759033203125
0,635524,20.015718460083008,10.71798038482666,-2.8122947216033936,-7.660271644592285
0,635525,-12.615114212036133,-0.4520743489265442,-7.406538486480713,-4.540153980255127
0,635525,-24.314237594604492,-5.032571315765381,15.46358871459961,3.9856014251708984
0,635525,-11.50322151184082,-9.20837116241455,25.103261947631836,-10.288695335388184
0,635525,26.267728805541992,10.637447357177734,-14.13331127166748,-22.305315017700195
0,635525,11.560979843139648,23.45126724243164,-20.277456283569336,-27.465076446533203
0,635525,-24.952041625976562,-21.9344539642334,0.07011274993419647,-4.112409591674805
0,635526,-2.8324692249298096,-35.545555114746094,11.585528373718262,-4.285182476043701
0,635526,7.756703853607178,20.913095474243164,-6.011231899261475,-31.87636375427246
0,635526,-5.086461067199707,8.072468757629395,-9.80197811126709,11.706047058105469
0,635526,-7.933454513549805,-6.876378536224365,20.899410247802734,34.02669906616211
0,635526,11.526424407958984,25.622713088989258,16.499696731567383,8.084104537963867
0,635527,3.784600257873535,9.781448364257812,-6.109549045562744,-7.022929668426514
0,635527,-4.26016902923584,-11.82294750213623,-23.878786087036133,-22.208168029785156
0,635527,13.749368667602539,6.069131374359131,-2.1218349933624268,-7.531614303588867
0,635527,2.911783456802368,-15.833372116088867,8.713520050048828,15.020271301269531
0,635527,-9.685545921325684,-3.0231854915618896,-3.5655131340026855,25.129575729370117
0,635527,-11.49062728881836,31.49260139465332,14.123997688293457,7.940749645233154
0,635528,8.003974914550781,-3.5620288848876953,-2.989509105682373,-14.64298152923584
0,635528,27.76150131225586,-13.459342002868652,-6.158138751983643,-15.760476112365723
0,635528,-10.861947059631348,-13.043099403381348,17.094160079956055,4.211900234222412
0,635528,-21.848098754882812,18.435949325561523,-4.423952102661133,11.40942096710205
0,635528,11.000832557678223,11.464526176452637,-23.12688636779785,1.3957504034042358
0,635528,-3.0472054481506348,-21.64415740966797,2.3232576847076416,3.032048225402832
0,635529,-11.390466690063477,5.20319128036499,20.88838768005371,1.5255402326583862
0,635529,8.22799301147461,-16.955875396728516,-7.507247447967529,-4.911823272705078
0,635529,-9.195029258728027,-0.545968770980835,2.010749101638794,-20.0062255859375
0,635529,13.078322410583496,20.391475677490234,8.385398864746094,5.071773529052734
0,635529,9.234458923339844,-14.733442306518555,-22.405569076538086,36.46697235107422
0,635529,-31.75838851928711,-1.0664165019989014,0.7693922519683838,-7.446059226989746
0,635530,14.200474739074707,-1.3063520193099976,0.4510946273803711,-30.284523010253906
0,635530,13.47884750366211,-9.378406524658203,-24.750160217285156,6.916750907897949
0,635530,-21.906902313232422,-3.831512451171875,6.138801574707031,27.480127334594727
0,635530,-1.5428675413131714,-5.337900161743164,20.65660858154297,-8.670812606811523
0,635530,18.046661376953125,12.941686630249023,-15.021130561828613,-23.021015167236328
0,635530,3.1588728427886963,-5.241396427154541,-4.600411415100098,8.620035171508789
0,635531,-23.938232421875,-15.454307556152344,23.36240005493164,14.16579818725586
0,635531,0.6416409611701965,24.147079467773438,7.619097709655762,-4.416154384613037
0,635531,21.202680587768555,2.8996243476867676,-6.462304592132568,-19.888628005981445
0,635531,-15.354644775390625,-4.628507614135742,-11.339690208435059,1.7414246797561646
0,635531,8.348481178283691,28.11355972290039,-0.23494575917720795,5.943113803863525
0,635531,30.094173431396484,0.3163937032222748,6.15273380279541,12.422009468078613
0,635532,-24.864099502563477,-8.456165313720703,9.772730827331543,14.419184684753418
0,635532,-22.778745651245117,4.348700523376465,14.708149909973145,-10.01163387298584
0,635532,29.977937698364258,-6.883028984069824,10.053244590759277,20.955760955810547
0,635532,20.60462188720703,9.987485885620117,-4.667010307312012,17.639827728271484
0,635532,-22.875329971313477,3.256382942199707,-25.167577743530273,-31.180770874023438
0,635532,-7.152210712432861,-14.97634220123291,4.431435585021973,-11.140254020690918
0,635533,13.15776538848877,8.444737434387207,14.362815856933594,8.547228813171387
0,635533,-2.935690402984619,-3.118736982345581,-12.7907075881958,-14.598135948181152
0,635533,-16.669965744018555,-19.925636291503906,-9.363347053527832,-5.896279335021973
0,635533,-8.39157485961914,-6.209147930145264,-10.660560607910156,4.707010746002197
0,635533,16.153779983520508,16.2952823638916,7.0518293380737305,-19.477787017822266
0,635533,-4.333248138427734,-2.2677927017211914,4.610428810119629,-4.435184955596924
0,635534,-21.23244857788086,-21.06321144104004,-13.440380096435547,29.861732482910156
0,635534,23.504135131835938,6.9932942390441895,6.128485202789307,-1.827781319618225
0,635534,7.900557518005371,4.015396595001221,-4.777865409851074,-10.210078239440918
0,635534,-21.858476638793945,1.8272610902786255,0.6613696813583374,19.942861557006836
0,635534,16.967031478881836,-0.660362720489502,15.335921287536621,-1.1690599918365479
0,635535,-6.155416488647461,-7.110638618469238,-4.9480061531066895,-0.6463202834129333
0,635535,-21.450862884521484,12.625558853149414,8.593236923217773,8.759180068969727
0,635535,31.945241928100586,26.39405059814453,11.978240013122559,-21.47218132019043
0,635535,4.626983642578125,2.595801830291748,-5.579398155212402,-6.379626274108887
0,635535,-31.56835174560547,-16.835477828979492,-11.693512916564941,22.19231605529785
0,635535,8.781716346740723,10.295040130615234,-3.2539830207824707,6.230344772338867
0,635535,15.617511749267578,-0.6659936308860779,2.5433831214904785,-14.225030899047852
0,635536,-0.8820052146911621,-11.50405216217041,-0.8863188028335571,-16.824729919433594
0,635536,2.9454269409179688,1.2390307188034058,5.525967121124268,-14.881669044494629
0,635536,-10.37139892578125,-19.40005874633789,-15.946782112121582,16.362960815429688
0,635536,-23.757648468017578,-3.519098997116089,10.604820251464844,20.332462310791016
0,635537,13.021515846252441,13.882789611816406,31.262544631958008,2.2722349166870117
0,635538,32.96250915527344,9.651485443115234,-24.758441925048828,9.464144706726074
0,635538,-11.337708473205566,4.634984970092773,-17.924747467041016,2.038184404373169
0,635538,-24.712902069091797,-12.584356307983398,28.815092086791992,-5.64743709564209
0,635538,14.405818939208984,5.638376235961914,12.351853370666504,-17.093908309936523
0,635538,28.195735931396484,12.401155471801758,-21.665176391601562,-17.79300308227539
0,635538,-10.734024047851562,-27.96906852722168,-14.009469985961914,10.195635795593262
0,635539,-16.350217819213867,0.9555997252464294,12.35830020904541,17.507362365722656
0,635540,-13.232477188110352,34.038421630859375,-8.992756843566895,-6.0977559089660645
0,635541,-4.8120012283325195,-22.693153381347656,-22.53871726989746,-10.40762710571289
0,635544,50.8052864074707,-31.806896209716797,10.713211059570312,-18.927549362182617
0,635545,9.340218544006348,7.609894275665283,1.740816354751587,-3.234539031982422
0,635548,-42.58617401123047,16.56747055053711,-11.463830947875977,15.80380630493164
0,635549,-4.072585105895996,-14.016895294189453,-0.06757326424121857,-18.88675880432129
0,635552,18.609899520874023,2.0059971809387207,21.451231002807617,44.33835220336914
0,635553,5.503556728363037,25.079254150390625,20.267553329467773,67.01151275634766
0,635556,-27.826007843017578,1.8807623386383057,-22.78561019897461,-91.70044708251953
0,635557,-17.178163528442383,5.032581806182861,-4.603070259094238,-43.22057342529297
0,635560,26.401935577392578,5.290669918060303,23.56041717529297,73.48908996582031
0,635561,13.249466896057129,5.895780563354492,11.445025444030762,-18.121055603027344
0,635564,-16.76466178894043,-38.24110412597656,-11.468021392822266,-16.334928512573242
0,635566,18.141353607177734,-32.103092193603516,-33.67839050292969,39.01565933227539
0,635568,12.844818115234375,17.25639533996582,2.76094651222229,-3.0936527252197266
0,635570,-41.248165130615234,5.7593302726745605,-1.4284946918487549,-46.586326599121094
0,635572,-0.3741682767868042,19.31745147705078,13.8319673538208,-14.160786628723145
0,635574,25.159442901611328,8.629178047180176,25.363807678222656,34.8013801574707
0,635576,-0.9298760890960693,23.31216049194336,-0.2853015661239624,18.451784133911133
0,635578,-17.620498657226562,24.54861068725586,10.454267501831055,-4.122400760650635
0,635580,-16.501497268676758,-34.976749420166016,-16.95769691467285,-2.488555908203125
0,635582,16.90459632873535,-12.568082809448242,1.7549962997436523,-0.8836744427680969
0,635584,24.306596755981445,-9.276286125183105,-9.112876892089844,13.228072166442871
0,635586,-4.755046367645264,-13.290238380432129,-12.005914688110352,0.42471417784690857
0,635588,-37.20894241333008,2.8986918926239014,20.851194381713867,-43.57790756225586
0,635590,15.213235855102539,7.711404800415039,-26.28926658630371,1.8447163105010986
0,635776,29.483455657958984,11.172404289245605,1.1193079948425293,34.242801666259766
0,635776,-28.204391479492188,-13.325723648071289,24.92780113220215,-12.707417488098145
0,635776,7.866245746612549,-6.492506980895996,-34.261627197265625,-14.536267280578613
0,635776,15.770755767822266,-15.598161697387695,-12.60356330871582,12.460193634033203
0,635777,-8.920351028442383,15.112007141113281,19.452552795410156,2.027637243270874
0,635777,2.249061107635498,35.6536750793457,14.727972984313965,4.9537153244018555
0,635777,-8.811922073364258,-14.303559303283691,26.253171920776367,31.643314361572266
0,635777,0.24773551523685455,2.9840970039367676,0.7178316712379456,-10.961201667785645
0,635777,4.298346042633057,28.50572395324707,-21.953474044799805,-14.945302963256836
0,635777,-12.967141151428223,-4.618410110473633,-10.902012825012207,14.767044067382812
0,635778,-6.111392021179199,-28.41050910949707,3.377629041671753,-9.129691123962402
0,635778,4.471817493438721,-6.747971534729004,16.6978702545166,-8.893247604370117
0,635778,13.844432830810547,2.665299892425537,-0.6683748960494995,-9.616344451904297
0,635778,0.6688167452812195,-30.409486770629883,-14.149285316467285,4.331481456756592
0,635778,-6.362144947052002,-7.751746654510498,-2.5448520183563232,11.037626266479492
0,635778,17.893280029296875,57.620059967041016,1.111120343208313,-7.086668491363525
0,635779,5.531052112579346,9.218535423278809,11.822999000549316,-14.823573112487793
0,635779,-21.55355453491211,-35.52545166015625,4.165501594543457,0.1553592085838318
0,635779,-5.847801685333252,16.86953353881836,-7.025083065032959,20.638225555419922
0,635779,6.803125381469727,13.678218841552734,-3.227384567260742,-14.418082237243652
0,635779,4.491062164306641,-17.754417419433594,-15.97580337524414,-2.858738422393799
0,635780,4.471170425415039,-17.374704360961914,0.6861984729766846,16.668285369873047
0,635780,-8.721864700317383,-4.422385215759277,6.294190406799316,-0.9220505356788635
0,635780,0.0067558083683252335,8.483965873718262,-15.65806770324707,1.005650520324707
0,635780,4.758634090423584,4.015758514404297,-6.0100836753845215,-6.325839519500732
0,635780,-16.425487518310547,-0.8236277103424072,21.705602645874023,-3.15069317817688
0,635780,-2.781064033508301,3.863351345062256,8.355644226074219,-5.941018104553223
0,635781,18.13158416748047,13.968815803527832,-3.6801953315734863,7.843832015991211
0,635781,-6.607113361358643,1.2173079252243042,11.834723472595215,19.294654846191406
0,635781,-13.129449844360352,-10.138675689697266,-21.108837127685547,-24.978336334228516
0,635781,17.484342575073242,-2.7741825580596924,-13.574043273925781,-20.588014602661133
0,635781,6.826498508453369,0.7648942470550537,30.361515045166016,24.13962173461914
0,635781,-14.493873596191406,-13.021838188171387,15.503877639770508,21.589557647705078
0,635782,3.766122579574585,-9.8555908203125,-22.088098526000977,-5.614253044128418
0,635782,6.5621442794799805,11.919210433959961,-18.039703369140625,-40.96082305908203
0,635782,-9.102581977844238,-4.460859775543213,6.684994220733643,-9.053689002990723
0,635782,-9.032699584960938,6.611456394195557,5.619511604309082,33.79218292236328
0,635782,6.919570446014404,6.965287208557129,7.5948309898376465,-9.18018913269043
0,635782,21.262191772460938,-13.536236763000488,-2.307262420654297,-23.261579513549805
0,635783,5.028531551361084,-9.213133811950684,-12.775140762329102,12.797038078308105
0,635783,-23.914457321166992,2.1271800994873047,2.863114833831787,11.375657081604004
0,635783,-12.416357040405273,8.914145469665527,20.029634475708008,-7.529317378997803
0,635783,19.310565948486328,4.686911106109619,-10.976210594177246,-3.5141284465789795
0,635783,13.5158052444458,7.386657238006592,-24.185565948486328,15.574444770812988
0,635783,-15.33984088897705,-5.905374050140381,31.400388717651367,28.603748321533203
0,635784,-0.8965393900871277,-2.561309576034546,2.1237425804138184,-1.041175365447998
0,635784,6.4028706550598145,-3.8878722190856934,-34.18709182739258,-8.92538833618164
0,635784,-8.27977466583252,-1.0438377857208252,29.664928436279297,10.938150405883789
0,635784,3.280590534210205,24.195781707763672,28.092906951904297,-13.356144905090332
0,635784,5.514318943023682,-2.654921054840088,-21.697378158569336,-17.436023712158203
0,635784,-0.23621027171611786,-21.810333251953125,-9.230746269226074,-6.639636993408203
0,635785,-8.495772361755371,11.862951278686523,2.9212684631347656,-12.527338027954102
0,635785,4.521768093109131,4.668398857116699,-4.711439609527588,3.8828840255737305
0,635785,8.153107643127441,-3.3692710399627686,-1.6196010112762451,5.8999834060668945
0,635785,6.344676494598389,9.305953025817871,-6.924312591552734,-1.9031692743301392
0,635785,-5.21938419342041,-3.8471429347991943,-2.9586668014526367,-7.153244972229004
0,635785,-10.97640609741211,0.5624544024467468,5.1424665451049805,-16.856220245361328
0,635786,7.655856609344482,-17.113950729370117,-5.933474540710449,15.986252784729004
0,635786,-9.844600677490234,-28.90030288696289,-11.036272048950195,28.810985565185547
0,635786,-7.2767438888549805,19.78662109375,2.7022087574005127,-10.809115409851074
0,635786,2.7183382511138916,28.41836166381836,17.570037841796875,0.8001943230628967
0,635786,0.17319509387016296,-9.76273250579834,2.498016119003296,4.816756248474121
0,635786,0.6964424252510071,-2.990277051925659,-6.777039051055908,-12.808591842651367
0,635787,-9.919981956481934,13.925576210021973,2.6853625774383545,17.85628890991211
0,635787,5.524186134338379,-2.109532356262207,-1.3536218404769897,2.043938159942627
0,635787,7.513889789581299,-15.83963680267334,-4.953139781951904,-0.7158963084220886
0,635787,-16.086448669433594,-4.589496612548828,1.5089303255081177,19.532655715942383
0,635787,7.548036098480225,12.948572158813477,8.371220588684082,-22.38982582092285
0,635787,17.99214744567871,-5.309248924255371,17.823930740356445,-20.63587188720703
0,635788,-3.2094621658325195,0.7582753300666809,0.0012927837669849396,25.731855392456055
0,635788,-3.565946102142334,4.592912673950195,-13.93338680267334,18.041229248046875
0,635788,15.852198600769043,-20.277217864990234,11.05835247039795,-18.645919799804688
0,635788,22.474842071533203,9.697527885437012,6.866113662719727,-4.35865592956543
0,635788,-30.176227569580078,25.562957763671875,-5.9026947021484375,6.577457427978516
0,635789,-14.258874893188477,-1.091956377029419,-19.309253692626953,-16.260114669799805
0,635789,9.977938652038574,-17.892919540405273,2.229771375656128,12.97178840637207
0,635789,-12.043085098266602,0.4660729467868805,15.299728393554688,6.412914276123047
0,635789,13.485347747802734,6.995030879974365,-9.388212203979492,-22.752464294433594
0,635789,-7.563999176025391,-5.806604385375977,10.21808910369873,25.178070068359375
0,635789,6.508212566375732,21.152067184448242,-20.504981994628906,3.149613380432129
0,635790,25.036468505859375,-3.034374475479126,-20.117650985717773,-27.587980270385742
0,635790,-37.568416595458984,-31.91291618347168,23.34014892578125,21.99117088317871
0,635790,-21.034765243530273,10.795623779296875,-9.876091957092285,4.579647064208984
0,635790,28.480239868164062,-0.41808563470840454,-3.445668935775757,-18.639822006225586
0,635790,6.478072166442871,-13.710829734802246,13.438987731933594,25.35500144958496
0,635790,-4.3449907302856445,27.65045928955078,6.848644733428955,24.733888626098633
0,635791,4.792741775512695,8.979994773864746,21.819072723388672,-13.850767135620117
0,635791,-6.50639009475708,-18.795391082763672,-9.2267484664917,-15.021227836608887
0,635791,-13.684826850891113,-0.11941459774971008,-28.055437088012695,9.929577827453613
0,635791,3.7601325511932373,11.293595314025879,4.338165283203125,-5.0226569175720215
0,635791,16.645151138305664,4.713547229766846,12.312376022338867,-23.40140151977539
0,635791,6.46424674987793,-17.832612991333008,-4.537015914916992,5.340809345245361
0,635792,-8.558740615844727,-10.066072463989258,-8.034158706665039,-5.017395496368408
0,635793,-12.663150787353516,-8.549542427062988,-6.777006149291992,-55.79085922241211
0,635793,-8.298419952392578,-16.82766342163086,10.10315227508545,-34.0165901184082
0,635793,-1.2059961557388306,10.5936861038208,10.229971885681152,45.64384841918945
0,635793,4.421849250793457,20.150409698486328,-10.96186351776123,33.39861297607422
0,635793,16.771169662475586,12.611886024475098,15.719125747680664,-10.617477416992188
0,635794,20.32332992553711,-0.9619485139846802,-1.0566205978393555,-9.92696762084961
0,635794,-10.41589641571045,-12.679076194763184,-21.69769859313965,14.204699516296387
0,635794,-18.851747512817383,0.34197691082954407,18.584667205810547,15.353878021240234
0,635795,-22.7412052154541,22.777158737182617,-0.2083268016576767,-3.7121658325195312
0,635795,-5.618801116943359,4.40186071395874,-11.202714920043945,26.366565704345703
0,635798,33.75593948364258,13.913057327270508,16.370784759521484,16.755739212036133
0,635799,15.450289726257324,38.46651077270508,14.600066184997559,2.015834093093872
0,635802,-7.564296722412109,-40.28982925415039,-5.306644916534424,-33.587154388427734
0,635804,-2.2303826808929443,-65.28910827636719,-25.656803131103516,-40.16463088989258
0,635806,-0.5899995565414429,4.830604553222656,-25.241802215576172,24.516754150390625
0,635808,8.356430053710938,24.112255096435547,1.92475426197052,-1.6831119060516357
0,635810,-4.530026435852051,-9.411029815673828,26.613935470581055,-9.106812477111816
0,635812,-9.334929466247559,-6.617329120635986,2.456932544708252,18.894533157348633
0,635814,-8.464890480041504,21.80101203918457,2.5760726928710938,5.933679103851318
0,635816,-3.030247688293457,11.732205390930176,3.789574146270752,10.172914505004883
0,635818,29.367618560791016,-6.299542427062988,-6.671065807342529,11.593470573425293
0,635820,-13.069921493530273,-17.466495513916016,2.979719638824463,6.4590559005737305
0,635822,-21.10658836364746,21.419084548950195,1.5594511032104492,-6.243959903717041
0,635824,18.430259704589844,24.03611946105957,9.779191970825195,-21.977319717407227
0,635826,3.4873743057250977,-24.95018196105957,-12.610939979553223,-50.13330841064453
0,635828,4.045398235321045,-9.198456764221191,-5.932352542877197,-22.503585815429688
0,635830,-0.6995631456375122,-12.545171737670898,11.758963584899902,65.78645324707031
0,635832,-16.499557495117188,-6.728530406951904,-19.467548370361328,3.3767623901367188
0,635834,0.17516931891441345,13.750563621520996,-0.3682205379009247,-8.926851272583008
0,635836,20.232206344604492,-10.410975456237793,13.166108131408691,56.84771728515625
0,635838,-24.924646377563477,-4.816314220428467,4.177592754364014,-25.427644729614258
0,635840,-35.18706512451172,10.453170776367188,0.029542677104473114,-31.61811065673828
0,635842,51.807830810546875,15.322394371032715,-5.415972709655762,10.326193809509277
0,635844,9.418333053588867,1.1881873607635498,-2.9538326263427734,-19.708364486694336
0,635847,-31.21932029724121,-26.731245040893555,-14.864554405212402,-4.830731391906738
1,637202,14.084338188171387,27.435876846313477,28.451969146728516,38.71326446533203
1,637203,-17.23033905029297,38.78689956665039,17.375083923339844,19.46306037902832
1,637206,17.802709579467773,-43.51824951171875,-43.99909591674805,-45.91730880737305
1,637207,36.35524368286133,-21.861116409301758,8.564087867736816,-20.577451705932617
1,637213,-17.106674194335938,12.637131690979004,25.207101821899414,26.72718048095703
1,637213,-11.378798484802246,3.716360569000244,-25.083709716796875,-19.71686553955078
1,637214,7.46677303314209,6.597400188446045,-1.924368143081665,10.945521354675293
1,637216,5.411871433258057,-15.150837898254395,2.799976348876953,28.243793487548828
1,637218,-17.419485092163086,-11.573991775512695,3.502293348312378,-17.544095993041992
1,637220,-6.673425197601318,21.716405868530273,16.305240631103516,13.625831604003906
1,637222,2.583289384841919,17.589324951171875,-9.473732948303223,19.035991668701172
1,637224,-8.432040214538574,-14.29161548614502,11.053055763244629,-14.127463340759277
1,637226,4.984182834625244,0.16878710687160492,-8.85391902923584,-26.383813858032227
1,637228,17.798015594482422,-2.124418258666992,-43.805259704589844,-1.1487213373184204
1,637231,10.04378890991211,-4.976603031158447,12.780847549438477,-4.116330623626709
1,637232,-15.583308219909668,10.72268009185791,33.743064880371094,-6.834062099456787
1,637235,-1.293135404586792,-16.09555435180664,-4.41936731338501,14.332191467285156
1,637252,8.533365249633789,-8.745109558105469,-9.092424392700195,-0.4118632674217224
1,637253,-9.799099922180176,17.317081451416016,14.635509490966797,11.64197063446045
1,637253,-7.619529724121094,20.13109588623047,7.493400573730469,14.075944900512695
1,637253,8.3203125,-3.363861083984375,-20.768259048461914,-11.56041431427002
1,637253,-15.25458812713623,-13.966163635253906,-7.115199565887451,4.31512975692749
1,637253,-8.447968482971191,0.0737791582942009,22.258346557617188,5.750799179077148
1,637253,19.863914489746094,-5.591054439544678,5.217690944671631,-20.5576229095459
1,637254,-15.230215072631836,15.297494888305664,-22.625831604003906,8.758955001831055
1,637254,-3.150156259536743,-6.097744941711426,-4.073666095733643,20.499954223632812
1,637255,22.314180374145508,-7.671717166900635,23.00459861755371,-15.79271125793457
1,637256,1.8297773599624634,33.22751235961914,10.998749732971191,-31.43291473388672
1,637258,-10.779314041137695,-31.96198272705078,-11.559858322143555,-9.61227798461914
1,637261,5.013881683349609,-10.77346134185791,-16.45881462097168,22.747095108032227
1,637262,-7.473674297332764,18.494543075561523,8.061707496643066,10.519107818603516
1,637265,-6.938992977142334,-35.96562957763672,0.6560992002487183,2.5879769325256348
1,637266,35.78407287597656,16.08498191833496,-16.321985244750977,-22.04338264465332
1,637269,1.7156668901443481,5.037222862243652,-5.492289066314697,-32.92757797241211
1,637270,-22.278308868408203,1.9221866130828857,0.3147163391113281,27.314788818359375
1,637273,-1.9445663690567017,37.439666748046875,20.37123680114746,32.4561882019043
1,637274,-6.258101940155029,-23.345083236694336,9.076447486877441,-4.437546730041504
1,637277,10.913922309875488,-22.083284378051758,-13.169014930725098,8.587060928344727
1,637278,11.292819023132324,14.725643157958984,-14.41484260559082,1.1071614027023315
1,637309,-13.493364334106445,6.85967493057251,1.558208703994751,-21.669872283935547
1,637309,-7.909881591796875,-0.9026100635528564,6.685122966766357,12.334769248962402
1,637310,10.744402885437012,-0.8509966135025024,-2.7322468757629395,3.9176831245422363
1,637310,7.28627872467041,-22.52886962890625,-1.0765880346298218,-28.95561408996582
1,637310,-11.325636863708496,-11.547499656677246,7.0698442459106445,15.105216026306152
1,637310,-10.421197891235352,19.172006607055664,10.668929100036621,25.783151626586914
1,637310,7.540518760681152,2.1888256072998047,-0.5421595573425293,-23.87295913696289
1,637310,14.760363578796387,-8.607675552368164,-21.36444664001465,-15.857882499694824
1,637311,-12.104668617248535,-5.388474464416504,-0.5449936389923096,13.207003593444824
1,637311,-7.571737766265869,13.592116355895996,32.44783020019531,12.272802352905273
1,637311,19.00406265258789,15.448023796081543,-18.13587760925293,-11.437423706054688
1,637311,1.3976868391036987,-11.600571632385254,-16.13529396057129,-7.315244674682617
1,637311,-3.9472243785858154,21.663339614868164,30.32825469970703,21.459407806396484
1,637312,2.806450605392456,24.713579177856445,-1.0781826972961426,0.31002989411354065
1,637312,-6.9179205894470215,-32.2630615234375,-13.542516708374023,-7.031693458557129
1,637312,-19.90569305419922,-13.926678657531738,5.8601837158203125,-3.027617931365967
1,637313,7.3646345138549805,20.059606552124023,3.9188811779022217,10.989253044128418
1,637314,7.360830783843994,8.270158767700195,9.84327507019043,20.467275619506836
1,637316,-22.848920822143555,-16.69123649597168,-0.13268758356571198,-22.775114059448242
1,637318,0.10156591981649399,-4.712759971618652,-14.654720306396484,-32.017860412597656
1,637320,14.515496253967285,24.775074005126953,9.653843879699707,9.83450698852539
1,637323,20.932003021240234,-15.513187408447266,-11.078330039978027,40.679039001464844
1,637324,-1.7422540187835693,-34.370155334472656,-12.906739234924316,-30.620656967163086
1,637327,-24.37472915649414,-1.2059539556503296,24.79668617248535,-50.00423812866211
1,637328,14.413511276245117,18.538612365722656,-31.92273712158203,56.7144660949707
1,637331,19.44283103942871,-6.016697406768799,-9.983899116516113,4.951986789703369
1,637332,-6.143651485443115,-11.962553024291992,26.93480682373047,-53.68306350708008
1,637335,-14.681866645812988,23.38205337524414,-9.089385032653809,27.09984588623047
1,637336,-9.888998031616211,-6.239938259124756,14.90180492401123,39.33162307739258
1,637337,8.672775268554688,-5.385149002075195,-3.6213979721069336,-7.802125453948975
1,637383,4.279898643493652,17.200674057006836,-24.881282806396484,-13.822366714477539
1,637383,-9.087130546569824,3.2764127254486084,10.955302238464355,16.000865936279297
1,637383,-4.479496002197266,2.78452205657959,35.08583450317383,4.096865653991699
1,637383,0.7368375658988953,-16.570077896118164,-6.172190189361572,-18.896432876586914
1,637383,3.47305965423584,4.622832775115967,-17.429750442504883,9.621542930603027
1,637383,8.005084037780762,18.2965145111084,11.535534858703613,-6.709508895874023
1,637384,18.566905975341797,-11.848041534423828,-9.214674949645996,-31.463577270507812
1,637384,5.721067428588867,-9.204218864440918,-9.008700370788574,10.242395401000977
1,637384,-26.917844772338867,-13.568955421447754,-2.8598430156707764,16.14549446105957
1,637384,-4.844320297241211,-7.718123912811279,-0.8612446188926697,4.516392230987549
1,637384,12.15170955657959,15.804718971252441,3.2966578006744385,1.109519362449646
1,637385,-10.341500282287598,20.982276916503906,-2.2604429721832275,-16.669445037841797
1,637385,-5.01716423034668,9.475244522094727,7.05843448638916,-6.000063419342041
1,637385,17.038969039916992,-17.890016555786133,6.756763935089111,11.77155876159668
1,637385,3.5370469093322754,-36.622318267822266,-7.013010025024414,20.00283432006836
1,637385,-12.481951713562012,-0.03506078943610191,-0.28593626618385315,9.349579811096191
1,637385,6.461911201477051,38.792510986328125,17.906307220458984,-24.901330947875977
1,637386,6.863615989685059,-4.406778335571289,-12.539970397949219,-22.077131271362305
1,637386,-12.37828254699707,-24.098844528198242,-9.051697731018066,11.271576881408691
1,637386,-7.924742698669434,8.059205055236816,17.737382888793945,15.41758918762207
1,637386,22.36389923095703,3.9276602268218994,-3.5144622325897217,-4.569433689117432
1,637386,5.436707019805908,4.736832141876221,-4.958324432373047,-16.464946746826172
1,637388,-19.869333267211914,-0.1982167810201645,-5.368546009063721,25.64892578125
1,637388,1.9529341459274292,-1.74412202835083,-0.1614544540643692,21.910070419311523
1,637388,8.534269332885742,17.01457405090332,25.368785858154297,-23.66096305847168
1,637389,-18.12038803100586,-4.183808326721191,-5.600748062133789,3.5882723331451416
1,637392,1.3100714683532715,-2.2154645919799805,-33.849708557128906,-4.435793399810791
1,637393,7.936347007751465,15.011873245239258,19.37919044494629,19.54098892211914
1,637396,-10.06054973602295,16.258691787719727,25.487171173095703,9.769622802734375
1,637397,6.314700603485107,8.33460521697998,-13.211069107055664,-40.322017669677734
1,637400,-13.480474472045898,-21.096893310546875,-20.061410903930664,12.009530067443848
1,637401,14.076177597045898,-38.93523406982422,-2.3172552585601807,10.575334548950195
1,637404,13.143310546875,-16.76727294921875,7.601576805114746,-51.0094108581543
1,637405,-7.1021904945373535,37.78081130981445,-9.612441062927246,-20.053409576416016
1,637408,1.2202461957931519,14.24238109588623,10.454140663146973,61.20903396606445
1,637409,-16.873382568359375,-34.868412017822266,20.47939682006836,3.6063382625579834
1,637412,14.995515823364258,14.654703140258789,-16.162364959716797,-9.358952522277832
1,637414,-13.600339889526367,9.859286308288574,-25.1301326751709,9.604905128479004
1,637416,-2.788541555404663,-14.439860343933105,16.714439392089844,-42.20740509033203
1,637473,37.300445556640625,10.827974319458008,36.69558334350586,34.0739631652832
1,637473,-22.158918380737305,-2.0215821266174316,-7.0534281730651855,38.68396759033203
1,637473,-4.602940082550049,13.128423690795898,-23.896615982055664,-42.47832489013672
1,637473,10.8323392868042,-11.919479370117188,2.2453558444976807,-9.187089920043945
1,637473,-25.983551025390625,-7.340939044952393,13.977044105529785,33.141029357910156
1,637474,-2.134159803390503,37.527217864990234,1.0746054649353027,-7.234140396118164
1,637474,30.616222381591797,-17.742151260375977,-28.74217414855957,-28.349510192871094
1,637474,11.646720886230469,-37.34527587890625,-19.722929000854492,10.909793853759766
1,637474,-19.814237594604492,16.282140731811523,24.535123825073242,-3.7791008949279785
1,637474,4.251987457275391,16.18518829345703,-7.374374866485596,-21.183717727661133
1,637474,0.5641912817955017,-27.484338760375977,-14.323888778686523,21.8033504486084
1,637475,-17.104469299316406,4.593430519104004,29.45071792602539,20.794546127319336
1,637475,9.79240608215332,36.85969924926758,-7.236128807067871,-10.922135353088379
1,637475,3.4324755668640137,-8.772318840026855,5.758024215698242,11.100586891174316
1,637475,-7.20825719833374,-25.610069274902344,30.16116714477539,11.623804092407227
1,637475,-11.970259666442871,3.9589831829071045,-7.146788597106934,-18.503387451171875
1,637475,14.787392616271973,18.03551483154297,-20.094444274902344,-13.580225944519043
1,637476,16.63490867614746,-18.635452270507812,-10.238343238830566,2.5060982704162598
1,637476,-22.956077575683594,-17.06951332092285,24.07923126220703,-1.559670090675354
1,637476,9.256315231323242,26.6339168548584,3.8422508239746094,-7.160058975219727
1,637476,21.531435012817383,-9.370816230773926,-36.713321685791016,15.51280689239502
1,637476,-16.56829071044922,-17.860855102539062,-3.4187912940979004,13.623994827270508
1,637476,-5.107580661773682,32.76024627685547,14.056224822998047,-25.390003204345703
1,637477,10.690367698669434,9.646673202514648,2.7415812015533447,-19.632570266723633
1,637477,-18.13410758972168,-38.806480407714844,5.375093936920166,20.714229583740234
1,637477,-20.791011810302734,-4.171637058258057,-5.774658203125,6.9686150550842285
1,637477,13.833451271057129,40.964683532714844,-15.077659606933594,-6.44469690322876
1,637477,16.142202377319336,5.126983642578125,3.222564935684204,3.6588637828826904
1,637479,-7.944317817687988,-14.79527759552002,-0.14159826934337616,-4.227672576904297
1,637479,7.282530307769775,-13.294084548950195,-11.903074264526367,10.80655288696289
1,637479,3.2454495429992676,-11.116473197937012,13.808260917663574,3.279601812362671
1,637480,-19.445539474487305,17.061534881591797,28.90448760986328,-8.13052749633789
1,637482,6.351873874664307,15.897355079650879,1.8019161224365234,9.73142147064209
1,637484,22.941843032836914,-29.83572769165039,-33.890499114990234,-25.455259323120117
1,637486,-1.8598490953445435,-17.025283813476562,6.279653072357178,-37.25065612792969
1,637488,-21.49840545654297,22.21567726135254,14.63273811340332,46.4056510925293
1,637490,14.514829635620117,5.7094502449035645,-20.98790168762207,56.480926513671875
1,637492,17.692729949951172,19.34451675415039,19.648361206054688,-36.65279769897461
1,637494,-29.740480422973633,-12.75027084350586,4.548717975616455,-56.489891052246094
1,637496,-10.530924797058105,-29.939332962036133,2.0104427337646484,5.689567565917969
1,637498,9.177631378173828,15.988048553466797,20.763771057128906,52.25659942626953
1,637500,-14.790264129638672,28.375757217407227,5.060782432556152,19.409780502319336
1,637502,-6.054098129272461,0.6671063899993896,5.068066120147705,-34.583892822265625
1,637504,23.675256729125977,-33.2721061706543,-69.54122161865234,-15.534340858459473
1,637506,16.75139808654785,3.367356300354004,-76.20684051513672,4.740293025970459
1,637508,6.354812145233154,24.90966796875,77.29100799560547,22.4705810546875
1,637510,-1.1525847911834717,-5.735029697418213,103.97342681884766,14.997100830078125
1,637578,4.757452011108398,13.92082405090332,-84.32826232910156,24.663471221923828
1,637579,29.75003433227539,6.648192882537842,-75.45867156982422,53.42124557495117
1,637579,-8.358522415161133,-22.880977630615234,73.10533142089844,-34.318565368652344
1,637579,-23.555377960205078,4.643192291259766,14.628268241882324,-52.019657135009766
1,637579,4.603551387786865,-3.6160998344421387,-35.541996002197266,-11.38525676727295
1,637579,-9.655023574829102,-6.228696346282959,38.248878479003906,-4.5993547439575195
1,637579,-15.286429405212402,27.980810165405273,40.757240295410156,3.4813427925109863
1,637580,-15.61036491394043,0.854986310005188,-17.57403564453125,-14.828120231628418
1,637580,-10.733382225036621,-36.40096664428711,-15.244070053100586,-1.73112952709198
1,637580,3.67216420173645,-11.91642951965332,-0.9479636549949646,-8.754250526428223
1,637580,-16.01175308227539,-0.2944211959838867,-2.1189124584198,-35.17106246948242
1,637580,-10.885038375854492,18.242706298828125,1.6894145011901855,-31.238759994506836
1,637580,13.356481552124023,7.43734884262085,-11.294699668884277,12.037729263305664
1,637581,-10.389608383178711,-37.88554000854492,-17.21019744873047,46.76122283935547
1,637581,-3.9883458614349365,6.955076217651367,3.7178258895874023,11.96563720703125
1,637581,39.559688568115234,30.494836807250977,6.9804911613464355,-22.052804946899414
1,637581,10.973252296447754,-7.316603183746338,-6.6421613693237305,9.476245880126953
1,637581,-16.411407470703125,3.064016819000244,0.6541069149971008,46.73712158203125
1,637582,10.025285720825195,2.658777952194214,1.0916858911514282,8.58149528503418
1,637582,11.70926284790039,-13.639416694641113,-7.300012111663818,-11.350648880004883
1,637582,1.3852992057800293,4.839477062225342,-0.6344163417816162,-1.578812599182129
