Aktueller Finger,timestamp_ms,sensor_0,sensor_1,sensor_2,sensor_3
0,230020,-25.95519256591797,0.8002772927284241,6.087654113769531,51.999210357666016
0,230021,7.334849834442139,8.168241500854492,25.408811569213867,-11.933693885803223
0,230022,4.3039937019348145,20.296480178833008,-31.863439559936523,-49.77959060668945
0,230025,24.069805145263672,2.549198865890503,19.27923583984375,13.798196792602539
0,230026,-10.014009475708008,-34.558902740478516,10.375673294067383,14.018359184265137
0,230029,-33.068626403808594,4.579322338104248,-26.871496200561523,-15.855802536010742
0,230030,33.1391487121582,29.402700424194336,19.62428092956543,-0.9170462489128113
0,230033,24.53258514404297,-29.725645065307617,-4.3369855880737305,6.611170768737793
0,230034,-16.806547164916992,-13.919283866882324,-12.60922622680664,9.327643394470215
0,230037,6.693869113922119,28.99420166015625,30.91881561279297,-16.181991577148438
0,230038,-22.508302688598633,-0.670734167098999,-11.501668930053711,-13.645584106445312
0,230041,-32.9920539855957,6.322791576385498,-15.6486177444458,13.147274017333984
0,230042,49.70659255981445,-5.73862361907959,14.024725914001465,-26.681814193725586
0,230045,34.07383728027344,-49.96479034423828,-30.102188110351562,-43.577232360839844
0,230046,-48.3009147644043,7.816264629364014,-20.053722381591797,36.132713317871094
0,230049,-15.840387344360352,33.79631423950195,34.617408752441406,52.128509521484375
0,230050,18.406856536865234,-10.039538383483887,1.4520143270492554,-19.14360809326172
0,230053,-13.19762134552002,22.159326553344727,3.6340978145599365,10.630521774291992
0,230054,11.289999008178711,18.043323516845703,23.325780868530273,21.38768768310547
0,230057,30.78853988647461,-49.57436752319336,-22.147367477416992,-23.12697410583496
0,230058,-40.634952545166016,-6.585972785949707,-20.203569412231445,-11.69920539855957
0,230061,-21.88849449157715,28.26072883605957,18.550533294677734,-2.776707172393799
0,230062,30.757137298583984,-0.18392686545848846,12.477535247802734,-5.050242900848389
0,230065,1.7165377140045166,16.380741119384766,-11.53138542175293,-1.4985387325286865
0,230066,23.9437255859375,2.054602861404419,15.807971000671387,20.4482421875
0,230069,-4.708420753479004,-37.789955139160156,-10.451139450073242,11.912206649780273
0,230070,-37.33030700683594,-8.364526748657227,-33.27358627319336,-6.595134735107422
0,230073,3.9154486656188965,41.857486724853516,27.070621490478516,4.319456577301025
0,230074,21.008193969726562,6.983598232269287,21.243595123291016,3.5468180179595947
0,230077,18.003633499145508,-21.880495071411133,-19.72222900390625,-20.945316314697266
0,230078,-30.996082305908203,-4.004992961883545,-12.155806541442871,-23.93630027770996
0,230081,-2.385662794113159,-5.719975471496582,-2.6338860988616943,12.058870315551758
0,230082,33.610504150390625,-1.0704957246780396,4.580868244171143,10.77950382232666
0,230085,-23.092714309692383,7.938493251800537,8.327693939208984,1.803909420967102
0,230086,-19.567556381225586,-7.622600078582764,-1.7071452140808105,28.27753448486328
0,230089,13.091316223144531,-3.149278163909912,-7.3829240798950195,11.292803764343262
0,230090,13.063494682312012,19.051464080810547,8.68668270111084,-66.42031860351562
0,230093,-13.976391792297363,-12.040122032165527,13.313373565673828,-30.843854904174805
0,230094,-9.753402709960938,-23.616300582885742,-4.528683185577393,66.48712158203125
0,230097,16.555282592773438,8.887127876281738,-16.20914077758789,-3.5996570587158203
0,230098,3.1509647369384766,21.246200561523438,-12.992524147033691,-40.45399475097656
0,230101,2.6160566806793213,22.965578079223633,17.26506805419922,23.148122787475586
0,230102,-0.5931586623191833,1.6365102529525757,7.5024189949035645,13.46127986907959
0,230105,3.859621286392212,-13.635122299194336,2.107792854309082,-13.676258087158203
0,230106,13.90282154083252,-19.57566261291504,8.94594955444336,8.528355598449707
0,230109,-12.050620079040527,-15.700607299804688,-12.853568077087402,6.815309524536133
0,230110,-5.790146827697754,29.291603088378906,10.525162696838379,-34.396305084228516
0,230113,-2.4724133014678955,14.659613609313965,5.094730377197266,13.975967407226562
0,230114,-10.331136703491211,-17.449787139892578,-22.981401443481445,102.44622802734375
0,230117,-5.902653694152832,-10.169658660888672,-10.260711669921875,48.32280731201172
0,230118,16.233732223510742,-22.536733627319336,12.255630493164062,-88.9879150390625
0,230121,5.863076210021973,10.560680389404297,10.60761547088623,-115.7607192993164
0,230122,-25.270803451538086,30.959684371948242,-12.198657035827637,-17.780948638916016
0,230125,17.07383918762207,-14.625044822692871,11.38228988647461,35.67321014404297
0,230126,12.13126277923584,-4.830888748168945,7.857862949371338,50.72737121582031
0,230129,-29.764280319213867,17.27018165588379,-25.98386573791504,40.73501968383789
0,230130,-0.9848083853721619,-0.24114900827407837,2.239356279373169,-36.304786682128906
0,230133,32.404380798339844,-14.132936477661133,14.167732238769531,-36.66130065917969
0,230134,-0.4021124541759491,0.8115869164466858,-3.1355361938476562,-4.177588939666748
0,230137,-27.15476417541504,18.464326858520508,-0.7531769871711731,17.406291961669922
0,230138,16.589298248291016,-10.206757545471191,4.976703643798828,32.87730026245117
0,230141,23.335996627807617,-17.394855499267578,-7.177855491638184,2.9904322624206543
0,230142,-30.18332290649414,2.087097406387329,-11.798815727233887,-6.61357307434082
0,230145,-21.29605484008789,-3.7274844646453857,26.38741683959961,13.861473083496094
0,230146,30.192697525024414,6.281130313873291,0.6382125020027161,-9.344280242919922
0,230149,16.531248092651367,12.552427291870117,-15.115821838378906,-18.061721801757812
0,230150,-28.092330932617188,-30.789127349853516,10.135104179382324,15.719807624816895
0,230153,-12.040787696838379,-7.660958290100098,-25.7279109954834,-19.564800262451172
0,230154,15.758359909057617,46.71750259399414,0.8659402132034302,1.1899173259735107
0,230157,1.8101235628128052,1.1475900411605835,32.382572174072266,53.672027587890625
0,230158,-4.877269744873047,-27.084991455078125,3.4240756034851074,4.735170841217041
0,230161,5.301062107086182,11.868575096130371,-28.686426162719727,-53.5135612487793
0,230162,2.139892101287842,13.51878547668457,-23.562637329101562,-62.578224182128906
0,230165,-0.15889306366443634,-8.767508506774902,44.08015823364258,10.492456436157227
0,230166,8.997415542602539,-5.348763465881348,32.3192138671875,61.818172454833984
0,230169,-0.7875917553901672,-1.922764778137207,-45.822349548339844,6.492537498474121
0,230170,-23.304424285888672,-6.781246662139893,-14.243314743041992,-7.927331924438477
0,230173,17.667537689208984,23.56970977783203,40.08881759643555,6.170778751373291
0,230174,32.251914978027344,9.932795524597168,-16.012306213378906,-18.468765258789062
0,230177,-32.978424072265625,-37.662841796875,-28.988574981689453,-3.942033529281616
0,230178,-6.53630256652832,-8.333086967468262,15.24107551574707,2.8077449798583984
0,230181,11.113861083984375,19.357303619384766,16.198827743530273,29.80915069580078
0,230182,-24.516530990600586,19.39902687072754,-8.525690078735352,2.685826539993286
0,230185,18.453371047973633,-0.992984414100647,2.470608711242676,-70.79197692871094
0,230186,-8.775108337402344,-9.395364761352539,18.983531951904297,24.145137786865234
0,230189,-21.831531524658203,-9.727506637573242,-34.458763122558594,71.1541748046875
0,230190,38.55464172363281,-14.209993362426758,-32.28246307373047,-22.34305191040039
0,230193,-6.150264739990234,8.412668228149414,29.008777618408203,-50.88224792480469
0,230194,-8.593807220458984,2.1629576683044434,18.971952438354492,-6.008143424987793
0,230197,-3.2277939319610596,1.073326826095581,-1.0808552503585815,41.38863754272461
0,230198,-23.548566818237305,3.967061996459961,-1.0060055255889893,16.901775360107422
0,230201,39.90876388549805,-4.629327297210693,-15.578134536743164,-34.56502914428711
0,230456,30.140338897705078,3.1196045875549316,-43.18476486206055,3.504340648651123
0,230458,-40.14595031738281,-9.725699424743652,16.16891860961914,-49.849239349365234
0,230460,92.23007202148438,1.940263271331787,139.34242248535156,-122.5506591796875
0,230462,21.974437713623047,10.07336139678955,31.106224060058594,92.80908966064453
0,230464,-252.4739532470703,-10.219053268432617,-150.12979125976562,94.98003387451172
0,230466,19.796817779541016,33.621097564697266,-56.68842315673828,-46.56812286376953
0,321167,190.8761749267578,21.783100128173828,84.2663345336914,229.50315856933594
0,321169,-12.341779708862305,-43.06214904785156,22.679534912109375,151.08592224121094
0,321170,-22.841650009155273,4.50116491317749,-19.53104591369629,-257.5533447265625
0,321173,-30.878835678100586,24.377058029174805,4.745485782623291,-174.06060791015625
0,321174,-48.219661712646484,-31.993072509765625,-17.273576736450195,9.132087707519531
0,321177,-23.37424087524414,-5.674408912658691,-27.968904495239258,-29.679786682128906
0,321178,30.12838363647461,32.228485107421875,-8.395465850830078,-2.2443528175354004
0,321181,48.85784912109375,-28.757278442382812,1.3250442743301392,106.74405670166016
0,321182,-37.69607162475586,-37.716678619384766,16.195905685424805,-4.2576117515563965
0,321185,-19.195682525634766,50.19061279296875,57.183372497558594,-74.63020324707031
0,321186,41.58689880371094,33.61048126220703,7.7866644859313965,142.84507751464844
0,321189,54.26454162597656,-28.777820587158203,-33.73362731933594,123.45881652832031
0,321190,11.90730094909668,-17.601154327392578,4.014004707336426,-130.2096405029297
0,321193,-38.59542465209961,-22.62396812438965,-6.837610721588135,-117.43537139892578
0,321194,-9.050599098205566,4.15911340713501,-0.11357691884040833,19.16120147705078
0,321197,-47.492767333984375,9.57069206237793,-11.197675704956055,-7.270979881286621
0,321198,-56.957279205322266,-22.86604118347168,-6.929286956787109,0.3697141110897064
0,321201,63.322505950927734,25.108131408691406,23.061471939086914,87.82844543457031
0,321202,51.060672760009766,24.35050392150879,-28.410778045654297,-28.515039443969727
0,321205,5.6485395431518555,-22.281129837036133,-11.257311820983887,-99.31439208984375
0,321206,20.389331817626953,-11.58591079711914,33.13807678222656,128.0662078857422
0,321209,-35.68659210205078,13.948018074035645,7.435417175292969,96.23430633544922
0,321210,-15.0491943359375,28.78462791442871,-1.1093671321868896,-132.83187866210938
0,321213,13.653203964233398,-18.906497955322266,15.218311309814453,-59.293174743652344
0,321214,-24.767295837402344,-28.14714241027832,-6.705612659454346,43.935428619384766
0,321217,0.8746004104614258,36.04536819458008,-28.10340690612793,-9.486065864562988
0,321218,22.09906005859375,19.356016159057617,-33.94806671142578,-19.778554916381836
0,321221,-20.876493453979492,-29.163986206054688,-27.469018936157227,47.16556930541992
0,321222,-13.9625825881958,-8.531787872314453,58.45328140258789,-6.688118934631348
0,321225,-6.964073181152344,20.314884185791016,87.07958221435547,-63.29328536987305
0,321226,-14.753006935119629,0.695917010307312,-17.32896614074707,86.68521881103516
0,321229,77.9346923828125,-8.927995681762695,-99.4671401977539,98.50100708007812
0,321230,107.41276550292969,7.530646324157715,-27.36787223815918,-75.8764877319336
0,321233,-62.121768951416016,6.269750118255615,75.8848648071289,-90.08224487304688
0,321234,-114.83574676513672,-20.17047691345215,29.242942810058594,6.70602560043335
0,321237,-23.310869216918945,-13.503555297851562,-32.425872802734375,12.30558967590332
0,321238,2.194178819656372,6.325860977172852,-0.3291786015033722,13.675398826599121
0,321241,43.88518142700195,13.569284439086914,-6.1614580154418945,56.241207122802734
0,321242,14.323516845703125,-8.921038627624512,-15.309532165527344,-64.70094299316406
0,321245,-25.033689498901367,-16.826059341430664,14.756179809570312,-79.9626235961914
0,321246,13.314493179321289,8.75986385345459,0.4176877439022064,135.53355407714844
0,321249,12.570853233337402,-15.461858749389648,1.6637974977493286,95.00765228271484
0,321250,3.9248814582824707,20.875368118286133,8.092265129089355,-118.12079620361328
0,321253,10.244155883789062,49.73904800415039,-1.3515292406082153,-74.00126647949219
0,321254,-12.658987998962402,-27.960403442382812,-16.54279136657715,59.0937614440918
0,321257,-21.115657806396484,-38.87419891357422,-7.851655006408691,19.063159942626953
0,321258,33.81422424316406,13.341880798339844,13.805871963500977,-0.5698598623275757
0,321261,20.056642532348633,19.06712532043457,17.695621490478516,26.515380859375
0,321262,-40.7642936706543,-12.208965301513672,6.192057132720947,-90.57658386230469
0,321265,-1.0950865745544434,7.86392879486084,-32.8360710144043,-72.85099792480469
0,321266,4.5617475509643555,2.995487928390503,-11.640399932861328,145.19602966308594
0,321269,-5.363668918609619,-27.275232315063477,31.145612716674805,84.16590881347656
0,321270,7.174958229064941,30.071205139160156,13.992984771728516,-103.3762435913086
0,321273,-18.823253631591797,10.995105743408203,-15.325020790100098,-53.39482116699219
0,321274,-2.9058892726898193,-44.6991081237793,-14.907888412475586,39.3870735168457
0,321277,38.04704666137695,-5.288835048675537,-10.832527160644531,17.89566421508789
0,321278,22.580644607543945,30.184141159057617,10.784774780273438,9.950462341308594
0,321281,-39.66557312011719,12.797863960266113,26.54747772216797,47.285491943359375
0,321282,-12.777151107788086,-18.595169067382812,-13.54301643371582,-65.25414276123047
0,321285,8.812009811401367,1.978559970855713,-14.920654296875,-119.07759094238281
0,321286,-8.25724983215332,31.059438705444336,37.61958312988281,108.79818725585938
0,321289,30.392499923706055,-8.294304847717285,21.26387596130371,137.5663604736328
0,321290,11.908242225646973,-9.26626968383789,-36.26502990722656,-120.98416137695312
0,321293,-42.922664642333984,-9.740400314331055,-26.4119873046875,-102.73664855957031
0,321294,-28.3917293548584,-12.986372947692871,-0.6227068901062012,93.80924987792969
0,321297,5.283297061920166,21.294294357299805,-5.777334213256836,13.625933647155762
0,321298,34.49055480957031,-12.59122085571289,7.859317779541016,-32.68767547607422
0,321301,40.336158752441406,-21.14198875427246,6.044167518615723,82.33525848388672
0,321302,-7.088339805603027,-7.101790428161621,-5.244596481323242,-61.55598449707031
0,321305,-36.393035888671875,-8.36131763458252,5.2078351974487305,-117.87508392333984
0,321306,19.241714477539062,31.69989585876465,11.271734237670898,135.96910095214844
0,321309,24.44641876220703,38.58953094482422,22.571443557739258,120.49708557128906
0,321310,-56.874122619628906,-3.875105381011963,3.3888022899627686,-99.92285919189453
0,321313,-29.3196964263916,-33.15275955200195,-35.62459182739258,-99.60804748535156
0,321314,20.73434066772461,0.48492950201034546,-10.482789039611816,1.8609777688980103
0,321317,23.16425323486328,18.7569637298584,22.06850814819336,48.88261032104492
0,321318,13.143671035766602,-17.20416831970215,0.47055360674858093,71.4570541381836
0,321321,-4.045313835144043,9.342107772827148,0.34573784470558167,21.675121307373047
0,321322,-7.863149642944336,14.31064224243164,1.250680685043335,-95.78072357177734
0,321325,-23.121885299682617,-35.04467010498047,-23.72516632080078,-87.91963195800781
0,321326,16.644207000732422,5.460633754730225,-2.8493869304656982,113.04448699951172
0,321329,29.976497650146484,26.510393142700195,25.42286491394043,111.29041290283203
0,321330,-16.61437225341797,-39.068763732910156,-13.068549156188965,-139.51669311523438
0,321333,-4.244358062744141,-8.224757194519043,6.7827653884887695,-104.00823974609375
0,321334,5.980251312255859,45.82284164428711,-8.399529457092285,96.60810852050781
0,321337,3.9051568508148193,0.5834254622459412,14.672628402709961,58.62445068359375
0,321338,-23.595182418823242,-7.491958141326904,100.79631805419922,-26.11899757385254
0,321341,-5.380211353302002,9.108136177062988,-46.53254318237305,24.449033737182617
0,321342,42.06533432006836,-11.412725448608398,-84.65707397460938,-37.258663177490234
0,321345,-58.23094940185547,-22.611352920532227,-1.7232604026794434,-98.02301025390625
0,321346,-32.8600959777832,18.973783493041992,-3.6860361099243164,111.68592834472656
0,321349,99.20429229736328,27.436506271362305,-25.864927291870117,104.58953857421875
0,321350,45.41361999511719,-53.86012649536133,-15.807669639587402,-140.22645568847656
0,321353,-30.08497428894043,-2.8327860832214355,114.8377685546875,-51.32526397705078
0,321354,-61.221519470214844,38.16883850097656,57.809513092041016,97.44512176513672
0,321357,-70.37511444091797,0.4612554609775543,-100.05734252929688,1.2872953414916992
0,321358,43.116859436035156,3.2781243324279785,-81.94615936279297,-6.5197882652282715
0,321361,126.06869506835938,-27.546327590942383,-58.147857666015625,40.34933090209961
0,321362,-43.4360237121582,4.561773300170898,46.549739837646484,-88.22869110107422
0,321365,-137.2992706298828,8.3302640914917,213.03286743164062,-38.61587142944336
0,321366,34.576446533203125,-14.476421356201172,64.39681243896484,145.37631225585938
0,321369,144.3615264892578,18.758773803710938,-162.5487518310547,17.10114288330078
0,321370,-15.267972946166992,-1.2619304656982422,-100.64874267578125,-140.15985107421875
0,321373,-115.49203491210938,3.4479286670684814,37.310997009277344,-36.166481018066406
0,321377,16.805360794067383,11.345952033996582,50.05561065673828,33.950443267822266
0,321377,38.113014221191406,-29.357696533203125,-18.233896255493164,11.332037925720215
0,321378,29.357614517211914,-11.010295867919922,-0.6574140191078186,58.525901794433594
0,321381,-10.654035568237305,44.15275573730469,27.477136611938477,50.90601348876953
0,321382,-35.1623420715332,11.750475883483887,8.255669593811035,-74.75065612792969
0,321385,80.58365631103516,-42.52995681762695,-5.037333965301514,-95.49808502197266
0,321386,0.2720099091529846,10.528943061828613,-40.193607330322266,117.14762115478516
0,321389,-133.60836791992188,11.342758178710938,-6.31283712387085,130.43978881835938
0,321390,-2.5177900791168213,-33.907711029052734,38.18653106689453,-102.61966705322266
0,321393,66.12017822265625,-12.294150352478027,-4.936122894287109,-117.18463134765625
0,321394,-10.834573745727539,24.533205032348633,-11.446707725524902,47.67341613769531
0,321397,11.890998840332031,15.551163673400879,9.921669006347656,64.4781265258789
0,321398,9.746028900146484,-3.4402787685394287,9.880929946899414,-3.966191291809082
0,321401,-23.404033660888672,10.649482727050781,5.225955963134766,11.476470947265625
0,321402,9.41894245147705,-20.062040328979492,-22.721662521362305,-71.19099426269531
0,321405,-14.02453327178955,-5.918191909790039,-16.750608444213867,-79.98912048339844
0,321406,-16.01938247680664,23.749963760375977,4.1287522315979,109.07633972167969
0,321409,33.534629821777344,-12.94461441040039,11.709246635437012,89.31035614013672
0,321410,11.097278594970703,-12.374942779541016,10.886905670166016,-67.24834442138672
0,321413,-7.0892510414123535,3.4743759632110596,0.6084361672401428,-73.61465454101562
0,321414,5.316793441772461,-5.23378324508667,-4.588196277618408,11.591772079467773
0,321417,-4.152985095977783,17.771766662597656,5.645619869232178,48.24380874633789
0,321418,-13.94699478149414,21.821308135986328,13.003945350646973,16.992441177368164
0,321421,3.9943673610687256,-26.62763023376465,-18.5789852142334,30.10773277282715
0,321422,11.896397590637207,-13.537790298461914,-28.41495132446289,-70.51529693603516
0,321425,-5.959972858428955,2.8353915214538574,-5.589427947998047,-112.41707611083984
0,321426,-17.440555572509766,7.137075424194336,25.25615882873535,94.33699035644531
0,321429,84.34548950195312,7.485695838928223,13.77952766418457,111.88843536376953
0,321430,22.71906852722168,-5.188259124755859,-18.95457649230957,-63.49923324584961
0,321433,-155.8556365966797,23.627361297607422,-5.195066928863525,-83.57452392578125
0,321434,14.972013473510742,12.538612365722656,2.945596933364868,47.08497619628906
0,321437,90.0760498046875,-29.470190048217773,25.198108673095703,52.813724517822266
0,321438,-41.095489501953125,4.794058322906494,17.260238647460938,-19.620174407958984
0,321441,2.0765953063964844,14.624266624450684,-39.00568389892578,33.588199615478516
0,321442,10.591093063354492,-38.0565071105957,-16.482864379882812,-64.36951446533203
0,321445,-78.49917602539062,0.8405714631080627,25.281238555908203,-107.71906280517578
0,321446,-2.1287014484405518,26.281248092651367,8.179804801940918,134.50942993164062
0,321449,84.40579223632812,-15.940476417541504,5.889209270477295,109.04471588134766
0,321450,-5.049127101898193,-3.6552741527557373,-13.625678062438965,-113.12789154052734
0,321453,-24.889223098754883,18.05542755126953,-35.56949996948242,-55.465919494628906
0,321454,20.321191787719727,-15.506671905517578,15.685111045837402,59.902183532714844
0,321457,-35.74673843383789,-23.097063064575195,74.83839416503906,-7.632289409637451
0,321458,-19.812593460083008,19.92017364501953,23.358619689941406,-2.462646007537842
0,321461,86.63191223144531,14.012191772460938,-107.20305633544922,37.261680603027344
0,321462,53.74979782104492,-10.857101440429688,-45.046531677246094,-70.19499206542969
0,321465,-45.32942581176758,24.02529525756836,90.04424285888672,-70.85183715820312
0,321466,-88.18551635742188,10.754178047180176,20.604503631591797,128.3308868408203
0,321469,-0.217097669839859,-16.197084426879883,-39.268959045410156,86.45767211914062
0,321470,57.972015380859375,-1.9041551351547241,-15.556084632873535,-124.67501068115234
0,321473,-31.965017318725586,-27.050155639648438,10.303791046142578,-53.05244827270508
0,321474,1.2464916706085205,6.392279624938965,17.722225189208984,61.189453125
0,321477,36.20233917236328,17.094989776611328,-0.7772002220153809,1.2474838495254517
0,321478,-10.262643814086914,-35.394405364990234,-30.93811798095703,11.405064582824707
0,321481,-3.97147536277771,14.921316146850586,-42.008975982666016,73.4964828491211
0,321482,-21.516698837280273,22.26250457763672,41.33236312866211,-80.4498062133789
0,321485,-26.196985244750977,-26.633697509765625,50.25515365600586,-110.6885986328125
0,321486,42.44418716430664,11.59387493133545,-1.825065016746521,122.10301971435547
0,321489,60.767608642578125,17.74262046813965,2.626810312271118,85.89186096191406
0,321490,-20.499244689941406,-9.781726837158203,-70.44989776611328,-118.84898376464844
0,321493,-37.52001190185547,2.1651976108551025,2.600100517272949,-60.90711212158203
0,321494,-6.340063571929932,9.26163101196289,120.66069793701172,64.05938720703125
0,321497,-13.583996772766113,1.9291627407073975,-18.82334327697754,34.07359313964844
0,321498,-18.22170066833496,-18.19577980041504,-71.19221496582031,8.284090042114258
0,321501,32.03339767456055,-25.35420036315918,-8.012996673583984,36.62251663208008
0,321502,28.208942413330078,18.297916412353516,5.669744491577148,-68.60790252685547
0,321505,-44.88300704956055,32.15349197387695,34.76839065551758,-123.9692611694336
0,321506,-18.174041748046875,-15.054593086242676,-7.902236461639404,91.4317855834961
0,321509,9.617136001586914,-21.874343872070312,-52.23317337036133,137.13113403320312
0,321510,1.8340154886245728,3.4105241298675537,8.081293106079102,-61.80873489379883
0,321513,19.038171768188477,11.087849617004395,19.82525062561035,-84.9803466796875
0,321514,29.79695701599121,-4.273195743560791,-13.193771362304688,42.53135299682617
0,321517,-6.231649875640869,2.8350822925567627,16.784099578857422,24.240413665771484
0,321518,-16.035037994384766,37.66160202026367,14.062928199768066,-35.777278900146484
0,321521,29.051488876342773,-12.478616714477539,-11.458237648010254,54.63441467285156
0,321522,-3.613341808319092,-40.32160568237305,8.587756156921387,-11.845342636108398
0,321525,-27.796545028686523,-4.349329948425293,-4.992864608764648,-105.89339447021484
0,321526,-0.5300350189208984,9.939231872558594,-12.370482444763184,98.60111999511719
0,321529,-1.5988993644714355,11.532437324523926,19.6135196685791,88.80973815917969
0,321530,-2.9764697551727295,-17.268596649169922,-0.8260112404823303,-122.1566162109375
0,321533,-6.133378028869629,4.478350639343262,-27.72369956970215,-71.55587768554688
0,321534,14.495463371276855,13.963993072509766,15.247426986694336,61.32722854614258
0,321537,25.939468383789062,-10.26865291595459,19.279815673828125,36.45850372314453
0,321538,3.88439679145813,6.470056533813477,-19.685789108276367,-2.2216670513153076
0,321541,-37.73397445678711,-4.663122177124023,13.790153503417969,71.22885131835938
0,321542,-47.038326263427734,12.0542573928833,25.444744110107422,-52.349185943603516
0,321545,43.75265884399414,30.330568313598633,-33.73040771484375,-144.95811462402344
0,321546,38.52663803100586,-14.344254493713379,-7.907792091369629,119.80270385742188
0,321549,-35.11449432373047,-16.918407440185547,18.445959091186523,117.19332122802734
0,321550,-24.581789016723633,-9.669740676879883,3.0630974769592285,-152.1750030517578
0,321553,3.9965152740478516,-7.698047161102295,-7.003720283508301,-51.55342102050781
0,321554,31.94092559814453,15.146478652954102,-113.86668395996094,98.69429016113281
0,321557,22.146305084228516,-5.791034698486328,28.446176528930664,3.2018814086914062
0,321558,-9.260135650634766,-3.24699068069458,209.27706909179688,5.406826496124268
0,321561,-49.477081298828125,20.017581939697266,1.557726502418518,25.838096618652344
0,321562,-40.69518280029297,-6.120810508728027,-109.50691986083984,-87.08455657958984
0,321565,70.10105895996094,-11.280620574951172,-75.28185272216797,-55.581058502197266
0,321566,41.766414642333984,5.1404242515563965,-33.18791198730469,108.25389862060547
0,321569,-44.93818664550781,-1.2646838426589966,70.28079223632812,94.84249877929688
0,321570,3.6382362842559814,7.910138130187988,42.01387023925781,-96.59807586669922
0,321573,-6.846768379211426,11.916337966918945,-25.794748306274414,-120.87994384765625
0,321574,16.174339294433594,-16.02982521057129,-6.40506649017334,71.73588562011719
0,321577,3.3360116481781006,-33.267581939697266,-10.400847434997559,59.120941162109375
0,321578,-44.809593200683594,-14.5205078125,-11.532737731933594,-7.730291843414307
0,321581,58.96231460571289,25.521039962768555,4.9856462478637695,56.856048583984375
0,321582,19.876657485961914,32.599300384521484,22.10005760192871,-66.62185668945312
0,321585,-50.63103485107422,14.436922073364258,25.855854034423828,-84.50180053710938
0,321586,19.334333419799805,0.18083177506923676,-9.480671882629395,112.00776672363281
0,321589,7.694096088409424,-40.174686431884766,-9.028350830078125,42.287654876708984
0,321590,-16.346940994262695,-16.49407196044922,16.18988037109375,-128.68740844726562
0,321593,12.897284507751465,45.56599426269531,4.85573673248291,-43.21681213378906
0,321597,-24.9172420501709,-3.8262553215026855,-24.86603355407715,42.73478317260742
0,321597,-37.50496292114258,-25.767057418823242,-16.81777000427246,64.07606506347656
0,321599,26.194120407104492,19.33563232421875,-5.405839920043945,84.36273193359375
0,321601,14.246726989746094,5.192981243133545,-6.35070276260376,-22.703399658203125
0,321603,-18.499958038330078,-21.953489303588867,-9.604747772216797,-126.96299743652344
0,321605,8.63662338256836,-17.307714462280273,20.627094268798828,7.4971842765808105
0,321607,30.950698852539062,11.391775131225586,49.605079650878906,167.79623413085938
0,321609,-0.7141194343566895,8.818724632263184,-2.8905553817749023,-61.60178756713867
0,321611,-19.522716522216797,-4.247499942779541,-30.56747055053711,-163.74688720703125
0,321613,7.422140598297119,15.336467742919922,-8.572360038757324,42.10654067993164
0,321615,1.400887370109558,14.516556739807129,3.5744075775146484,81.26660919189453
0,321617,-6.769272327423096,-2.8451902866363525,-2.0420360565185547,11.309836387634277
0,321619,5.349902153015137,-17.799335479736328,-9.190922737121582,-28.513038635253906
0,321621,-9.725783348083496,-2.3159255981445312,9.641858100891113,17.318496704101562
0,321623,-17.30523109436035,24.07957649230957,19.74201202392578,-31.61173439025879
0,321625,20.48804473876953,-20.251815795898438,-24.914932250976562,-35.44645690917969
0,321627,11.843583106994629,-35.25252914428711,1.678387999534607,119.413330078125
0,321629,-16.492549896240234,28.48766326904297,32.53913116455078,1.4562296867370605
0,321631,23.592439651489258,13.537325859069824,-5.266425132751465,-124.72998809814453
0,321633,-10.164691925048828,-5.341466903686523,-23.555313110351562,-11.82729721069336
0,321635,-48.763427734375,11.321123123168945,-6.538825511932373,72.22183227539062
0,321637,22.28430938720703,-9.653444290161133,68.6135025024414,30.304975509643555
0,321639,29.42820930480957,-10.071053504943848,-5.0914130210876465,-37.9415283203125
0,321641,34.482261657714844,13.836225509643555,-83.55940246582031,-16.101959228515625
0,321643,-28.310274124145508,16.865503311157227,-2.5392534732818604,-69.84099578857422
0,321645,-61.96784591674805,-19.393383026123047,-17.939067840576172,34.547550201416016
0,321647,124.60281372070312,-18.49874496459961,2.556887149810791,182.42848205566406
0,321649,-22.25542640686035,3.0731160640716553,78.06258392333984,-43.12075424194336
0,321651,-186.4916534423828,5.7996907234191895,1.5387531518936157,-151.54833984375
0,321653,92.99488830566406,15.566129684448242,-57.05686569213867,-0.5604048371315002
0,321655,99.11199951171875,5.8877949714660645,-9.253654479980469,64.1669921875
0,321657,-75.670166015625,5.020063877105713,11.686342239379883,-0.9964850544929504
0,321659,-3.3183679580688477,-6.009000778198242,24.660524368286133,-3.5854194164276123
0,321661,7.7913970947265625,-31.350767135620117,85.74064636230469,52.8387451171875
0,321663,-58.2622184753418,7.084460735321045,19.872787475585938,-68.57744598388672
0,321665,38.42445373535156,5.598180770874023,-135.3443145751953,-33.74789810180664
0,321667,165.7109375,-19.528423309326172,-43.92156982421875,150.5040283203125
0,321669,-27.21103858947754,18.329957962036133,74.61772155761719,-23.146387100219727
0,321671,-200.0704803466797,0.8550189733505249,-7.902944087982178,-169.2157745361328
0,321673,7.973020553588867,-2.722013235092163,-1.9332637786865234,6.533539295196533
0,321675,95.16069030761719,8.605026245117188,32.99545669555664,105.74750518798828
0,321677,13.933053016662598,-8.186469078063965,-24.889726638793945,39.790836334228516
0,321679,12.747203826904297,7.807340621948242,-20.22021484375,-25.874248504638672
0,321681,-21.217920303344727,-6.674003601074219,5.035348892211914,-31.735931396484375
0,321683,-53.999229431152344,-0.9468826055526733,5.0618815422058105,-60.35824966430664
0,321685,-5.759646415710449,9.473514556884766,2.5775156021118164,12.118163108825684
0,321687,35.68486404418945,-6.152020454406738,19.821300506591797,144.39004516601562
0,321689,22.16676139831543,23.866146087646484,23.308753967285156,-23.610212326049805
0,321691,-21.082538604736328,-4.659486293792725,-30.053104400634766,-154.24981689453125
0,321693,-20.009130477905273,-47.11744689941406,-20.49826431274414,20.65537452697754
0,321695,22.693531036376953,27.92527198791504,11.608009338378906,99.93224334716797
0,321697,30.486648559570312,65.85884094238281,10.429147720336914,-6.302757740020752
0,321699,9.871938705444336,-25.21996307373047,7.176187992095947,-17.51192283630371
0,321701,-16.93388557434082,-52.08543014526367,-10.75741195678711,15.127503395080566
0,321703,-32.93585968017578,-11.630792617797852,-22.227920532226562,-85.58123016357422
0,321705,-26.29755973815918,8.44201946258545,-14.677857398986816,-1.2251534461975098
0,321707,17.478010177612305,27.522390365600586,9.976263046264648,148.93560791015625
0,321709,24.933246612548828,-7.826869010925293,20.139999389648438,-46.590938568115234
0,321711,-33.60237503051758,-11.291708946228027,50.03544616699219,-124.19715881347656
0,321713,1.542708158493042,12.35341739654541,50.16911315917969,36.56298065185547
0,321715,101.64986419677734,-11.878116607666016,-41.52272415161133,85.33295440673828
0,321717,-6.042685031890869,-17.33955192565918,-120.32315826416016,15.729039192199707
0,321719,-102.53241729736328,-5.681907653808594,-59.94635009765625,-38.862648010253906
0,321721,-0.9464737772941589,31.225183486938477,93.28109741210938,-10.147225379943848
0,321723,16.55846405029297,18.804458618164062,67.56674194335938,-61.50967025756836
0,321725,70.07019805908203,-26.27166175842285,-18.01956558227539,-14.160126686096191
0,321727,52.840362548828125,13.090668678283691,20.86284065246582,128.5859832763672
0,321729,-129.74916076660156,22.68389892578125,-11.645273208618164,-8.175960540771484
0,321731,-54.238304138183594,-7.179428577423096,-40.23352813720703,-115.10735321044922
0,321733,73.56615447998047,-20.648530960083008,-14.999862670898438,10.141103744506836
0,321735,-23.551828384399414,-13.355998039245605,-27.8456974029541,91.29559326171875
0,321737,-42.62900161743164,11.547560691833496,43.14947509765625,14.658157348632812
0,321739,78.0364761352539,11.821844100952148,20.8966007232666,-64.29129791259766
0,321741,41.72269058227539,-13.52883529663086,-25.587923049926758,-0.8579016923904419
0,321743,-112.1955337524414,-5.413396835327148,91.94033813476562,-81.55721282958984
0,321745,-14.75805377960205,15.448287963867188,9.008708953857422,-7.2846455574035645
0,321747,165.29127502441406,-7.587916851043701,-134.12106323242188,214.20736694335938
0,321749,27.354585647583008,2.9108798503875732,3.5763070583343506,-23.975643157958984
0,321751,-137.48092651367188,16.26241111755371,107.60926055908203,-162.3337860107422
0,321753,-31.28353500366211,-9.942623138427734,0.8301692605018616,8.079253196716309
0,321755,71.3027114868164,-12.229108810424805,-70.20693969726562,89.87447357177734
0,321757,20.693010330200195,-10.169547080993652,-35.38486099243164,43.42283630371094
0,321759,-13.110343933105469,-12.559220314025879,30.222679138183594,-39.1072998046875
0,321761,-26.397253036499023,22.843563079833984,21.953523635864258,-19.129545211791992
0,321763,-36.91862106323242,25.777555465698242,-11.134258270263672,-65.59111022949219
0,321765,28.801898956298828,-10.282668113708496,-4.399163246154785,-4.9639506340026855
0,321767,36.49918746948242,-14.572932243347168,-15.881840705871582,164.55703735351562
0,321769,-30.374773025512695,-1.787885069847107,-2.4517202377319336,-32.222469329833984
0,321771,-2.1058380603790283,10.63666820526123,34.75684356689453,-161.1389617919922
0,321773,-6.2665534019470215,-19.649141311645508,-3.908935785293579,27.52839469909668
0,321775,-11.045475006103516,-11.621136665344238,-31.86658477783203,92.67852020263672
0,321777,22.235448837280273,23.692794799804688,29.461204528808594,10.840699195861816
0,321779,-10.616023063659668,6.856128215789795,1.9582405090332031,-45.700374603271484
0,321781,68.2225570678711,17.427499771118164,-2.1281700134277344,-0.8394779562950134
0,321783,1.6097112894058228,-6.681868553161621,16.519630432128906,-37.73158645629883
0,321785,-42.04251480102539,-23.856216430664062,-13.852753639221191,11.128552436828613
0,321787,32.71906280517578,18.941646575927734,17.459686279296875,142.47369384765625
0,321788,-80.84705352783203,9.237467765808105,-14.520376205444336,-34.84478759765625
0,321791,-22.734214782714844,-23.867643356323242,-19.628440856933594,-170.1816864013672
0,321792,44.34148406982422,-15.463581085205078,8.661666870117188,-9.308191299438477
0,321795,3.6931376457214355,12.072503089904785,6.899721145629883,128.21409606933594
0,321796,7.997236251831055,-9.522842407226562,29.676071166992188,12.541975975036621
0,321799,-7.9999284744262695,0.8441711664199829,-12.680951118469238,-37.871734619140625
0,321800,-13.2853364944458,29.4442138671875,-31.170251846313477,25.516267776489258
0,321803,-6.896462440490723,-6.780889511108398,-22.968263626098633,-80.2925033569336
0,321804,9.593755722045898,-14.353973388671875,-0.49119722843170166,-74.65736389160156
0,321807,54.90497970581055,-10.508679389953613,39.27588653564453,142.04112243652344
0,321808,7.4706339836120605,7.757865905761719,-2.4929611682891846,108.6234130859375
0,321811,-76.85012817382812,11.381750106811523,-13.102032661437988,-127.78114318847656
0,321812,26.513591766357422,-8.449048042297363,-35.197288513183594,-49.938133239746094
0,321815,51.252689361572266,12.794317245483398,33.0364990234375,97.56622314453125
0,321816,-16.927322387695312,23.660470962524414,140.78309631347656,15.824555397033691
0,321819,-25.16839599609375,-3.4866063594818115,-18.024137496948242,-65.38776397705078
0,321820,-28.151330947875977,-43.10697555541992,-86.88380432128906,-21.955963134765625
0,321823,2.982616424560547,-15.992218971252441,-54.32181930541992,-0.20982590317726135
0,321824,-3.9905881881713867,40.741878509521484,-35.57351303100586,-72.54441833496094
0,321829,14.968729972839355,12.20739459991455,18.55745506286621,91.06096649169922
0,321829,30.244068145751953,-13.008346557617188,-7.634922981262207,142.25723266601562
0,321830,-31.259435653686523,-5.765674114227295,22.49901580810547,-127.71796417236328
0,321833,18.184009552001953,-22.415199279785156,55.451927185058594,-86.31900024414062
0,321834,78.81848907470703,21.05451011657715,7.418160438537598,84.64019775390625
0,321837,-57.38497543334961,19.69011688232422,-28.99909210205078,11.958547592163086
0,321838,-85.2621078491211,-28.832796096801758,-31.259288787841797,-31.31831932067871
0,321841,26.066238403320312,20.063617706298828,9.5010347366333,62.36178207397461
0,321842,-21.43975830078125,-4.859809875488281,62.396392822265625,-33.708091735839844
0,321845,5.260232925415039,-27.270437240600586,-45.77083206176758,-28.8541259765625
0,321846,175.83021545410156,49.659053802490234,-20.8107967376709,122.15235900878906
0,321849,12.583030700683594,2.4523160457611084,117.6052017211914,-60.447715759277344
0,321850,-201.25238037109375,-33.976768493652344,-16.508989334106445,-144.37850952148438
0,321853,-36.85652160644531,-8.813604354858398,-79.20257568359375,29.619054794311523
0,321854,60.95536422729492,-14.924097061157227,-19.577735900878906,109.64632415771484
0,321857,41.504390716552734,17.641569137573242,-30.12278938293457,37.04937744140625
0,321858,16.052459716796875,10.56878662109375,9.86301040649414,-55.66518783569336
0,321861,-34.237789154052734,2.066920042037964,26.23521614074707,-63.43537521362305
0,321862,-20.169843673706055,-11.302105903625488,-0.4719223082065582,-42.75877380371094
0,321865,117.88839721679688,-17.588756561279297,13.799641609191895,88.46458435058594
0,321866,41.849525451660156,20.426441192626953,18.91801643371582,112.63372039794922
0,321869,-187.3859405517578,13.759136199951172,20.719388961791992,-84.82251739501953
0,321870,-29.76498031616211,-1.00814950466156,-15.389254570007324,-104.6114501953125
0,321873,81.9367904663086,-8.138333320617676,-43.10082244873047,-17.612625122070312
0,321874,10.742894172668457,14.867243766784668,2.3709418773651123,53.686805725097656
0,321877,40.4080810546875,26.46917724609375,17.104307174682617,99.166748046875
0,321878,19.16652488708496,-7.180351734161377,31.162443161010742,-7.184655666351318
0,321881,-66.08153533935547,-15.28743839263916,10.665840148925781,-48.16014862060547
0,321882,-63.61152648925781,-42.58211135864258,-36.65068817138672,-52.60172653198242
0,321885,16.521085739135742,-27.111591339111328,3.16131591796875,12.381428718566895
0,321886,31.30528450012207,38.375003814697266,-14.906954765319824,130.7139892578125
0,321889,23.540769577026367,21.530445098876953,-3.209238290786743,-59.056095123291016
0,321890,4.4550347328186035,0.9270880222320557,46.14631271362305,-125.67941284179688
0,321893,51.79927444458008,0.2687527537345886,-10.913646697998047,39.345924377441406
0,321894,69.01836395263672,-20.038732528686523,-40.42110061645508,67.00642395019531
0,321897,-70.89616394042969,-7.282342433929443,-29.557600021362305,40.835174560546875
0,321898,-66.44139099121094,4.332766532897949,-17.2713565826416,-14.892961502075195
0,321901,-40.05303192138672,14.892640113830566,40.72203063964844,-19.41537857055664
0,321902,-84.92149353027344,16.538908004760742,82.8158950805664,-67.71265411376953
0,321905,58.90725326538086,-11.921647071838379,-73.74296569824219,-12.234496116638184
0,321906,108.64000701904297,-13.104655265808105,-15.570972442626953,125.26335144042969
0,321909,-60.53146743774414,2.597001314163208,185.36178588867188,-67.6247329711914
0,321910,16.779069900512695,4.928979396820068,-35.23942565917969,-89.37724304199219
0,321913,85.98649597167969,21.611021041870117,-207.1776580810547,124.15792083740234
0,321914,-14.395140647888184,7.327124118804932,-78.33029174804688,58.49697494506836
0,321917,-41.71246337890625,-32.554527282714844,131.5615234375,-102.2216796875
0,321918,-59.950531005859375,-27.637418746948242,113.88504028320312,-70.35028076171875
0,321921,25.620288848876953,20.575748443603516,-74.80137634277344,74.19200134277344
0,321922,28.297313690185547,49.722007751464844,-57.9190559387207,-14.44196891784668
0,321925,-19.222726821899414,-17.366138458251953,21.427921295166016,-6.871005535125732
0,321926,15.21869945526123,-38.782630920410156,38.39283752441406,141.86495971679688
0,321929,-14.78233528137207,-7.92993688583374,1.1247117519378662,-73.59520721435547
0,321930,-49.98768997192383,-0.2437831610441208,-18.092100143432617,-149.62940979003906
0,321933,-8.624794006347656,33.694610595703125,40.01025390625,21.7002010345459
0,321934,68.40753173828125,3.1550183296203613,32.06241989135742,73.99243927001953
0,321937,26.2612247467041,-28.199268341064453,-26.80615234375,53.39680480957031
0,321938,-25.561002731323242,-2.7961995601654053,-7.546597957611084,-14.228516578674316
0,321941,-18.749940872192383,25.811359405517578,-41.687477111816406,17.920122146606445
0,321942,-27.074575424194336,16.900794982910156,-73.54707336425781,-38.75893783569336
0,321945,60.31426239013672,-28.044342041015625,52.69788360595703,-60.195899963378906
0,321946,71.38026428222656,2.0058400630950928,88.66558074951172,125.39227294921875
0,321949,-24.30415916442871,14.041150093078613,-9.89199447631836,-39.88465118408203
0,321950,-96.22730255126953,-4.2524027824401855,-51.9087028503418,-147.86949157714844
0,321953,-69.15565490722656,13.622041702270508,-5.260809421539307,70.5252914428711
0,321954,88.14900970458984,-26.40807342529297,26.44857406616211,67.15835571289062
0,321957,49.93513107299805,-18.517839431762695,-1.8522361516952515,10.227405548095703
0,321958,-21.646268844604492,31.47247314453125,-13.565313339233398,10.625831604003906
0,321961,22.076929092407227,-2.053485631942749,-9.366015434265137,-19.65156364440918
0,321962,-22.40226173400879,2.7775018215179443,23.176509857177734,-103.37284088134766
0,321965,-19.208555221557617,15.248337745666504,30.586538314819336,-20.136978149414062
0,321966,28.723201751708984,-23.076269149780273,-33.05916976928711,178.43484497070312
0,321969,-3.8598616123199463,-20.475337982177734,-48.862850189208984,6.519254207611084
0,321970,-45.46359634399414,-13.400440216064453,-36.18901062011719,-134.56137084960938
0,321973,-32.51683807373047,-1.1279656887054443,5.113072872161865,3.1596362590789795
0,321974,33.189537048339844,37.274959564208984,95.03956604003906,77.12997436523438
0,321977,39.743560791015625,26.7618350982666,40.19883728027344,9.379012107849121
0,321978,-18.548357009887695,-2.244368314743042,-17.195878982543945,-35.58852767944336
0,321981,11.290367126464844,1.288789987564087,31.61336898803711,7.0359392166137695
0,321982,-4.967891216278076,-10.077967643737793,-8.765954971313477,-73.80278778076172
0,321985,-46.79986572265625,-24.77274513244629,-87.58638763427734,8.137697219848633
0,321986,14.538342475891113,-15.00424861907959,-54.71239471435547,160.0213165283203
0,321989,72.77923583984375,7.303978443145752,54.67304992675781,-70.845703125
0,321990,14.87492847442627,26.18824577331543,23.454853057861328,-149.39894104003906
0,321993,-113.72126770019531,-10.913177490234375,-52.955501556396484,70.41670989990234
0,321994,-31.358131408691406,-35.652626037597656,-9.791114807128906,101.30538177490234
0,321997,88.64057922363281,19.380266189575195,57.329952239990234,-8.43195629119873
0,321998,46.46465301513672,30.6803035736084,21.449254989624023,-30.213611602783203
0,322001,-31.470298767089844,-26.851402282714844,-3.3074541091918945,-29.765470504760742
0,322002,-68.95172119140625,-31.970645904541016,13.216082572937012,-127.28238677978516
0,322005,41.8995246887207,22.307193756103516,-35.83632278442383,39.667842864990234
0,322006,107.21018981933594,38.278411865234375,-9.914416313171387,242.69784545898438
0,322009,-49.05803680419922,9.120512962341309,-17.968568801879883,-26.144933700561523
0,322010,-105.0027084350586,-9.729564666748047,15.902853965759277,-142.41127014160156
0,322013,-1.7771813869476318,-7.186232566833496,83.69225311279297,-6.0175676345825195
0,322014,-4.733785629272461,-23.267086029052734,-34.19990539550781,23.22132110595703
0,322017,54.22983169555664,2.781020402908325,-54.229984283447266,19.167186737060547
0,322018,111.75091552734375,34.926414489746094,62.31843566894531,-10.823639869689941
0,322021,-57.01801681518555,-20.5014591217041,9.045173645019531,-0.9420827031135559
0,322022,-51.108646392822266,-3.2025115489959717,-91.84044647216797,-38.30177688598633
0,322025,17.164268493652344,36.601837158203125,-9.980141639709473,11.641907691955566
0,322027,-71.16063690185547,-32.26154708862305,52.126705169677734,112.03531646728516
0,322029,58.59574508666992,-20.607044219970703,26.02341651916504,-68.78500366210938
0,322031,46.62030029296875,31.36273956298828,-5.518520832061768,-110.48059844970703
0,322033,-104.11297607421875,-35.16987228393555,-50.50149154663086,49.247371673583984
0,322035,17.754789352416992,-17.724773406982422,-43.81449890136719,47.19468307495117
0,322037,54.958431243896484,40.333229064941406,58.36430358886719,40.00876998901367
0,322039,-31.010162353515625,-31.413463592529297,61.009010314941406,12.805728912353516
0,322041,47.711238861083984,18.612152099609375,-18.43622398376465,-69.18489837646484
0,322043,58.39547348022461,69.18359375,-18.121776580810547,-71.0886001586914
0,322045,-104.58728790283203,-41.570735931396484,-35.667659759521484,107.31405639648438
0,322047,-85.33203887939453,-15.08602523803711,36.41582489013672,143.09539794921875
0,322049,46.599571228027344,0.7191124558448792,24.578048706054688,-176.56239318847656
0,322051,57.35879135131836,-19.332042694091797,-81.36477661132812,-125.3448715209961
0,322052,38.050174713134766,39.70564270019531,2.8902108669281006,138.17208862304688
0,322055,5.067356586456299,-5.798252105712891,68.50170135498047,28.504106521606445
0,322056,-40.018836975097656,-28.83637809753418,10.235386848449707,-59.70734786987305
0,322059,-24.906288146972656,-9.572305679321289,-43.39735794067383,27.455062866210938
0,322060,-2.7352168560028076,-6.946456432342529,-32.01695251464844,49.310726165771484
0,322063,-17.560665130615234,1.9535341262817383,38.510108947753906,-76.34434509277344
0,322064,-1.8994064331054688,-11.463541984558105,27.992525100708008,-95.97513580322266
0,322067,31.6366024017334,22.081132888793945,-14.63012981414795,123.51555633544922
0,322068,28.49673843383789,44.09294128417969,33.20713806152344,110.09017944335938
0,322073,-10.020146369934082,8.383800506591797,-13.20212173461914,-153.5245361328125
0,322073,-25.83394432067871,-27.918283462524414,-50.55573272705078,-28.361652374267578
0,322075,22.961782455444336,-12.841988563537598,21.68828773498535,169.30393981933594
0,322076,34.73923873901367,24.611770629882812,5.952192783355713,-21.02201271057129
0,322079,-34.6993293762207,-4.315174102783203,-14.359838485717773,-125.74956512451172
0,322080,-18.08347511291504,-35.78453063964844,9.427963256835938,-6.262961387634277
0,322083,10.527597427368164,21.0098934173584,0.9986187219619751,18.040136337280273
0,322084,26.458982467651367,17.503324508666992,-17.213205337524414,-46.58256912231445
0,322087,29.34788703918457,-27.70802116394043,-0.24038641154766083,115.13582611083984
0,322088,-77.4752197265625,-10.071248054504395,23.08708381652832,127.243408203125
0,322091,-22.33310317993164,-22.70954132080078,-2.8803353309631348,-173.865966796875
0,322092,29.775653839111328,6.605219841003418,-19.754314422607422,-91.06293487548828
0,322095,-16.541452407836914,47.566978454589844,21.802724838256836,114.94733428955078
0,322096,19.41473960876465,0.325542151927948,9.101576805114746,44.46956253051758
0,322099,8.20437240600586,-7.396029949188232,-55.302268981933594,-1.0342775583267212
0,322100,-9.67238712310791,18.159902572631836,-3.1713757514953613,11.291539192199707
0,322103,19.741504669189453,-21.40420150756836,64.33889770507812,-81.50968933105469
0,322104,-16.689409255981445,-14.314811706542969,11.40502643585205,-106.59425354003906
0,322107,-37.67847442626953,11.981973648071289,-48.22976303100586,127.27684020996094
0,322108,101.06106567382812,4.998196125030518,-32.428653717041016,141.20196533203125
0,322111,57.98001480102539,4.4423604011535645,30.94463539123535,-161.1724090576172
0,322112,-128.8303985595703,-11.145355224609375,43.54290771484375,-80.4542465209961
0,322115,-50.33466339111328,-7.457873344421387,-11.713584899902344,135.5284423828125
0,322116,67.5522232055664,-4.827212810516357,-25.992107391357422,0.528997004032135
0,322119,-2.4859540462493896,7.40643835067749,16.958209991455078,-55.14820861816406
0,322120,-61.89189910888672,22.8773193359375,43.472694396972656,28.71048927307129
0,322123,11.794645309448242,-12.6604642868042,-16.225767135620117,-35.74991989135742
0,322124,50.795135498046875,1.1703134775161743,-18.8819580078125,-87.23494720458984
0,322127,45.7313346862793,9.800731658935547,-27.03094482421875,103.12973022460938
0,322128,116.43352508544922,-18.988719940185547,-38.63031768798828,151.65591430664062
0,322131,-87.4039535522461,1.4319404363632202,29.041709899902344,-132.0940704345703
0,322132,-227.2035369873047,0.6473672389984131,34.11996841430664,-78.34085845947266
0,322135,102.40729522705078,4.672291278839111,54.443302154541016,112.3991928100586
0,322136,101.99609375,4.593683242797852,-18.28510284423828,-37.10795974731445
0,322139,-32.129276275634766,-3.2279043197631836,-120.84049987792969,-18.946914672851562
0,322140,33.67450714111328,-17.466651916503906,-26.376306533813477,62.01069259643555
0,322143,-50.75743103027344,-15.591991424560547,84.6923828125,-76.55071258544922
0,322144,-59.4196891784668,30.12431526184082,42.90083694458008,-76.28002166748047
0,322147,4.350618839263916,-3.784385919570923,-33.85601043701172,121.58191680908203
0,322148,-20.890756607055664,-20.12443733215332,-13.836023330688477,95.34654998779297
0,322151,2.131901264190674,18.293546676635742,37.939476013183594,-157.87884521484375
0,322152,101.11685943603516,18.141643524169922,5.068704128265381,-63.949623107910156
0,322155,113.553466796875,6.444291114807129,-27.634143829345703,117.6334457397461
0,322156,-39.89202117919922,8.333937644958496,-9.711675643920898,16.00868797302246
0,322159,-138.44261169433594,-1.1902974843978882,-47.76481628417969,24.02359390258789
0,322160,17.091463088989258,-27.846139907836914,9.71367073059082,28.70347023010254
0,322163,65.78740692138672,-26.245784759521484,118.51952362060547,-115.06991577148438
0,322164,-74.7104263305664,-4.164118766784668,8.30444622039795,-87.8546142578125
0,322167,-65.38685607910156,25.013473510742188,-70.25382232666016,141.48956298828125
0,322168,33.78038024902344,-2.7659895420074463,-28.147628784179688,108.21363830566406
0,322171,96.99844360351562,-15.793744087219238,-17.58186912536621,-169.7692108154297
0,322172,17.831871032714844,24.864295959472656,32.24864959716797,-62.78498077392578
0,322175,-133.14678955078125,24.984472274780273,27.895530700683594,129.76963806152344
0,322176,-45.499629974365234,-18.088481903076172,-12.599287986755371,6.274663925170898
0,322179,88.40711975097656,-28.448104858398438,-11.807480812072754,-22.899250030517578
0,322180,67.35586547851562,19.8704833984375,-17.1973934173584,41.50373077392578
0,322183,207.40975952148438,19.02981185913086,-2.0639634132385254,-34.74271011352539
0,322184,-34.98928451538086,6.047102928161621,28.797231674194336,-92.69448852539062
0,322187,-375.3241882324219,2.083779811859131,11.763526916503906,67.12725067138672
0,322188,35.798667907714844,-14.397910118103027,-5.272457122802734,130.72280883789062
0,322191,178.75497436523438,10.909394264221191,11.135902404785156,-119.50816345214844
0,322192,-19.10142707824707,-5.628032207489014,-1.013504981994629,-74.31954193115234
0,322195,-6.1777544021606445,-42.41520309448242,-14.925495147705078,103.23368072509766
0,322196,-15.225946426391602,3.8901352882385254,-19.86762237548828,-6.79133415222168
0,322199,-40.32667922973633,6.8763604164123535,-9.049469947814941,-12.52304744720459
0,322200,-6.935554504394531,-11.509561538696289,14.084369659423828,26.33658218383789
0,322203,-14.716944694519043,10.636436462402344,-32.73041915893555,-105.11697387695312
0,322204,-32.99504470825195,-6.671050071716309,-14.065190315246582,-91.96015930175781
0,322207,114.65069580078125,12.610984802246094,96.63372039794922,189.86233520507812
0,322208,118.14160919189453,27.5623836517334,48.86470031738281,127.82442474365234
0,322211,-82.0551986694336,12.510136604309082,-71.98727416992188,-186.5092315673828
0,322212,-100.02022552490234,-20.011188507080078,-65.91952514648438,-60.64060592651367
0,322215,36.104331970214844,-43.6826057434082,10.911190032958984,109.03055572509766
0,322216,69.2840347290039,20.617294311523438,26.04861068725586,20.05027198791504
0,322219,-54.191688537597656,39.46266174316406,15.62621784210205,10.158408164978027
0,322220,-58.4993782043457,4.986571311950684,27.606653213500977,2.5405216217041016
0,322223,19.37453842163086,-25.226503372192383,-7.967298984527588,-66.65161895751953
0,322224,-38.06915283203125,-29.592594146728516,-42.19733428955078,-49.89775085449219
0,322227,16.900012969970703,12.24730110168457,-14.146350860595703,92.3371353149414
0,322228,126.03934478759766,8.618425369262695,0.8117368221282959,79.09178924560547
0,322231,-0.6954890489578247,-3.5842461585998535,22.26896858215332,-150.00613403320312
0,322232,-126.46800994873047,8.396550178527832,63.06657791137695,-64.24441528320312
0,322235,35.51235580444336,-6.25336217880249,35.932132720947266,103.45559692382812
0,322236,43.913230895996094,-5.057555198669434,-54.35361862182617,24.432781219482422
0,322239,-56.69570541381836,13.260342597961426,-78.00082397460938,5.058748722076416
0,322240,33.616905212402344,8.086078643798828,5.4820475578308105,14.493709564208984
0,322243,4.412026882171631,-22.620803833007812,36.15004348754883,-62.80100631713867
0,322244,-30.41633415222168,-10.051555633544922,-7.531516075134277,-80.84788513183594
0,322247,8.626387596130371,41.76340103149414,-21.456846237182617,114.98541259765625
0,322248,2.6209380626678467,8.201578140258789,-6.931064605712891,128.712890625
0,322251,-10.180014610290527,-26.39058494567871,17.034269332885742,-150.26097106933594
0,322252,-2.2955121994018555,-8.097373008728027,17.663049697875977,-82.135009765625
0,322255,40.91621780395508,-1.583555817604065,-8.620640754699707,111.0802993774414
0,322256,35.13469696044922,1.0100339651107788,-15.66749095916748,19.862220764160156
0,322259,-44.02082443237305,-13.892922401428223,5.403904914855957,-28.290599822998047
0,322260,-30.09540557861328,-4.124179840087891,40.64077377319336,-6.83386754989624
0,322263,13.287521362304688,25.82976531982422,9.925854682922363,-28.228229522705078
0,322264,-20.783992767333984,17.621593475341797,4.13743257522583,-20.348329544067383
0,322267,16.172372817993164,-5.965470790863037,-0.9253591299057007,78.88225555419922
0,322268,42.36137390136719,0.26243290305137634,-49.51953125,59.3902473449707
0,322271,31.51490592956543,-10.33778190612793,-6.362196445465088,-152.40647888183594
0,322272,-5.064792156219482,-6.375779628753662,18.431827545166016,-63.21770477294922
0,322275,-90.268310546875,6.534496307373047,3.6994738578796387,136.94007873535156
0,322276,-17.09716796875,-19.940364837646484,4.1970014572143555,32.990638732910156
0,322279,57.27259826660156,9.096275329589844,-7.440378665924072,-11.104325294494629
0,322280,-15.136560440063477,15.17258358001709,-2.018371820449829,33.805599212646484
0,322283,-12.78134822845459,-22.144102096557617,4.776541233062744,-55.695770263671875
0,322284,25.452362060546875,5.519268035888672,15.532723426818848,-84.41937255859375
0,322287,18.273406982421875,12.946110725402832,-5.227227210998535,95.16598510742188
0,322288,1.6993671655654907,-15.324872016906738,-32.45588684082031,59.34543991088867
0,322291,-46.14613342285156,-1.082851529121399,-13.483490943908691,-152.38233947753906
0,322292,-25.44087028503418,-3.97684383392334,-17.023204803466797,-7.892880439758301
0,322295,9.792423248291016,18.203388214111328,48.181392669677734,80.33602905273438
0,322296,-5.369535446166992,17.32845115661621,47.92622756958008,3.8909199237823486
0,322299,40.49075698852539,-9.076067924499512,-3.6334848403930664,33.1787109375
0,322300,32.59965896606445,24.736059188842773,13.500128746032715,-4.3639678955078125
0,322303,111.32646179199219,-30.577943801879883,-61.281070709228516,-49.19420623779297
0,322304,28.469633102416992,-42.40092468261719,-47.661869049072266,-39.35576629638672
0,322307,-255.8917999267578,49.03921890258789,45.22468948364258,77.78524017333984
0,322308,-47.75893020629883,9.732580184936523,30.932401657104492,75.86422729492188
0,322311,125.00391387939453,-35.80961227416992,-9.01513671875,-140.46148681640625
0,322312,-11.363682746887207,0.9371005296707153,-8.234811782836914,-58.03178024291992
0,322315,12.3318452835083,12.414278030395508,-8.456670761108398,101.5933609008789
0,322316,17.445146560668945,8.927897453308105,-4.166620254516602,3.149113655090332
0,322319,-36.29411315917969,-24.326841354370117,3.3211867809295654,0.8858022689819336
0,322321,10.540886878967285,-3.752507448196411,6.616065979003906,11.0184965133667
0,322323,45.781898498535156,34.120399475097656,29.155357360839844,-35.18238830566406
0,322325,-27.490041732788086,-10.337870597839355,-14.964736938476562,46.70602035522461
0,322328,-31.665855407714844,-32.529815673828125,-57.36479568481445,18.684162139892578
0,322328,45.64693069458008,9.014601707458496,16.245248794555664,-72.48445892333984
0,322331,9.291340827941895,43.897499084472656,65.94447326660156,-28.332033157348633
0,322332,-39.08917236328125,-24.988609313964844,-7.826033592224121,24.87607192993164
0,322335,-7.015771865844727,-37.8965950012207,-36.212432861328125,22.70994758605957
0,322336,52.89621353149414,58.33476638793945,-3.660449981689453,-6.112471580505371
0,322339,1.2772772312164307,23.716398239135742,4.705129146575928,43.681785583496094
0,322340,-71.31361389160156,-39.372066497802734,16.820323944091797,8.378545761108398
0,322343,9.151039123535156,-14.309873580932617,-10.467326164245605,-86.31797790527344
0,322344,-15.309206008911133,-7.985069274902344,-11.149044036865234,-6.649653434753418
0,322347,9.577215194702148,9.84614372253418,3.868529796600342,108.6764907836914
0,322348,78.1365966796875,21.738107681274414,-6.961618423461914,55.69406509399414
0,322351,-67.94761657714844,11.296276092529297,11.3395414352417,-138.67613220214844
0,322352,-35.04173278808594,-8.719453811645508,23.487611770629883,-57.01154708862305
0,322355,120.95634460449219,-28.764432907104492,-8.13119888305664,122.00772094726562
0,322356,70.77606201171875,-0.17221450805664062,-32.21823501586914,-5.073951244354248
0,322359,-71.84938049316406,5.827352046966553,-65.06340789794922,-56.128761291503906
0,322360,-87.98758697509766,8.03610610961914,36.39841079711914,2.1583454608917236
0,322363,-26.67581558227539,6.744873523712158,156.70333862304688,-40.15135192871094
0,322364,-27.335006713867188,-2.0728681087493896,-16.53077507019043,-24.117351531982422
0,322367,62.61427307128906,1.6600863933563232,-137.77285766601562,127.2406997680664
0,322368,77.19184875488281,-5.910398960113525,-18.576976776123047,98.30582427978516
0,322371,-64.1872787475586,-7.075146675109863,63.01863098144531,-163.55227661132812
0,322372,-48.71061706542969,4.071401596069336,10.803730964660645,-75.00726318359375
0,322375,24.268064498901367,2.390702724456787,-20.555360794067383,113.0241470336914
0,322376,20.293827056884766,-13.447617530822754,-14.101548194885254,4.858842372894287
0,322379,13.356184959411621,12.934611320495605,3.905254602432251,18.750934600830078
0,322380,54.66300964355469,12.753076553344727,26.04307746887207,36.105648040771484
0,322383,10.729474067687988,-3.213191509246826,-2.133585214614868,-83.35842895507812
0,322384,-97.44264221191406,2.408356189727783,-19.84966468811035,-72.03910827636719
0,322387,4.413814067840576,-10.070489883422852,9.842758178710938,63.051612854003906
0,322388,45.499446868896484,-12.77759838104248,18.598186492919922,84.50877380371094
0,322391,-16.6571102142334,-5.636143684387207,0.19637414813041687,-82.55195617675781
0,322392,-11.286520004272461,-4.794211387634277,-2.997426748275757,-58.596343994140625
0,322395,-17.877281188964844,6.063695430755615,8.112685203552246,87.62322235107422
0,322396,3.17484974861145,13.061490058898926,-3.015817642211914,-0.5159338712692261
0,322399,-12.032994270324707,-4.051130771636963,-32.64104080200195,-21.399152755737305
0,322400,11.267741203308105,9.416665077209473,-0.8529444336891174,26.456838607788086
0,322403,35.17805862426758,14.671076774597168,27.28548240661621,-56.006439208984375
0,322404,-30.374277114868164,2.5568909645080566,-4.002647876739502,-33.04288864135742
0,322407,8.581440925598145,4.290785312652588,-20.620826721191406,114.07831573486328
0,322408,41.214111328125,-23.531204223632812,18.05187225341797,27.99598503112793
0,322411,-40.57571029663086,-15.458724021911621,21.1535701751709,-134.6200714111328
0,322412,-19.176189422607422,13.03472900390625,-33.9293212890625,22.368539810180664
0,322415,124.69878387451172,3.7846291065216064,-3.4566051959991455,76.30933380126953
0,322416,13.782225608825684,-1.8817572593688965,30.18648910522461,-48.32256317138672
0,322419,-175.3095703125,-11.771021842956543,-53.4097900390625,27.106687545776367
0,322420,-8.03319263458252,-5.318333625793457,-35.52261734008789,50.53236770629883
0,322423,54.81597900390625,14.106616020202637,103.1360855102539,-86.7562484741211
0,322424,-36.71963119506836,-11.739110946655273,71.24201965332031,-72.80445861816406
0,322427,60.3231086730957,-14.531128883361816,-88.33464050292969,131.2724151611328
0,322428,106.2823257446289,48.838226318359375,-49.901790618896484,105.72107696533203
0,322431,-62.04481887817383,20.938739776611328,19.745691299438477,-160.3904571533203
0,322432,-122.6360855102539,-30.690208435058594,-9.96389102935791,-59.40632629394531
0,322435,19.863418579101562,10.015296936035156,72.67365264892578,77.25957489013672
0,322436,31.54187774658203,-13.406231880187988,30.381084442138672,-9.889029502868652
0,322439,-6.290226936340332,-33.337379455566406,-108.72350311279297,35.56814956665039
0,322440,17.572975158691406,16.253501892089844,-33.08675003051758,3.2270867824554443
0,322443,19.946605682373047,3.669797420501709,49.657100677490234,-82.0094223022461
0,322444,-7.876418113708496,-25.777788162231445,-15.521554946899414,-24.37774085998535
0,322447,-13.761069297790527,22.40425682067871,10.783134460449219,128.71109008789062
0,322448,28.103174209594727,22.90373420715332,41.60063934326172,69.7314224243164
0,322451,-37.32709503173828,-20.608932495117188,-20.774736404418945,-164.03677368164062
0,322452,-54.726783752441406,8.67921257019043,-3.518120527267456,-55.684226989746094
0,322455,118.75096893310547,14.354926109313965,19.718067169189453,113.95037841796875
0,322456,50.288124084472656,-13.220832824707031,2.5941569805145264,8.344029426574707
0,322459,-132.79403686523438,-11.180733680725098,-16.269834518432617,-20.635164260864258
0,322460,32.79702377319336,13.959701538085938,-1.2138100862503052,10.588882446289062
0,322463,56.975433349609375,15.062192916870117,10.659926414489746,-58.404762268066406
0,322464,-72.43426513671875,-15.164921760559082,-5.011370658874512,-19.979663848876953
0,322467,31.372852325439453,-25.779335021972656,9.379916191101074,118.6048355102539
0,322468,34.932308197021484,12.922932624816895,-5.185126304626465,50.825504302978516
0,322471,-62.205936431884766,3.0451724529266357,-31.368148803710938,-141.98638916015625
0,322472,-28.81444549560547,-24.50848960876465,-6.729477882385254,-57.73380661010742
0,322475,19.772550582885742,22.49956512451172,19.269485473632812,80.35726165771484
0,322476,8.846092224121094,30.713581085205078,10.820334434509277,19.751689910888672
0,322479,69.66223907470703,-6.170382976531982,-4.144184589385986,46.64328384399414
0,322480,29.458450317382812,-15.933403968811035,-4.666165351867676,27.78684425354004
0,322483,-139.75318908691406,7.363702774047852,10.233611106872559,-136.88282775878906
0,322484,-37.56729507446289,-0.2678210735321045,1.5397720336914062,-76.06532287597656
0,322487,117.21939086914062,-29.077314376831055,-30.549774169921875,165.82716369628906
0,322488,43.87250900268555,-12.768061637878418,5.027083396911621,100.81114196777344
0,322491,-73.16372680664062,47.272979736328125,18.735498428344727,-166.26405334472656
0,322492,-28.548614501953125,30.181692123413086,-2.786100387573242,-51.36445617675781
0,322495,28.887657165527344,-46.763282775878906,22.760465621948242,121.09999084472656
0,322496,-16.290054321289062,-22.280786514282227,6.171584129333496,-8.98196029663086
0,322499,2.5614609718322754,26.3713321685791,-22.557416915893555,-20.512651443481445
0,322500,16.326488494873047,8.525246620178223,-38.66687774658203,15.076720237731934
0,322503,28.09163475036621,-12.539420127868652,0.4435824155807495,-56.62640380859375
0,322504,-1.8698927164077759,1.3864201307296753,104.46661376953125,-9.713828086853027
0,322507,-52.284942626953125,10.846327781677246,38.275474548339844,94.60311889648438
0,322508,-11.377681732177734,-0.9751264452934265,-86.95376586914062,32.72629928588867
0,322511,37.384307861328125,-4.4842705726623535,-56.58046340942383,-131.28114318847656
0,322512,23.778030395507812,-0.9579266309738159,-16.305160522460938,-45.836814880371094
0,322515,6.893183708190918,8.8374662399292,21.45070457458496,123.27606964111328
0,322516,-2.0913772583007812,1.5136394500732422,38.46585464477539,41.00594711303711
0,322519,-38.49496841430664,-32.72892379760742,-14.812311172485352,-51.61311721801758
0,322520,-8.228449821472168,1.6471384763717651,-22.422462463378906,-30.357402801513672
0,322523,17.384048461914062,23.075960159301758,17.27798080444336,-29.01182746887207
0,322524,-20.76802635192871,-20.186702728271484,-0.03802037239074707,-20.523391723632812
0,322527,109.49632263183594,14.582687377929688,-7.819598197937012,67.35094451904297
0,322528,88.77821350097656,31.368497848510742,11.697294235229492,68.58848571777344
0,322531,-212.36273193359375,-38.03691101074219,6.153912544250488,-95.97393798828125
0,322532,-66.39114379882812,-25.188215255737305,13.578661918640137,-62.43752670288086
0,322535,124.00343322753906,14.5723295211792,3.4732911586761475,85.23148345947266
0,322536,-29.497085571289062,-1.4111566543579102,-0.8262126445770264,22.411209106445312
0,322539,-11.012229919433594,17.798198699951172,9.188714981079102,-2.975580930709839
0,322541,32.5101318359375,13.96377182006836,-21.231090545654297,4.087918758392334
0,322543,-6.545710563659668,0.7782745957374573,-18.79219627380371,-35.52635955810547
0,322545,-3.47155499458313,7.637375831604004,-17.489227294921875,20.235668182373047
0,322547,-15.601669311523438,-10.924342155456543,-8.743987083435059,76.41905212402344
0,322549,-13.497249603271484,-30.890172958374023,80.46044921875,-23.299184799194336
0,322551,-0.872056245803833,-4.123584747314453,49.54560470581055,-149.49029541015625
0,322553,4.114432334899902,27.23349380493164,-61.710506439208984,5.038147926330566
0,322555,37.49477005004883,-6.335532188415527,-64.72027587890625,115.11446380615234
0,322557,19.238834381103516,6.484418869018555,19.262601852416992,-16.50448226928711
0,322559,-22.83293342590332,19.094871520996094,28.911422729492188,4.229342937469482
0,322561,-8.767359733581543,-26.5672550201416,-16.127521514892578,-6.297780990600586
0,322563,-10.665214538574219,3.288179636001587,21.776912689208984,-68.05619812011719
0,322565,-16.614408493041992,13.217757225036621,-7.663226127624512,34.295875549316406
0,322566,34.47710037231445,-24.97850227355957,-51.02949142456055,81.25399017333984
0,322569,22.049022674560547,8.45796012878418,21.401281356811523,-26.25971031188965
0,322570,-33.98141860961914,5.389280796051025,37.81529998779297,-86.54743957519531
0,322573,1.0484477281570435,-6.90338659286499,-5.7224202156066895,15.485136032104492
0,322574,28.75873374938965,21.445865631103516,-9.385420799255371,67.26597595214844
0,322577,2.532973051071167,-8.739363670349121,-4.0292768478393555,-1.839560627937317
0,322578,-40.27139663696289,-19.404430389404297,-7.633685111999512,-38.82406234741211
0,322581,-11.014573097229004,11.6997652053833,3.3820960521698,5.454799652099609
0,322582,19.993488311767578,2.467945098876953,24.292861938476562,-67.95535278320312
0,322585,-11.81641674041748,-20.19104766845703,3.750718355178833,-15.164368629455566
0,322586,0.24700020253658295,22.78980827331543,-12.32829761505127,182.3340301513672
0,322589,23.659093856811523,6.866983890533447,-10.706539154052734,-30.05156898498535
0,322593,-2.5790767669677734,-26.765962600708008,-6.36603307723999,-207.37730407714844
0,322593,-14.668968200683594,22.537424087524414,14.692872047424316,46.24443435668945
0,322595,5.6730499267578125,-9.900723457336426,-2.9818105697631836,172.40943908691406
0,322597,-12.423832893371582,-20.299638748168945,-11.723386764526367,9.461061477661133
0,322599,17.217531204223633,20.474184036254883,2.486600160598755,-65.48739624023438
0,322601,27.14885139465332,6.823488235473633,10.851324081420898,-34.686256408691406
0,322603,-25.161378860473633,-20.744033813476562,24.916828155517578,-52.725196838378906
0,322605,-2.1520256996154785,-7.252693176269531,-22.358835220336914,80.85126495361328
0,322607,5.509073734283447,27.327110290527344,-68.11193084716797,111.38823699951172
0,322609,3.6813106536865234,12.961185455322266,22.531246185302734,-134.2051239013672
0,322611,26.98689079284668,6.192348003387451,77.75723266601562,-74.71589660644531
0,322613,-52.1229362487793,8.932832717895508,-14.334689140319824,59.615257263183594
0,322615,-45.05339813232422,-35.0610237121582,-42.48284149169922,14.190286636352539
0,322617,60.433284759521484,-16.48262596130371,24.682397842407227,30.56937599182129
0,322619,-0.5262520909309387,31.677749633789062,23.861862182617188,4.049264907836914
0,322621,-3.3375656604766846,0.48889583349227905,-32.78498077392578,-45.952762603759766
0,322623,30.22650909423828,5.717804431915283,3.367253541946411,-75.85388946533203
0,322625,-38.607421875,2.7695508003234863,27.064647674560547,114.15702819824219
0,322627,89.83413696289062,-5.8598408699035645,-16.86964225769043,150.1760711669922
0,322629,15.546953201293945,-23.434293746948242,-11.968803405761719,-180.0099639892578
0,322631,-182.81729125976562,-46.833290100097656,-15.44516658782959,-108.44001007080078
0,322633,66.39995574951172,36.27538299560547,4.7768683433532715,87.52046966552734
0,322635,74.98956298828125,40.92494201660156,33.6679801940918,67.93685913085938
0,322637,-102.21092224121094,-5.617578983306885,-10.997241020202637,31.52293586730957
0,322639,25.523344039916992,-18.561561584472656,-21.675052642822266,-53.52344512939453
0,322641,20.11799430847168,-27.252994537353516,-45.8211555480957,-55.74227523803711
0,322643,-41.61717987060547,18.565467834472656,-12.028362274169922,-36.50728225708008
0,322645,107.34346771240234,20.46947479248047,88.70975494384766,88.64632415771484
0,322647,31.39240264892578,-20.34864616394043,11.708505630493164,137.61807250976562
0,322649,-163.62904357910156,0.8120511174201965,-44.543670654296875,-122.59054565429688
0,322651,-12.858695030212402,5.358558654785156,6.364391326904297,-113.51033020019531
0,322653,89.34593963623047,-14.75013256072998,11.504286766052246,61.46031188964844
0,322655,19.471229553222656,24.852458953857422,-0.3791300058364868,36.49978256225586
0,322657,0.6077439785003662,19.420412063598633,13.196910858154297,14.471569061279297
0,322659,-15.289396286010742,-15.886948585510254,2.9027276039123535,-5.631176948547363
0,322661,-23.48426055908203,-9.553380012512207,-3.717033624649048,-32.44679641723633
0,322663,-11.289278030395508,-6.7590718269348145,-4.864607810974121,-73.83332824707031
0,322665,-4.268008708953857,7.99696683883667,-26.01510238647461,112.3647689819336
0,322667,4.342920303344727,16.974863052368164,-10.588722229003906,138.1865234375
0,322669,35.92161178588867,8.78431510925293,23.942415237426758,-193.58148193359375
0,322671,4.739404678344727,-11.69492244720459,21.548925399780273,-102.0523910522461
0,322673,-21.914152145385742,-19.927440643310547,-11.397175788879395,112.82666778564453
0,322675,31.537595748901367,-12.668313026428223,-21.550212860107422,55.91659927368164
0,322677,16.01620864868164,-2.1845624446868896,-8.16667366027832,5.590395927429199
0,322679,-29.843414306640625,29.067533493041992,46.75267791748047,2.211765766143799
0,322681,-47.853477478027344,-8.976005554199219,12.081550598144531,-44.391544342041016
0,322683,-5.222605228424072,-17.086179733276367,-45.083824157714844,-98.64994049072266
0,322685,52.818580627441406,33.6589241027832,2.46529483795166,84.08885192871094
0,322687,6.86197566986084,-2.881192445755005,0.6894490718841553,146.6693878173828
0,322689,-27.9119815826416,-28.24462890625,-16.662729263305664,-123.85964965820312
0,322691,11.851112365722656,5.19586181640625,10.382369995117188,-110.56059265136719
0,322693,-0.7407280802726746,18.346662521362305,13.05021858215332,81.20685577392578
0,322695,-2.001584529876709,-9.959632873535156,-10.46408748626709,62.021568298339844
0,322697,20.328454971313477,-9.470972061157227,-9.194758415222168,2.5285115242004395
0,322699,-3.490501642227173,9.096729278564453,0.10834621638059616,-14.781983375549316
0,322701,-16.035537719726562,-36.90569305419922,11.35703182220459,-60.13611602783203
0,322703,-18.35621452331543,22.6743221282959,37.086971282958984,-64.3521728515625
0,322705,12.551560401916504,57.69504165649414,-9.357927322387695,72.52217864990234
0,322707,10.224224090576172,-44.08228302001953,-34.01374053955078,82.88235473632812
0,322709,2.075753927230835,-1.7500603199005127,16.824445724487305,-72.03351593017578
0,322711,-9.031922340393066,10.828784942626953,13.070914268493652,-38.052024841308594
0,322713,-26.11236572265625,-25.423490524291992,-24.130054473876953,57.42955780029297
0,322715,30.00075340270996,16.09886932373047,-18.827733993530273,16.563159942626953
0,322717,26.931913375854492,17.149734497070312,19.625743865966797,-0.7448512315750122
0,322719,-19.494129180908203,11.99650764465332,15.894542694091797,7.612649440765381
0,322721,-3.042646646499634,-7.059370040893555,-1.9350579977035522,-43.111328125
0,322723,-15.03436279296875,-34.72418975830078,-6.706027030944824,-76.32058715820312
0,322725,-21.829164505004883,-13.620648384094238,11.353788375854492,90.81458282470703
0,322727,27.53347396850586,25.14451789855957,7.074320316314697,149.6377410888672
0,322729,7.446312427520752,10.018633842468262,-36.97977066040039,-118.559326171875
0,322731,-34.9573974609375,-18.23873519897461,-23.367454528808594,-104.33975219726562
0,322733,32.49173355102539,10.658839225769043,8.317209243774414,56.36164474487305
0,322735,39.09475326538086,8.962296485900879,-2.423444986343384,-25.772994995117188
0,322737,-13.203886032104492,-11.594490051269531,7.899336814880371,93.32383728027344
0,322739,3.452514171600342,6.48459005355835,11.275805473327637,50.93311309814453
0,322741,-54.91096115112305,-5.076554775238037,6.50305700302124,-188.2486114501953
0,322743,-32.954708099365234,-8.304811477661133,63.20517349243164,-12.688459396362305
0,322745,55.17795181274414,22.76456069946289,0.5218099355697632,146.58209228515625
0,322747,9.935919761657715,6.8087639808654785,-27.83111572265625,59.50728988647461
0,322749,-6.889874458312988,-27.115234375,-9.36661434173584,-159.69195556640625
0,322751,9.947687149047852,1.3226138353347778,-41.68899154663086,-77.2884750366211
0,322753,-20.063800811767578,14.831974983215332,35.056800842285156,146.3637237548828
0,322755,-11.94345760345459,-6.976285934448242,2.742587089538574,37.02818298339844
0,322757,15.676280975341797,-14.039913177490234,-33.843597412109375,-22.009613037109375
0,322759,9.281975746154785,-4.751952648162842,21.74479866027832,-11.107519149780273
0,322761,6.358757972717285,32.75277328491211,-8.028097152709961,-34.02581787109375
0,322763,-7.135824680328369,7.520296573638916,-22.513721466064453,-64.49458312988281
0,322765,-12.40551471710205,-32.36982345581055,19.73484992980957,79.87085723876953
0,322767,1.5360056161880493,3.1272470951080322,4.901126384735107,146.0095672607422
0,322769,12.820624351501465,18.098291397094727,-27.93024253845215,-148.64369201660156
0,322771,-9.901202201843262,-9.841885566711426,19.298660278320312,-105.0631332397461
0,322773,-9.049076080322266,-0.9755359292030334,47.960941314697266,113.2551498413086
0,322775,39.48505401611328,8.254242897033691,0.6411885619163513,21.848888397216797
0,322777,-6.335831642150879,2.5741984844207764,-28.00656509399414,-21.456127166748047
0,322779,-42.77365493774414,2.4697022438049316,-5.416599750518799,-10.48753547668457
0,322781,-1.7858881950378418,-26.415699005126953,0.4753744602203369,-19.811450958251953
0,322783,12.260536193847656,-11.499459266662598,-18.13702964782715,-35.578880310058594
0,322785,114.43318939208984,21.165754318237305,-9.61629867553711,103.50318908691406
0,322787,48.781620025634766,-4.858801364898682,12.316776275634766,103.92499542236328
0,322789,-198.19277954101562,-13.74824333190918,15.158538818359375,-230.26559448242188
0,322791,-76.32495880126953,-4.479050636291504,-4.031056880950928,-89.9387435913086
0,322793,105.91829681396484,21.3933162689209,3.3852906227111816,170.42440795898438
0,322795,25.53831672668457,40.292724609375,29.687931060791016,64.53748321533203
0,322797,-10.367026329040527,-33.75212860107422,-13.951096534729004,-3.0197527408599854
0,322799,57.591392517089844,-23.540006637573242,-35.67873001098633,-37.87139129638672
0,322800,-16.688405990600586,17.907289505004883,-13.95207691192627,-32.78495407104492
0,322803,-123.96509552001953,-12.19941520690918,-1.1405502557754517,-63.55903244018555
0,322804,1.063647747039795,20.781612396240234,40.970149993896484,-40.817543029785156
0,322807,95.85520935058594,37.065494537353516,2.966151714324951,161.74667358398438
0,322808,23.602243423461914,-9.42039680480957,-20.808273315429688,85.20209503173828
0,322811,-46.143733978271484,-23.25887107849121,29.747514724731445,-158.68563842773438
0,322812,-14.782212257385254,-1.563730001449585,7.611661434173584,-12.354865074157715
0,322815,23.1501522064209,-10.961369514465332,-48.670310974121094,95.37060546875
0,322816,-6.191039085388184,-13.582846641540527,-25.62070083618164,-42.14100646972656
0,322819,19.423168182373047,1.226658582687378,47.79695510864258,-13.973638534545898
0,322820,13.75624942779541,-6.414438724517822,22.504249572753906,5.216674327850342
0,322823,-65.86869049072266,18.119903564453125,9.21613597869873,-77.40312194824219
0,322824,-8.396587371826172,15.29041576385498,11.559694290161133,-13.461847305297852
0,322827,105.52277374267578,-14.182311058044434,-74.65068817138672,142.72959899902344
0,322828,33.6624755859375,11.512070655822754,-37.170074462890625,43.25664138793945
0,322831,-66.50067901611328,-11.281682014465332,42.63362121582031,-150.50343322753906
0,322832,-49.38883972167969,-4.8878912925720215,15.192234992980957,-8.478879928588867
0,322835,-7.987044334411621,-11.403921127319336,-6.255576133728027,65.87562561035156
0,322836,59.11128234863281,3.270617961883545,32.51045227050781,-29.033119201660156
0,322839,16.6665096282959,49.00028991699219,82.93807983398438,38.23379135131836
0,322840,-19.20647430419922,-25.43582534790039,-20.764225006103516,14.020774841308594
0,322843,-5.205315589904785,-7.380946636199951,-114.66661071777344,-70.05242919921875
0,322844,-72.0570297241211,7.603419303894043,-43.112003326416016,-6.408735275268555
0,322849,-3.7060916423797607,-14.997030258178711,44.16033935546875,31.757957458496094
0,322849,59.0894775390625,20.184459686279297,58.18381118774414,-20.157249450683594
0,322851,2.1309001445770264,-3.3608813285827637,-8.15361213684082,4.643850803375244
0,322852,-2.1542506217956543,-17.932748794555664,-24.945392608642578,66.82283020019531
0,322855,-0.6231822967529297,-2.4460153579711914,10.86429500579834,1.1184189319610596
0,322856,1.491447925567627,16.189680099487305,10.242375373840332,-39.14045715332031
0,322859,10.610588073730469,19.063066482543945,-18.59501075744629,36.00022888183594
0,322860,-8.493712425231934,-38.91501998901367,-16.412860870361328,4.172801971435547
0,322863,0.9861761927604675,-36.75817108154297,9.4437255859375,-83.6368408203125
0,322864,-14.328021049499512,48.88958740234375,10.934928894042969,-22.53203582763672
0,322867,1.6115604639053345,38.2357063293457,20.422697067260742,134.69039916992188
0,322868,20.6435604095459,-46.171329498291016,-0.847320020198822,59.13356018066406
0,322871,-19.974586486816406,-27.223052978515625,-12.103106498718262,-168.0345001220703
0,322872,2.8797030448913574,29.21326446533203,9.60992431640625,-39.080196380615234
0,322875,11.252180099487305,14.195218086242676,-21.701263427734375,81.58251953125
0,322876,3.0109782218933105,24.275739669799805,-5.87271785736084,-0.8109784722328186
0,322879,-1.6996251344680786,2.143765926361084,6.544349670410156,32.34410095214844
0,322880,-14.800655364990234,-27.24355697631836,-17.45403480529785,-2.4414823055267334
0,322883,-0.5109071731567383,-4.321430683135986,34.55746841430664,-77.17169189453125
0,322884,4.78433895111084,-20.02417755126953,15.747895240783691,-8.76559829711914
0,322887,29.871871948242188,-17.545196533203125,-33.65961837768555,94.98530578613281
0,322888,-4.373728275299072,5.566009998321533,-7.951707363128662,28.788728713989258
0,322891,-34.49631881713867,30.39823341369629,30.081117630004883,-97.5561294555664
0,322892,16.69441032409668,30.772584915161133,16.128265380859375,-7.85689115524292
0,322895,-3.518627882003784,-9.161105155944824,-21.207326889038086,44.97222137451172
0,322896,-8.697894096374512,-19.90261459350586,-20.39240837097168,-57.006797790527344
0,322899,12.461325645446777,-1.2732419967651367,-15.013764381408691,7.500881195068359
0,322900,-15.545719146728516,-6.9730072021484375,22.433902740478516,68.89511108398438
0,322903,-15.35330867767334,6.944217681884766,-1.9952614307403564,-52.901832580566406
0,322904,-1.1156283617019653,33.398258209228516,-7.126890182495117,-21.61077880859375
0,322907,40.88352584838867,2.899653434753418,36.34087371826172,120.31170654296875
0,322908,30.871633529663086,-24.307231903076172,-19.233057022094727,5.398665428161621
0,322911,-54.11548614501953,-27.384044647216797,-17.909934997558594,-146.0578155517578
0,322912,-49.847320556640625,-1.4024277925491333,34.40620803833008,17.045490264892578
0,322915,5.718832492828369,17.972888946533203,-7.018908500671387,103.43965911865234
0,322916,61.31377029418945,-7.510805606842041,-31.802255630493164,-34.004676818847656
0,322919,82.72789001464844,-8.882384300231934,11.76689624786377,7.883617877960205
0,322920,27.44133186340332,0.3111991584300995,-1.7260217666625977,18.372488021850586
0,322923,-93.22592163085938,3.6425468921661377,-7.78581428527832,-95.06622314453125
0,322924,-114.11198425292969,8.003446578979492,27.415315628051758,-39.67389678955078
0,322927,63.79078674316406,1.1614949703216553,3.7041049003601074,117.81312561035156
0,322928,80.43235778808594,16.977951049804688,-12.755029678344727,44.42582321166992
0,322931,-57.10517883300781,-12.011726379394531,-3.305920362472534,-128.9777374267578
0,322932,-23.078657150268555,-20.5277156829834,-17.085613250732422,4.888424396514893
0,322935,13.410621643066406,23.26259422302246,-5.839849472045898,63.24421691894531
0,322936,-44.13283157348633,6.526288986206055,30.483797073364258,-15.953839302062988
0,322939,42.34628677368164,-3.2650158405303955,12.878789901733398,50.02721405029297
0,322940,69.98423767089844,7.062399864196777,-22.511760711669922,-4.501349449157715
0,322943,-64.93060302734375,-15.048711776733398,4.988129615783691,-108.95877075195312
0,322944,-36.16807174682617,-23.030385971069336,16.69708251953125,-12.394619941711426
0,322947,62.03502655029297,16.63929557800293,-18.806732177734375,150.27040100097656
0,322948,25.132179260253906,22.834741592407227,-6.955169200897217,66.872802734375
0,322951,-41.199554443359375,-29.120697021484375,-23.07073974609375,-167.03025817871094
0,322952,-4.0165114402771,-26.507076263427734,-29.186059951782227,-67.10295104980469
0,322955,12.730321884155273,36.490478515625,93.12504577636719,87.53533935546875
0,322956,-24.763416290283203,20.98318099975586,74.80040740966797,21.297304153442383
0,322959,-1.8492987155914307,-33.866268157958984,-84.13240051269531,10.424500465393066
0,322960,16.22210121154785,6.13878059387207,-78.92674255371094,-24.135835647583008
0,322963,-5.739734649658203,18.931385040283203,15.67863941192627,-57.15251922607422
0,322964,-14.157561302185059,-15.703795433044434,23.986957550048828,9.415229797363281
0,322967,13.686376571655273,-2.113816976547241,9.115628242492676,88.8812484741211
0,322968,25.031709671020508,-2.8458034992218018,10.101068496704102,29.839492797851562
0,322971,26.62529945373535,25.914810180664062,-14.162705421447754,-129.56809997558594
0,322972,-2.779653310775757,5.677589416503906,1.2146458625793457,-38.15735626220703
0,322975,-69.04430389404297,-34.65901184082031,7.87248420715332,137.43014526367188
0,322976,-15.428881645202637,25.454248428344727,-4.631558418273926,13.328041076660156
0,322979,41.960811614990234,16.893163681030273,7.856013774871826,-49.061100006103516
0,322980,3.8191564083099365,-26.159343719482422,6.971803188323975,17.816593170166016
0,322983,-12.595281600952148,-27.78118896484375,8.853873252868652,-58.69086456298828
0,322984,-2.8305981159210205,-0.10065349191427231,-10.56100082397461,-18.69090461730957
0,322987,31.013628005981445,23.221633911132812,-53.47187423706055,109.87862396240234
0,322988,7.788954734802246,-9.844396591186523,-6.0756354331970215,9.761030197143555
0,322991,-35.49702072143555,10.348033905029297,95.05473327636719,-124.75651550292969
0,322992,15.097257614135742,20.051015853881836,63.9691047668457,4.377281665802002
0,322995,-3.1192378997802734,-11.042866706848145,-65.15986633300781,79.04671478271484
0,322996,-10.53896713256836,2.3353121280670166,-90.90988159179688,-16.794918060302734
0,322999,41.424068450927734,0.5676073431968689,9.113290786743164,11.194724082946777
0,323000,-23.29785919189453,-13.808892250061035,34.19188690185547,23.856184005737305
0,323003,-27.207584381103516,-1.914775013923645,-2.0085294246673584,-72.21566772460938
0,323004,1.3339941501617432,8.83257007598877,18.385635375976562,-42.85563659667969
0,323007,3.771204710006714,-1.4106364250183105,18.849512100219727,120.23429870605469
0,323008,28.418838500976562,-4.187017917633057,-20.947982788085938,58.1375846862793
0,323011,-7.057680606842041,3.016253709793091,-25.4866943359375,-130.76007080078125
0,323012,1.7688000202178955,8.693681716918945,5.028904914855957,-22.556446075439453
0,323015,-6.894168853759766,-14.170002937316895,-2.883035898208618,48.183963775634766
0,323016,-17.32181167602539,-14.227161407470703,0.4637925326824188,-9.893108367919922
0,323019,24.24994659423828,9.473209381103516,28.297462463378906,49.13871765136719
0,323020,-5.272850036621094,14.649432182312012,-9.643342018127441,3.590873956680298
0,323023,-29.432462692260742,3.7965078353881836,-2.2361397743225098,-115.3055191040039
0,323024,-30.529388427734375,-12.037867546081543,10.56742000579834,-26.86349868774414
0,323027,23.163116455078125,5.766911506652832,-25.67816734313965,164.52078247070312
0,323028,107.94056701660156,5.692651748657227,-9.033624649047852,28.659196853637695
0,323031,-16.462915420532227,-6.600611209869385,19.977441787719727,-154.88706970214844
0,323032,-120.86345672607422,-27.16937255859375,10.048255920410156,28.09194564819336
0,323035,-21.1780948638916,-12.292412757873535,-4.0495285987854,68.57534790039062
0,323036,38.46308898925781,41.768280029296875,1.6651251316070557,-68.1608657836914
0,323039,147.71421813964844,-1.5170328617095947,-16.00288963317871,38.22316360473633
0,323040,76.22791290283203,-23.673486709594727,3.721977949142456,52.417030334472656
0,323043,-198.76185607910156,23.068830490112305,10.303518295288086,-89.27066040039062
0,323044,-111.31961059570312,16.895702362060547,9.110115051269531,-10.117826461791992
0,323047,101.25707244873047,-18.635860443115234,33.398109436035156,133.33497619628906
0,323048,45.171875,10.390691757202148,-15.319153785705566,-23.089954376220703
0,323051,-21.750349044799805,15.321020126342773,-55.85881423950195,-171.58010864257812
0,323052,9.344805717468262,-26.954177856445312,-1.7880783081054688,40.08706283569336
0,323055,-10.5623779296875,3.048218011856079,33.60029602050781,90.504150390625
0,323056,-22.506458282470703,1.7550082206726074,-10.455277442932129,-25.60329818725586
0,323059,-2.5771827697753906,-5.230051040649414,-30.112934112548828,35.940956115722656
0,323060,29.014484405517578,6.05369234085083,17.321979522705078,0.9323457479476929
0,323063,19.68699836730957,-0.08600541949272156,28.665803909301758,-95.92691040039062
0,323064,-26.204116821289062,-27.117412567138672,-59.505714416503906,-3.226468801498413
0,323067,16.549657821655273,-10.6983642578125,17.260160446166992,117.28598022460938
0,323068,18.82109260559082,47.195335388183594,110.52598571777344,20.798240661621094
0,323071,-33.619956970214844,16.269575119018555,-19.334157943725586,-142.11390686035156
0,323072,11.370516777038574,-11.968395233154297,-70.59234619140625,-9.13769817352295
0,323075,17.094463348388672,-20.503276824951172,-32.64637756347656,106.68145751953125
0,323076,-32.227928161621094,-33.34950256347656,19.270492553710938,-15.695941925048828
0,323079,5.0383148193359375,21.592056274414062,35.43008804321289,17.28575897216797
0,323080,17.531604766845703,19.243253707885742,-5.736233711242676,13.006246566772461
0,323083,-1.027319073677063,2.5441794395446777,6.487147331237793,-113.70720672607422
0,323084,-15.34232234954834,25.84543228149414,-5.884152412414551,4.337244510650635
0,323087,-17.56625747680664,-14.139235496520996,-23.016494750976562,118.44784545898438
0,323088,26.47913932800293,-18.039180755615234,17.26688003540039,-38.100257873535156
0,323091,6.019378662109375,-16.024240493774414,-3.538856029510498,-90.35935974121094
0,323092,-8.041130065917969,-16.108213424682617,-18.509111404418945,36.895484924316406
1,323095,-6.377133369445801,25.6165714263916,19.594039916992188,42.02335739135742
1,323096,9.929059982299805,14.067861557006836,-8.318900108337402,15.171579360961914
1,323099,21.857589721679688,5.484513759613037,-5.394188404083252,33.35476303100586
1,323100,-43.83213806152344,-3.557180166244507,29.64670753479004,-49.4367561340332
1,323103,-10.6588716506958,-37.98630905151367,-9.089627265930176,-79.91070556640625
1,323105,21.84840202331543,9.426142692565918,-8.399779319763184,73.13719177246094
1,323107,-1.125400185585022,15.092144966125488,16.1216983795166,91.34521484375
1,323109,19.77628517150879,-8.358294486999512,12.608275413513184,-80.52767181396484
1,323110,-0.645626425743103,9.688864707946777,-11.379339218139648,-73.8816146850586
1,323114,-40.029991149902344,-8.93814468383789,-40.7664680480957,13.855209350585938
1,323115,-3.206166982650757,8.148038864135742,10.71232795715332,28.461578369140625
1,323117,48.48781967163086,15.682609558105469,43.01335144042969,84.40763854980469
1,323119,-3.066685676574707,-25.775299072265625,5.819588661193848,18.32697868347168
1,323121,-44.873069763183594,-5.426636695861816,-24.82144546508789,-115.48910522460938
1,323123,18.940204620361328,46.63026428222656,-20.474729537963867,-46.795475006103516
1,323125,45.118934631347656,4.4522929191589355,-4.358218669891357,92.40582275390625
1,323127,-19.534269332885742,-43.82640075683594,-8.8558349609375,64.35993957519531
1,323129,-28.831626892089844,-16.859968185424805,4.5565948486328125,-41.654579162597656
1,323131,16.605533599853516,6.6869282722473145,10.163198471069336,-91.1369857788086
1,323133,8.39390754699707,31.846920013427734,-9.434165954589844,-9.935407638549805
1,323135,-33.12972640991211,9.239802360534668,6.314301013946533,56.164676666259766
1,323137,-9.818564414978027,-30.705297470092773,6.32058572769165,22.300621032714844
1,323139,40.25530242919922,2.119039535522461,1.5484532117843628,46.270511627197266
1,323141,-3.486180305480957,16.70690155029297,16.170778274536133,-48.62279510498047
1,323143,-42.5405158996582,-2.1848018169403076,-1.741461157798767,-104.29569244384766
1,323145,-6.140493869781494,-11.51598072052002,-2.764389991760254,81.19266510009766
1,323147,56.04710006713867,14.296975135803223,26.006900787353516,93.4360122680664
1,323149,153.02476501464844,15.091153144836426,9.437435150146484,-71.0648422241211
1,323151,-52.23285675048828,-32.619510650634766,-51.73101043701172,-63.49080276489258
1,323153,-208.1194610595703,-19.55588722229004,-29.41545295715332,28.9791202545166
1,323155,79.30901336669922,36.86257553100586,11.324851036071777,37.70649337768555
1,323157,78.34854125976562,25.99773406982422,8.57844352722168,16.76835823059082
1,323159,-73.44062805175781,-44.42129135131836,60.765289306640625,21.051000595092773
1,323161,-36.59828186035156,-18.5672550201416,27.76137924194336,-49.312259674072266
1,323163,-4.66111421585083,26.89793586730957,-59.03911590576172,-93.39199829101562
1,323165,42.611358642578125,10.85428524017334,-68.80049133300781,94.72874450683594
1,323167,6.202373504638672,4.778668403625488,13.531822204589844,114.02462005615234
1,323169,-40.473873138427734,-10.06256103515625,107.12711334228516,-117.20832824707031
1,323171,2.747577428817749,-10.557097434997559,24.391996383666992,-70.82012939453125
1,323173,30.375110626220703,-12.325756072998047,-93.49652862548828,69.1630630493164
1,323175,15.372742652893066,-19.77538299560547,-74.0298843383789,0.22765743732452393
1,323177,-16.305940628051758,12.125120162963867,34.06209182739258,5.433701515197754
1,323179,7.476304054260254,37.930458068847656,54.5137939453125,58.55352783203125
1,323181,14.015901565551758,15.235824584960938,7.407474040985107,-78.35671997070312
1,323183,38.81406021118164,-9.456265449523926,-27.832481384277344,-82.91543579101562
1,323185,49.906402587890625,-28.255584716796875,-29.377840042114258,118.59529876708984
1,323187,-84.20144653320312,-1.3054652214050293,51.418983459472656,82.31644439697266
1,323189,-76.37429809570312,32.044532775878906,20.36158561706543,-99.63677978515625
1,323191,38.523345947265625,-18.44793701171875,-36.84337615966797,-72.95755767822266
1,323193,23.63835906982422,-20.64891815185547,24.38797950744629,64.11122131347656
1,323195,-2.878796339035034,17.32506561279297,10.496330261230469,29.61684226989746
1,323197,20.78462791442871,6.763909816741943,-33.13310241699219,-23.64178466796875
1,323199,-15.42185115814209,-7.114960670471191,-0.5102488994598389,53.3135871887207
1,323201,-34.640445709228516,-15.644061088562012,16.332138061523438,-16.56984519958496
1,323203,6.055608749389648,6.174380779266357,-15.461264610290527,-112.90608978271484
1,323205,14.76651668548584,6.358622074127197,-12.863492012023926,43.30061340332031
1,323207,28.184188842773438,-6.3891520500183105,-2.3720993995666504,114.79322052001953
1,323209,-7.933588027954102,3.117921829223633,-3.21709942817688,-65.37382507324219
1,323211,-27.27969741821289,3.934945821762085,28.820432662963867,-119.163818359375
1,323213,28.662382125854492,32.74776840209961,10.956905364990234,35.87847900390625
1,323215,3.1908490657806396,-2.3377203941345215,-5.927030086517334,72.64988708496094
1,323217,-21.835477828979492,-19.27829933166504,32.95722579956055,23.72856330871582
1,323219,14.409375190734863,13.47031307220459,3.8125064373016357,87.72724151611328
1,323221,-16.112653732299805,-27.964014053344727,-45.74269485473633,-35.887847900390625
1,323223,-16.062528610229492,-3.7654707431793213,-15.772802352905273,-182.7847900390625
1,323225,33.28064727783203,4.193150520324707,7.752960205078125,44.43592834472656
1,323227,35.14951705932617,-7.939396858215332,6.9497504234313965,136.85076904296875
1,323229,-34.07389450073242,31.652002334594727,-11.930256843566895,-61.610137939453125
1,323231,-69.59488677978516,-14.783698081970215,-9.467170715332031,-84.82911682128906
1,323233,30.437177658081055,-22.637685775756836,14.426412582397461,38.500850677490234
1,323235,40.61033630371094,14.710680961608887,-3.780080795288086,35.095436096191406
1,323237,-1.8804914951324463,9.46938705444336,-3.920710563659668,-12.750666618347168
1,323239,9.465696334838867,21.751314163208008,19.852285385131836,35.23481369018555
1,323241,-12.93519115447998,-2.2156548500061035,18.292673110961914,-29.040531158447266
1,323243,-4.005735874176025,-45.17621994018555,-13.482808113098145,-91.69590759277344
1,323245,5.855413436889648,5.036672592163086,-17.37148094177246,98.87236785888672
1,323247,4.801070213317871,40.45692825317383,12.15310287475586,109.33858489990234
1,323249,-4.844449043273926,-15.466039657592773,10.647024154663086,-86.10381317138672
1,323251,-26.932567596435547,-9.914002418518066,-6.232460021972656,-80.1294174194336
1,323253,4.2719597816467285,-0.014402275905013084,-13.21689510345459,6.626318454742432
1,323255,14.3753080368042,-24.78131866455078,-14.824288368225098,57.997894287109375
1,323257,8.164371490478516,5.977250099182129,4.453969478607178,35.20885467529297
1,323259,20.112510681152344,14.462685585021973,26.032196044921875,-11.691927909851074
1,323514,16.614953994750977,14.389723777770996,-6.578543663024902,60.7803955078125
1,323515,32.68901062011719,23.755212783813477,-46.30655288696289,-45.54126739501953
1,323518,-21.335845947265625,-5.197036266326904,5.099383354187012,-232.7886505126953
1,323519,-110.63957214355469,-25.925371170043945,67.42583465576172,-36.65306854248047
1,323522,-42.568275451660156,-29.607105255126953,4.239563941955566,85.68177795410156
1,323523,61.964637756347656,12.387145042419434,-47.9659309387207,43.649383544921875
1,323526,25.492525100708008,34.713340759277344,8.699996948242188,142.6923065185547
1,324462,-23.960220336914062,-11.941186904907227,23.8525447845459,82.98812866210938
1,324463,36.53864669799805,-13.573628425598145,-12.398818969726562,45.9553108215332
1,324464,44.06364822387695,21.466432571411133,-7.012282848358154,83.82781982421875
1,324467,-3.6463582515716553,-6.527730464935303,-9.859139442443848,-108.86290740966797
1,324468,-26.477602005004883,-28.63266372680664,-8.656523704528809,-221.5802459716797
1,324471,-35.9094123840332,15.142048835754395,25.654211044311523,-118.07389068603516
1,324472,-4.575112342834473,10.53368854522705,21.76386070251465,32.399776458740234
1,324475,-32.115623474121094,-14.637398719787598,-8.10288143157959,60.99139404296875
1,324476,-15.880826950073242,4.183734893798828,-29.442190170288086,17.08573341369629
1,324479,99.63148498535156,10.627644538879395,-1.3842277526855469,73.54354095458984
1,324480,33.68561553955078,0.48995473980903625,10.90352725982666,-22.563034057617188
1,324483,-63.526145935058594,-5.74493932723999,-32.070343017578125,46.31283950805664
1,324484,18.9523983001709,-2.2930562496185303,3.4795916080474854,195.64886474609375
1,324487,26.40598487854004,18.416662216186523,52.67295455932617,-115.43463897705078
1,324488,-11.302877426147461,5.748547554016113,2.9179177284240723,-201.97047424316406
1,324491,-26.769227981567383,-25.423290252685547,-49.74254608154297,-5.033857345581055
1,324492,-42.07079315185547,-8.234140396118164,-8.444109916687012,29.748340606689453
1,324495,11.8463716506958,7.96691370010376,70.53053283691406,20.65372085571289
1,324496,66.51042175292969,-16.302024841308594,14.559773445129395,9.06323528289795
1,324499,-6.897233486175537,11.18948745727539,-59.857810974121094,51.69264221191406
1,324500,-69.19165802001953,19.212631225585938,-20.41987419128418,-8.918098449707031
1,324503,13.600553512573242,-23.17205047607422,14.162755012512207,21.88442611694336
1,324504,18.845088958740234,21.430267333984375,17.985673904418945,153.43295288085938
1,324507,-7.242094993591309,17.42668914794922,-5.644473075866699,-84.34353637695312
1,324508,17.677711486816406,-49.01757049560547,-7.6943678855896,-190.22422790527344
1,324511,16.973939895629883,1.9586987495422363,20.45296859741211,21.772390365600586
1,324512,-2.5716898441314697,49.044315338134766,-3.8300132751464844,39.7105827331543
1,324515,-41.55885314941406,-12.127204895019531,-30.71597671508789,18.989910125732422
1,324516,-9.037408828735352,-32.374759674072266,9.093689918518066,29.358736038208008
1,324519,42.79621124267578,-3.726196527481079,6.707990646362305,-8.252909660339355
1,324520,-2.9782238006591797,10.459794044494629,-18.11223793029785,-34.88446807861328
1,324523,-21.379114151000977,26.897565841674805,19.38626480102539,46.559791564941406
1,324524,24.055709838867188,5.3514814376831055,12.076835632324219,122.85717010498047
1,324527,22.488237380981445,-33.417816162109375,-11.091022491455078,-95.5516357421875
1,324528,-35.20261001586914,-5.901318550109863,-1.9400759935379028,-132.70628356933594
1,324531,-44.824825286865234,9.639617919921875,-11.108107566833496,35.26168441772461
1,324532,32.22722625732422,-0.7107519507408142,1.7120112180709839,30.41669464111328
1,324535,36.18613052368164,21.2778263092041,33.01613998413086,43.93626403808594
1,324536,37.147300720214844,7.741719722747803,6.972795486450195,-10.811104774475098
1,324539,-4.773951530456543,-8.48966121673584,-53.14271545410156,-29.040952682495117
1,324540,-129.46067810058594,-13.062508583068848,-9.981271743774414,-17.659128189086914
1,324543,-23.468873977661133,18.85101318359375,87.55999755859375,24.14752197265625
1,324544,88.8131103515625,2.5761959552764893,41.0732536315918,123.62699127197266
1,324547,24.702381134033203,-50.960960388183594,-77.40575408935547,-50.11610412597656
1,324548,-23.34922218322754,25.28299903869629,-57.02191162109375,-140.83692932128906
1,324551,-9.020964622497559,19.820110321044922,18.04273223876953,9.711362838745117
1,324552,78.28424835205078,-34.22677230834961,14.739112854003906,86.37088775634766
1,324555,-0.03268206864595413,19.88421058654785,11.308162689208984,10.44715404510498
1,324556,-103.41712951660156,-2.7426400184631348,8.362935066223145,-52.773643493652344
1,324559,8.756861686706543,7.164478302001953,-3.684263229370117,15.139482498168945
1,324560,9.122565269470215,20.453948974609375,-3.830254077911377,-27.15132713317871
1,324563,-6.324716567993164,-41.51975631713867,-23.5307674407959,25.114595413208008
1,324564,44.90250015258789,14.284119606018066,-10.688654899597168,127.79903411865234
1,324567,38.90675354003906,22.103635787963867,43.22480010986328,-67.4193115234375
1,324568,-8.797115325927734,-18.647663116455078,18.175580978393555,-123.33570861816406
1,324571,-55.993892669677734,-2.3231093883514404,-44.72945785522461,4.009465217590332
1,324572,-12.54666805267334,-7.037703990936279,-5.996583938598633,67.85175323486328
1,324575,13.723295211791992,-0.3167899549007416,34.86685562133789,60.95589828491211
1,324576,-15.590224266052246,-14.342391014099121,-3.184730052947998,-53.679080963134766
1,324579,-6.362179756164551,-10.875603675842285,-12.535994529724121,-13.697813034057617
1,324580,27.916797637939453,19.302200317382812,10.908443450927734,-11.486245155334473
1,324583,14.554343223571777,15.138422012329102,-5.416284084320068,-12.253629684448242
1,324584,13.602331161499023,14.585746765136719,-16.85503387451172,134.10096740722656
1,324587,3.3700993061065674,7.080513954162598,12.613125801086426,-39.07175064086914
1,324588,-24.827138900756836,-17.355833053588867,18.034229278564453,-153.98431396484375
1,324591,-23.14659309387207,3.190361261367798,2.1357579231262207,43.49177169799805
1,324592,-32.8990592956543,1.0975837707519531,-21.654895782470703,92.85000610351562
1,324595,4.67758321762085,-28.087451934814453,-7.586522102355957,-13.892775535583496
1,324596,75.5052719116211,25.876327514648438,5.057558536529541,-51.48550033569336
1,324599,9.206369400024414,12.535499572753906,-6.736981391906738,6.90060567855835
1,324600,-43.69745635986328,-17.289154052734375,35.418128967285156,-26.57891082763672
1,324603,-8.36226749420166,9.900114059448242,52.697845458984375,15.655402183532715
1,324604,25.278566360473633,-32.044898986816406,-10.935035705566406,117.85101318359375
1,324607,63.323490142822266,-9.03959846496582,-132.07952880859375,-21.976362228393555
1,324608,-46.65977478027344,11.222222328186035,-80.37496948242188,-99.82926940917969
1,324611,-51.659706115722656,3.5499727725982666,62.56760787963867,-42.71710205078125
1,324612,44.301780700683594,23.670406341552734,52.53325271606445,38.720279693603516
1,324615,-36.602333068847656,-14.431142807006836,75.78919219970703,71.34126281738281
1,324616,-30.665184020996094,7.63062047958374,28.761798858642578,-16.630123138427734
1,324619,38.70279312133789,2.5437850952148438,-66.44673156738281,-4.709208965301514
1,324620,-17.41958999633789,-23.77092742919922,-11.21190357208252,-36.41537094116211
1,324623,2.5763375759124756,31.965356826782227,13.70453929901123,19.868022918701172
1,324625,40.91965103149414,16.22895050048828,13.265978813171387,121.55901336669922
1,324627,-3.9412662982940674,-31.74936294555664,-12.198671340942383,-106.47554016113281
1,324629,16.45208168029785,2.7247395515441895,-12.318666458129883,-136.53652954101562
1,324631,-17.105093002319336,1.5969942808151245,74.62767791748047,64.22205352783203
1,324633,-50.54202651977539,-22.367612838745117,29.83855628967285,72.95121765136719
1,324635,8.277883529663086,31.081703186035156,-68.79936218261719,0.7618438005447388
1,324637,25.612228393554688,6.230660915374756,-91.2065200805664,-33.27521896362305
1,324639,35.331138610839844,-34.10454559326172,-49.76394271850586,-4.249446392059326
1,324641,-38.43659591674805,7.208395004272461,184.07696533203125,-3.580432891845703
1,324643,-28.839143753051758,3.4803431034088135,56.34024429321289,54.47196960449219
1,324645,79.43951416015625,-8.139433860778809,-308.7127380371094,63.066856384277344
1,324647,5.938984394073486,13.1395902633667,-39.2303466796875,-109.72840881347656
1,324649,-20.406579971313477,22.16876792907715,148.90408325195312,-72.4049301147461
1,324650,4.253416061401367,-6.184990406036377,-14.944343566894531,101.04817199707031
1,324653,-31.864946365356445,-33.13984680175781,105.38780212402344,50.87371826171875
1,324656,-11.289051055908203,19.086612701416016,124.68978881835938,-35.126976013183594
1,324657,0.6610307693481445,13.95073127746582,-118.74205017089844,5.527028560638428
1,324658,-14.942623138427734,-30.52911949157715,-73.81825256347656,-17.791967391967773
1,324661,-3.913914680480957,9.968518257141113,78.01180267333984,-94.50780487060547
1,324662,-25.077613830566406,8.161138534545898,42.24422073364258,-49.972320556640625
1,324665,15.121435165405273,-2.653151273727417,-10.590009689331055,142.7534637451172
1,324666,51.26264190673828,2.661081075668335,-23.794397354125977,96.09521484375
1,324669,-48.69478225708008,-10.285490989685059,1.5428862571716309,-147.3593292236328
1,324670,-7.243650436401367,15.104775428771973,4.020473003387451,-10.509088516235352
1,324673,70.37262725830078,13.678253173828125,-16.994373321533203,108.63349151611328
1,324674,-0.6022823452949524,-30.9210262298584,-47.69492721557617,-37.321510314941406
1,324677,-22.519336700439453,1.8971956968307495,-78.7618637084961,-15.998787879943848
1,324678,14.083511352539062,38.034610748291016,1.9604803323745728,26.301666259765625
1,324681,13.716690063476562,-38.638450622558594,41.529720306396484,-75.02081298828125
1,324682,-5.911962032318115,-28.27757453918457,-16.07030487060547,-63.914886474609375
1,324685,-4.908592700958252,57.538021087646484,84.12995147705078,139.4698486328125
1,324686,-39.81122589111328,2.1858396530151367,112.27985382080078,78.82853698730469
1,324689,-30.726839065551758,-46.02836608886719,-36.945465087890625,-160.47393798828125
1,324690,39.96241760253906,2.2581405639648438,-77.26747131347656,-29.551105499267578
1,324693,12.08582878112793,13.667776107788086,-40.897674560546875,82.41918182373047
1,324694,-22.616968154907227,3.702638864517212,6.359116554260254,13.032696723937988
1,324697,32.49290084838867,1.0397241115570068,8.53846549987793,15.634910583496094
1,324698,25.589218139648438,12.730704307556152,17.05483055114746,3.4402971267700195
1,324701,-49.94561767578125,8.580660820007324,20.196014404296875,-67.54106140136719
1,324702,-1.7342926263809204,-15.644264221191406,-14.466946601867676,-51.856056213378906
1,324705,75.38233184814453,7.036123275756836,-50.79621887207031,100.47360229492188
1,324706,-1.3915116786956787,3.6723127365112305,-69.89910888671875,55.04290008544922
1,324709,-84.29930877685547,-15.60075569152832,50.649784088134766,-106.77896118164062
1,324710,-13.048016548156738,3.3892788887023926,61.91944122314453,18.8607234954834
1,324713,32.1952018737793,13.846056938171387,27.382795333862305,85.00724029541016
1,324714,-13.186214447021484,-22.062774658203125,31.771387100219727,-60.01838302612305
1,324717,30.297603607177734,-18.812301635742188,-53.65400314331055,-18.756385803222656
1,324718,29.40534782409668,17.36151695251465,-27.14463233947754,41.3475227355957
1,324721,-63.58463668823242,-0.6105090975761414,42.634029388427734,-52.53433609008789
1,324722,-38.74374771118164,-9.188340187072754,17.37792205810547,-64.65576171875
1,324725,53.1459846496582,-7.185422420501709,-16.139495849609375,89.2564468383789
1,324726,20.50931739807129,7.305771827697754,-8.744439125061035,87.02486419677734
1,324729,-39.889854431152344,38.75373077392578,-4.218411922454834,-121.636474609375
1,324730,-2.531863212585449,-3.1415812969207764,7.795743942260742,-60.64581298828125
1,324733,30.108699798583984,-26.178104400634766,1.6025794744491577,104.60025787353516
1,324734,30.354721069335938,25.05508804321289,-34.630889892578125,13.194697380065918
1,324737,8.66394329071045,5.005609512329102,-27.902746200561523,-15.83541202545166
1,324738,-17.83003044128418,-30.631328582763672,7.445742607116699,29.172046661376953
1,324741,-17.764522552490234,0.24107299745082855,36.9910774230957,-63.25551986694336
1,324742,-11.840286254882812,15.47791576385498,17.465559005737305,-48.354068756103516
1,324745,-2.6605498790740967,3.9910712242126465,-32.71352005004883,116.48703002929688
1,324746,21.920167922973633,-15.608099937438965,-3.452223777770996,55.847049713134766
1,324749,-6.240590572357178,-1.4409397840499878,25.402734756469727,-132.42015075683594
1,324750,-17.533023834228516,19.441465377807617,0.7598692774772644,-29.75652313232422
1,324753,3.571089506149292,-18.44270133972168,-2.6718757152557373,73.80213165283203
1,324754,3.6977059841156006,5.925159931182861,1.3766587972640991,-8.64924430847168
1,324757,15.214889526367188,30.394763946533203,11.620014190673828,-7.727194309234619
1,324758,-72.23127746582031,-19.732994079589844,186.30264282226562,18.337085723876953
1,324761,-45.74619674682617,-24.06464195251465,-47.538631439208984,-35.59092330932617
1,324762,95.68013000488281,4.02207612991333,-454.3998718261719,-63.75054931640625
1,324765,105.96830749511719,-2.6152191162109375,-54.27338790893555,94.81964874267578
1,324766,47.09635925292969,-5.759965896606445,183.61163330078125,102.08492279052734
1,324769,-86.85574340820312,11.473649024963379,190.72164916992188,-138.4415740966797
1,324770,-91.5067367553711,-9.010869979858398,190.17605590820312,-52.95500564575195
1,324773,15.672624588012695,-3.412515878677368,-152.53057861328125,110.30835723876953
1,324774,-11.472369194030762,45.17572784423828,-46.78448486328125,3.6277120113372803
1,324777,-38.07989501953125,9.112866401672363,167.88720703125,-16.757423400878906
1,324778,5.431360721588135,-42.672664642333984,-65.83946228027344,-0.9636397957801819
1,324781,77.77125549316406,-16.478713989257812,-244.79721069335938,-64.89988708496094
1,324782,71.69320678710938,9.595649719238281,-67.96302795410156,-32.31182098388672
1,324785,-29.6662540435791,25.4589786529541,151.58505249023438,123.65772247314453
1,324786,-46.90087890625,5.873290061950684,163.56491088867188,94.88470458984375
1,324789,-71.7154541015625,-21.330753326416016,43.070098876953125,-163.78713989257812
1,324790,-29.924022674560547,0.22958660125732422,-104.01329040527344,-75.06033325195312
1,324793,60.024681091308594,-13.112858772277832,-136.90859985351562,84.7750015258789
1,324794,59.274600982666016,-2.9041433334350586,-50.162109375,-12.117046356201172
1,324797,54.23861312866211,39.25859069824219,31.9066219329834,50.898075103759766
1,324798,-24.905012130737305,-5.537711143493652,61.00384521484375,47.104122161865234
1,324801,-56.70856475830078,-27.765602111816406,98.90394592285156,-92.12991333007812
1,324802,-15.432623863220215,19.36229133605957,48.73933792114258,-29.201309204101562
1,324805,-46.337646484375,2.890634775161743,-29.346633911132812,108.47208404541016
1,324806,-67.3435287475586,-18.91219711303711,-62.85362243652344,32.95417785644531
1,324809,95.22299194335938,22.852657318115234,-11.537284851074219,-145.62364196777344
1,324810,201.01138305664062,11.477402687072754,36.323848724365234,-50.779266357421875
1,324813,-78.18744659423828,-39.51182174682617,-73.75987243652344,92.36834716796875
1,324814,-202.27232360839844,-8.65904426574707,-81.98828125,23.971879959106445
1,324817,57.0264778137207,49.68830871582031,78.2396469116211,-2.1132917404174805
1,324818,75.06094360351562,-3.0290262699127197,109.63768005371094,19.381732940673828
1,324821,15.029741287231445,-54.56802749633789,-105.1173095703125,-27.32334327697754
1,324823,72.91554260253906,6.669056415557861,-80.98802947998047,-18.679975509643555
1,324825,-57.11314010620117,15.540645599365234,50.03883361816406,68.75695037841797
1,324827,-79.43238830566406,-8.921529769897461,31.400300979614258,24.291950225830078
1,324829,-2.934739589691162,-1.3853927850723267,127.91397857666016,-113.96815490722656
1,324831,11.530509948730469,8.482667922973633,6.3114495277404785,-36.54343795776367
1,324833,38.55171585083008,19.294200897216797,-153.2231903076172,96.29668426513672
1,324835,-15.665726661682129,-15.360489845275879,-7.275836944580078,19.66020393371582
1,324837,-27.04890251159668,-6.820295810699463,172.2567596435547,-25.003747940063477
1,324839,-11.554014205932617,28.26162338256836,15.197516441345215,-11.334282875061035
1,324841,54.033023834228516,-0.6238405108451843,-291.2078857421875,-61.62237548828125
1,324843,62.47024917602539,2.697944164276123,-29.19455909729004,0.8751189708709717
1,324845,-34.35493850708008,9.774080276489258,214.4605712890625,110.82433319091797
1,324847,-10.36356258392334,-1.8015486001968384,29.59221649169922,-8.934749603271484
1,324848,-14.673750877380371,-4.37893009185791,-31.490360260009766,-88.03971862792969
1,324851,-24.585920333862305,-24.31451988220215,-97.35598754882812,29.197589874267578
1,324852,19.261070251464844,-6.445600509643555,-56.76128387451172,69.44353485107422
1,324855,-24.370742797851562,-5.342016220092773,115.23336791992188,-7.656360626220703
1,324856,-15.13692855834961,12.617650985717773,90.52092742919922,-53.43791961669922
1,324859,25.161046981811523,20.223365783691406,-23.626314163208008,-0.8790920972824097
1,324862,-30.085174560546875,-25.364473342895508,31.394153594970703,16.288570404052734
1,324863,-57.07511901855469,-8.015613555908203,75.70996856689453,-21.724157333374023
1,324865,8.021397590637207,20.3123722076416,-24.537561416625977,2.637509346008301
1,324867,41.19767379760742,30.80398941040039,-70.69087219238281,9.426816940307617
1,324869,-6.524374961853027,-18.1903076171875,34.60495376586914,-87.11738586425781
1,324871,62.58265686035156,-44.83831024169922,-62.126651763916016,14.138642311096191
1,324873,121.13038635253906,30.037952423095703,-404.884033203125,124.59674835205078
1,324875,19.63971519470215,3.4691262245178223,-113.55547332763672,-31.751161575317383
1,324877,-64.63452911376953,-43.097354888916016,349.9457092285156,-39.59180450439453
1,324879,-76.55543518066406,21.520397186279297,253.1280975341797,49.09492874145508
1,324881,-50.888282775878906,42.357139587402344,6.099791526794434,-29.77246856689453
1,324883,-3.51239013671875,-9.786758422851562,-116.42446899414062,-16.893070220947266
1,324885,-16.82789421081543,-32.09227752685547,8.466065406799316,75.8417739868164
1,324887,-43.45071792602539,-8.266705513000488,109.36654663085938,-22.35567283630371
1,324889,41.01414108276367,21.28668975830078,30.159915924072266,-93.63715362548828
1,324891,30.868600845336914,18.793607711791992,-60.283470153808594,10.997056007385254
1,324893,-3.028277635574341,-9.584975242614746,-133.57635498046875,23.702762603759766
1,324895,51.3524055480957,-13.15373706817627,-35.77479934692383,6.072049140930176
1,324897,3.499406337738037,5.8860602378845215,81.63726043701172,82.9584732055664
1,324899,-23.804336547851562,24.212207794189453,86.44023132324219,-13.848316192626953
1,324901,2.8558967113494873,-13.487894058227539,-7.100408554077148,-109.53996276855469
1,324903,2.2514562606811523,-33.72878646850586,-146.69061279296875,14.878440856933594
1,324905,21.317405700683594,19.188373565673828,-72.57677459716797,94.44522857666016
1,324907,8.991459846496582,-9.397964477539062,54.93589782714844,-2.8101985454559326
1,324909,17.606477737426758,-4.48585319519043,20.039112091064453,-110.51679229736328
1,324911,-3.260193347930908,36.80990982055664,-13.434724807739258,12.313614845275879
1,324913,-90.4083251953125,-11.914837837219238,58.73676300048828,92.295166015625
1,324915,-22.838706970214844,-8.540194511413574,28.125438690185547,-26.094959259033203
1,324917,50.33060073852539,9.908110618591309,13.623270988464355,-12.5992431640625
1,324919,25.78091812133789,3.4356563091278076,4.179275989532471,16.527423858642578
1,324921,-15.408673286437988,-6.494328022003174,115.66080474853516,-70.49179077148438
1,324923,-110.95346069335938,-13.373048782348633,167.37498474121094,-24.213499069213867
1,324925,33.94884490966797,21.798429489135742,-423.52972412109375,128.5415496826172
1,324927,179.59130859375,11.913309097290039,-351.1743469238281,28.526988983154297
1,324929,47.165985107421875,-18.745141983032227,351.9471130371094,-147.34373474121094
1,324931,-95.55899047851562,-12.872943878173828,280.6807556152344,-1.2872650623321533
1,324933,-80.37252044677734,-9.491666793823242,-22.89097785949707,94.01456451416016
1,324935,60.520668029785156,15.264949798583984,-183.99012756347656,18.262107849121094
1,324937,-50.79578399658203,-11.082503318786621,-96.41673278808594,-12.511981964111328
1,324939,-52.90095520019531,-22.757917404174805,137.0502471923828,-57.533321380615234
1,324941,75.38117980957031,33.17760467529297,90.62891387939453,-17.72245216369629
1,324943,-22.87371826171875,5.0497822761535645,-130.95065307617188,44.93972396850586
1,324945,-60.47124099731445,-17.885787963867188,-64.98475646972656,33.99708938598633
1,324947,26.69353485107422,34.13658142089844,49.540645599365234,-7.359868049621582
1,324949,86.01018524169922,11.959160804748535,-53.36083984375,-67.54822540283203
1,324951,8.776371002197266,-47.608436584472656,108.9177474975586,-9.572111129760742
1,324953,-9.954389572143555,-6.276520729064941,132.2053985595703,67.7296142578125
1,324955,20.47249984741211,47.75001525878906,-69.71186828613281,23.13719940185547
1,324957,-11.589910507202148,4.867944717407227,-158.07398986816406,1.1734309196472168
