Aktueller Finger,timestamp_ms,sensor_0,sensor_1,sensor_2,sensor_3
0,149755,40.29478454589844,-14.3214693069458,64.6072006225586,65.64454650878906
0,149755,-11.764793395996094,12.34834098815918,-19.0152587890625,-44.10911560058594
0,149757,-48.42154312133789,18.453386306762695,-22.407392501831055,-17.515153884887695
0,149759,-7.293006420135498,8.979717254638672,20.799158096313477,27.543575286865234
0,149761,28.836559295654297,-10.227487564086914,13.21103286743164,1.227433204650879
0,149763,0.4184968173503876,-23.264080047607422,-14.526178359985352,1.2962989807128906
0,149765,-30.43556022644043,15.229480743408203,-17.34684944152832,-14.881270408630371
0,149767,23.244325637817383,6.396683216094971,16.35451889038086,13.59982967376709
0,149769,31.56949234008789,-18.765865325927734,24.782194137573242,44.26689910888672
0,149771,-46.47649383544922,11.433216094970703,-14.772529602050781,-32.722129821777344
0,149773,10.456816673278809,9.280117988586426,-17.761152267456055,-40.31111526489258
0,149775,55.898284912109375,15.225341796875,6.38850736618042,17.011735916137695
0,149777,-108.496826171875,9.243412971496582,14.092040061950684,16.32865333557129
0,149779,-21.198665618896484,-36.49129867553711,-14.962142944335938,31.462844848632812
0,149781,155.1182861328125,-32.694828033447266,-35.97553634643555,5.36875057220459
0,149783,-6.074534893035889,25.459896087646484,15.234269142150879,-33.29145050048828
0,149785,-53.1351203918457,42.62065887451172,32.24167251586914,-26.820720672607422
0,149787,14.470804214477539,-6.264982223510742,8.06485652923584,25.331588745117188
0,149789,-21.153730392456055,-38.69191360473633,-21.43579864501953,-0.8360007405281067
0,149791,-2.2310516834259033,-5.005923271179199,-10.374122619628906,-13.480098724365234
0,149793,15.602953910827637,29.944927215576172,24.0181827545166,42.019989013671875
0,149795,-19.854490280151367,-0.5832881927490234,-10.210410118103027,-17.26470375061035
0,149797,15.526347160339355,-21.384307861328125,-2.9266271591186523,-14.601531028747559
0,149799,8.51706314086914,0.905954897403717,11.82764720916748,18.363677978515625
0,149801,-29.4550724029541,5.943422317504883,-7.5254807472229,3.1871695518493652
0,149803,19.90816307067871,-1.5166621208190918,6.993461608886719,-41.408660888671875
0,149805,-22.427223205566406,-5.414522647857666,-26.29245948791504,-73.96865844726562
0,149807,-32.23064041137695,19.452281951904297,-15.782259941101074,67.57049560546875
0,149809,53.230743408203125,4.065227031707764,27.536876678466797,100.2266845703125
0,149811,13.680895805358887,-9.192303657531738,23.9702205657959,-26.49292755126953
0,149813,-11.446646690368652,15.746356010437012,49.93046951293945,0.0021169092506170273
0,149815,-9.52760124206543,-21.974349975585938,-39.85884475708008,-1.6030086278915405
0,149817,-11.517807960510254,-7.500503063201904,-79.2252426147461,-89.08377075195312
0,149819,30.926162719726562,26.314237594604492,31.6845760345459,-17.533823013305664
0,149821,-19.220748901367188,-9.431950569152832,19.36420440673828,80.04544830322266
0,149823,-4.729642391204834,-13.725747108459473,8.935589790344238,12.70939826965332
0,149825,13.998053550720215,-0.6295267939567566,4.042511463165283,-56.86836242675781
0,149827,-31.8726749420166,7.850729942321777,-8.819144248962402,31.809961318969727
0,149829,20.7580623626709,24.367700576782227,17.830392837524414,27.84795379638672
0,149831,7.569602966308594,-26.592529296875,-32.63088607788086,-59.34217834472656
0,149833,-24.58729362487793,-17.122800827026367,-10.426156997680664,13.422422409057617
0,149835,19.5971622467041,25.676162719726562,30.389230728149414,48.14591979980469
0,149837,-14.241449356079102,-11.227739334106445,-10.401375770568848,-45.61738967895508
0,149839,6.200993061065674,9.54460334777832,9.706804275512695,-33.994136810302734
0,149841,55.74976348876953,25.51349639892578,16.377071380615234,51.701683044433594
0,149843,-27.959857940673828,-7.353566646575928,-8.093555450439453,12.436439514160156
0,149845,-42.728675842285156,-21.584993362426758,-14.86630630493164,-23.02080535888672
0,149847,9.979721069335938,-11.771220207214355,-10.6198091506958,4.203238487243652
0,149849,0.42766088247299194,-2.2783708572387695,3.9094011783599854,-1.0654658079147339
0,149851,-7.850651741027832,-4.946071624755859,-16.889284133911133,-8.667794227600098
0,149853,8.002680778503418,23.90673828125,0.46845003962516785,0.29278817772865295
0,149855,19.024459838867188,13.020979881286621,11.44566822052002,16.45964813232422
0,149857,11.415426254272461,-13.793179512023926,3.477398633956909,18.918031692504883
0,149859,-17.604907989501953,-2.1413562297821045,22.470298767089844,9.312947273254395
0,149861,-7.730451583862305,-9.487959861755371,-26.044750213623047,-46.408023834228516
0,149863,24.074560165405273,20.622270584106445,-13.55162525177002,-22.845556259155273
0,149865,-8.32529354095459,19.15318489074707,39.809654235839844,66.15425109863281
0,149867,-32.09257125854492,-38.191368103027344,-4.29531717300415,-10.796725273132324
0,149869,28.664382934570312,-5.334499835968018,-11.921838760375977,-29.233556747436523
0,149871,23.54434585571289,30.32577133178711,1.4653503894805908,-9.957086563110352
0,149873,-35.234954833984375,-5.252312660217285,0.8902055621147156,-12.166648864746094
0,149875,1.101130485534668,-37.31779861450195,13.053264617919922,58.34965133666992
0,149877,10.971702575683594,-1.3906415700912476,-9.721725463867188,21.338064193725586
0,149879,-9.736584663391113,39.19607162475586,-16.130685806274414,-44.771484375
0,149881,-16.971513748168945,-25.198570251464844,16.45973777770996,-28.29315948486328
0,149883,4.250565052032471,-29.955251693725586,1.3346753120422363,14.663237571716309
0,149885,45.69315719604492,48.932823181152344,-18.900888442993164,16.90964126586914
0,149887,-17.685462951660156,15.049711227416992,18.256269454956055,12.639663696289062
0,149889,-52.2375373840332,-49.12916946411133,-8.352615356445312,-26.93947982788086
0,149891,36.17052459716797,17.449777603149414,-8.514278411865234,-14.499833106994629
0,149893,35.69802474975586,33.947471618652344,25.55209732055664,19.954822540283203
0,149895,-27.716535568237305,-1.7785649299621582,-22.71573829650879,-29.512208938598633
0,150150,-18.544845581054688,5.871463298797607,-1.6669387817382812,12.278353691101074
0,150151,4.528989791870117,-22.036483764648438,26.775087356567383,32.50041198730469
0,150154,11.646171569824219,-5.258991718292236,-12.4811372756958,-14.633580207824707
0,150155,3.3351643085479736,4.9444098472595215,-8.066756248474121,-8.249262809753418
0,150158,-9.825450897216797,-56.65694046020508,-13.801795959472656,28.860551834106445
0,150159,-0.7640275955200195,-12.788774490356445,-3.5392799377441406,3.347306966781616
0,150162,23.842214584350586,91.74844360351562,47.808433532714844,-19.53037452697754
0,153372,2.5159857273101807,19.583086013793945,9.366293907165527,7.129955291748047
0,153372,-27.361162185668945,-54.09764862060547,-42.763065338134766,-13.371000289916992
0,153375,-5.965428352355957,-20.251304626464844,-7.797379493713379,1.336234211921692
0,153376,4.7184882164001465,21.563697814941406,16.015596389770508,11.159244537353516
0,153379,-4.385015964508057,20.699520111083984,-0.26347923278808594,-3.1858878135681152
0,153380,-33.160648345947266,-36.44474411010742,-20.393505096435547,3.985668659210205
0,153383,10.347701072692871,12.484275817871094,4.094099998474121,-11.491228103637695
0,153384,69.85869598388672,39.798458099365234,27.17060089111328,13.67138957977295
0,153387,-11.453696250915527,-19.5386962890625,-21.542905807495117,14.180416107177734
0,153388,-28.670330047607422,-20.583330154418945,-17.963741302490234,-52.552101135253906
0,153391,34.27943420410156,14.703391075134277,25.001068115234375,-29.579368591308594
0,153392,-7.660547256469727,1.911813497543335,8.00760555267334,21.995925903320312
0,153395,-45.51154708862305,-28.409141540527344,-3.925440549850464,42.26478576660156
0,153396,9.210082054138184,19.895858764648438,19.89775848388672,20.943655014038086
0,153399,9.555702209472656,8.307559967041016,-5.94270658493042,-40.389122009277344
0,153400,-1.2408227920532227,-4.4815778732299805,-26.108510971069336,1.6710067987442017
0,153403,41.64595413208008,38.72972106933594,14.783417701721191,37.12117385864258
0,153404,-8.484733581542969,-24.86544418334961,-8.947993278503418,-6.999913215637207
0,153407,-56.78805160522461,-56.984901428222656,-21.330657958984375,-15.461944580078125
0,153408,-2.1406147480010986,9.639872550964355,24.173656463623047,4.204845428466797
0,153411,23.802732467651367,-3.672274589538574,4.2751874923706055,-13.373553276062012
0,153412,18.383098602294922,3.005735397338867,-3.973980665206909,-12.713310241699219
0,153415,3.398697853088379,53.90908432006836,-4.535616397857666,2.0823981761932373
0,153416,-6.246305465698242,-0.13677014410495758,-12.080949783325195,-0.8889013528823853
0,153419,16.3966064453125,-13.232856750488281,30.754350662231445,34.733482360839844
0,153420,-7.1729888916015625,-8.805465698242188,11.43584156036377,4.009414196014404
0,153423,-20.657901763916016,-35.6993408203125,-23.477684020996094,-33.2043571472168
0,153424,4.382854461669922,17.881977081298828,-9.288482666015625,16.21270751953125
0,153427,4.711849212646484,39.879154205322266,25.527830123901367,3.151911973953247
0,153428,-14.556135177612305,0.6065349578857422,6.381281852722168,-29.269193649291992
0,153431,-6.789079189300537,-26.31623077392578,-36.17334747314453,10.17885971069336
0,153432,15.978719711303711,-8.959575653076172,4.671010971069336,38.13127899169922
0,153435,-1.01840341091156,12.485203742980957,4.711975574493408,-21.11269187927246
0,153436,9.577864646911621,7.133482933044434,9.526562690734863,-30.00669288635254
0,153439,1.9534025192260742,-6.042428493499756,-1.5884939432144165,9.077055931091309
0,153440,-35.6014289855957,-24.91817283630371,-40.273155212402344,-28.55266571044922
0,153443,3.059077262878418,25.933616638183594,32.3231201171875,24.482807159423828
0,153444,22.287094116210938,24.690208435058594,21.923564910888672,54.79458236694336
0,153447,2.50689959526062,-22.630191802978516,-37.47410202026367,-33.94428253173828
0,153448,4.647146224975586,-8.436168670654297,21.760087966918945,-8.198793411254883
0,153451,11.52898120880127,3.3073890209198,20.107227325439453,23.226634979248047
0,153452,-5.009190559387207,-7.599478721618652,-26.836875915527344,-25.567771911621094
0,153455,-17.230506896972656,7.0746169090271,12.757410049438477,10.253405570983887
0,153456,9.917561531066895,10.41812801361084,22.08185386657715,14.613826751708984
0,153459,7.691061496734619,-34.231266021728516,-30.060712814331055,-22.324987411499023
0,153460,-34.77987289428711,3.0871126651763916,-35.93106460571289,13.532096862792969
0,153463,-3.0474157333374023,32.61962890625,19.183927536010742,9.041169166564941
0,153464,47.73834228515625,-9.617338180541992,22.85859489440918,-31.349645614624023
0,153467,-14.672223091125488,-16.032230377197266,-6.892297744750977,-22.427640914916992
0,153468,-29.199848175048828,15.795570373535156,-7.867809295654297,30.807891845703125
0,153471,35.73792266845703,19.284143447875977,-4.874988079071045,25.414831161499023
0,153472,2.386263132095337,-20.88114356994629,10.91559886932373,-34.835853576660156
0,153475,-50.723854064941406,-12.740580558776855,-9.800445556640625,-4.569352626800537
0,153476,13.663583755493164,37.943721771240234,-1.3700443506240845,44.10713195800781
0,153479,42.822288513183594,-2.4384193420410156,27.67364501953125,20.35240936279297
0,153480,-7.818843364715576,-28.29615020751953,12.850167274475098,-27.358627319335938
0,153483,-7.036491870880127,18.44354820251465,-8.90363597869873,-40.37993621826172
0,153484,-12.84107780456543,1.9524073600769043,-24.6396541595459,1.3446241617202759
0,153487,12.462811470031738,-23.308446884155273,0.5941961407661438,29.13114356994629
0,153488,20.848569869995117,0.8974899649620056,19.14164924621582,22.005741119384766
0,153491,-65.70748138427734,-4.211253643035889,-21.86893081665039,-21.679332733154297
0,153492,-0.013139350339770317,-23.267290115356445,-11.842700004577637,-19.689546585083008
0,153495,56.3604736328125,21.566577911376953,36.964683532714844,22.030656814575195
0,153496,-10.742044448852539,34.52703094482422,-6.605109691619873,-17.666515350341797
0,153499,2.556511163711548,-10.713327407836914,-17.170848846435547,-4.742425918579102
0,153501,-23.19115447998047,-28.44822120666504,-16.52640151977539,8.346964836120605
0,153503,-10.265531539916992,0.18974138796329498,-1.6244207620620728,-29.52639389038086
0,153505,52.98249816894531,41.1342658996582,56.641841888427734,33.889923095703125
0,153507,-7.346253871917725,6.5937981605529785,-23.730722427368164,1.1732196807861328
0,153509,-36.59984588623047,-23.927919387817383,-37.18157958984375,-41.891319274902344
0,153511,-5.004824161529541,-12.185916900634766,42.88984680175781,63.90098190307617
0,153513,0.8451122641563416,-7.33641242980957,-1.8840916156768799,25.524965286254883
0,153515,18.12289047241211,7.977141380310059,-25.127634048461914,-88.49238586425781
0,153517,2.890634775161743,-4.965296268463135,12.838281631469727,-20.634300231933594
0,153519,10.74074649810791,12.13060474395752,14.448124885559082,70.61156463623047
0,153521,12.611193656921387,13.416244506835938,-17.285140991210938,12.355400085449219
0,153523,-50.97084426879883,-21.023969650268555,-22.15131187438965,-0.6085881590843201
0,153525,-17.643756866455078,-11.87956428527832,14.658807754516602,13.46625804901123
0,153527,42.78389358520508,-1.4464640617370605,29.93175506591797,-18.913461685180664
0,153529,8.06493091583252,14.345131874084473,2.1705639362335205,3.3243818283081055
0,153531,-13.12932014465332,9.271000862121582,-31.197641372680664,-42.68482971191406
0,153533,5.829581260681152,12.219593048095703,-24.31161117553711,-48.557823181152344
0,153536,6.8999810218811035,7.734153747558594,20.372026443481445,79.28385162353516
0,153537,-3.808722734451294,-25.151704788208008,31.744773864746094,39.7203483581543
0,153538,8.795194625854492,3.6847422122955322,-9.838174819946289,-59.795318603515625
0,153541,-9.043478012084961,-7.727730751037598,-18.7452392578125,-16.629648208618164
0,153544,-27.861452102661133,-24.448165893554688,9.278692245483398,17.031766891479492
0,153545,20.63616371154785,9.93969440460205,19.88916778564453,44.037628173828125
0,153547,-4.157438278198242,12.272719383239746,-20.504337310791016,-22.98989486694336
0,153549,-9.90717601776123,28.5183048248291,-21.337804794311523,-47.168060302734375
0,153551,50.663578033447266,15.420514106750488,33.390113830566406,50.35615539550781
0,153553,-28.38755989074707,-35.82368850708008,10.007852554321289,27.727209091186523
0,153555,-52.13796615600586,-22.19593048095703,-51.32719039916992,-56.79200744628906
0,153557,43.51872253417969,22.04683494567871,6.778957366943359,-19.712827682495117
0,153559,27.742082595825195,29.70176887512207,69.50506591796875,63.08997344970703
0,153561,-18.49645233154297,-8.243310928344727,-19.47368049621582,-22.3638973236084
0,153563,-8.050585746765137,-33.043670654296875,-56.893253326416016,-49.13691329956055
0,153565,3.5042760372161865,-18.997499465942383,10.754170417785645,42.23114013671875
0,153567,-7.0911784172058105,22.8547420501709,38.65291213989258,12.56054973602295
0,153569,-9.027796745300293,33.614986419677734,-2.645721912384033,-6.772553443908691
0,153571,15.922298431396484,-24.698360443115234,-15.978108406066895,9.725439071655273
0,153573,27.402572631835938,-14.391050338745117,14.28957462310791,-5.701896667480469
0,153575,-19.96086883544922,9.741000175476074,-18.025867462158203,-20.533390045166016
0,153577,-26.60627555847168,-7.487602233886719,-7.839996814727783,-6.190017223358154
0,153579,27.761369705200195,-9.254563331604004,36.724727630615234,29.245038986206055
0,153581,-7.045065402984619,6.687620162963867,-27.47483253479004,-5.7813496589660645
0,153583,-21.000835418701172,26.328231811523438,-24.978378295898438,-26.497920989990234
0,153585,17.199199676513672,-3.584400177001953,32.42829895019531,17.03358268737793
0,153587,15.547576904296875,-8.454730033874512,3.278574228286743,12.308642387390137
0,153589,-0.16386382281780243,13.945916175842285,7.536159038543701,-15.132455825805664
0,153591,-34.04069137573242,-16.036691665649414,-15.67831802368164,2.5889246463775635
0,153593,-8.545860290527344,-11.827804565429688,-37.804527282714844,-10.302545547485352
0,153595,23.195056915283203,12.063475608825684,25.15350341796875,24.44963264465332
0,153597,-3.2212955951690674,0.6002640724182129,11.643242835998535,35.468597412109375
0,153599,6.300549030303955,7.87232780456543,-16.61353302001953,-58.418853759765625
0,153601,-0.9110156893730164,7.95145320892334,28.4869327545166,-4.506411552429199
0,153603,4.365900039672852,-3.1594247817993164,12.464795112609863,49.03232192993164
0,153605,27.32686996459961,-15.014959335327148,-27.387983322143555,-35.42887878417969
0,153607,-9.55205249786377,-13.0975980758667,-3.082458972930908,-14.735528945922852
0,153609,-27.721424102783203,17.719322204589844,10.045794486999512,35.23411178588867
0,153611,7.8097147941589355,2.139580488204956,8.951520919799805,-20.08211326599121
0,153613,4.333798408508301,-31.6003360748291,-7.1991143226623535,-0.9697776436805725
0,153615,-15.060264587402344,23.61159324645996,-19.260643005371094,18.221466064453125
0,153617,25.771554946899414,40.493507385253906,22.6140193939209,-24.220884323120117
0,153619,-16.640005111694336,-45.0113410949707,11.459311485290527,-9.791205406188965
0,153621,-26.329479217529297,-25.618810653686523,-24.116432189941406,18.668163299560547
0,153623,21.234785079956055,25.145397186279297,-11.784491539001465,60.898250579833984
0,153625,-6.508059501647949,2.5775344371795654,1.1602904796600342,-4.746808052062988
0,153627,12.177329063415527,7.5412726402282715,10.024374961853027,-192.54443359375
0,153629,25.592060089111328,10.328780174255371,17.14303207397461,-93.8009262084961
0,153631,-20.995866775512695,-19.811365127563477,-6.338230133056641,251.45379638671875
0,153633,-30.22140121459961,-6.97502326965332,-9.080405235290527,200.42494201660156
0,153635,34.59466552734375,47.30537796020508,33.980934143066406,-92.23316955566406
0,153637,16.349449157714844,-4.166306018829346,-0.49712201952934265,-60.25148391723633
0,153639,-30.70803451538086,-62.9130859375,-48.9970817565918,-45.79077911376953
0,153641,-1.1462196111679077,0.28867295384407043,-24.23527717590332,-131.2006378173828
0,153643,11.826740264892578,44.74103546142578,43.306541442871094,-34.089324951171875
0,153645,6.495389461517334,13.62942886352539,44.41704177856445,112.96955108642578
0,153647,6.07142448425293,-9.434012413024902,-19.773029327392578,183.65237426757812
0,153649,-3.530827522277832,-11.077720642089844,-17.685606002807617,55.64822769165039
0,153651,-24.189741134643555,-28.02706527709961,-28.288393020629883,-361.5010681152344
0,153653,-9.017046928405762,6.370876312255859,-31.56597137451172,-522.9063110351562
0,153655,23.767179489135742,37.38977813720703,52.622581481933594,438.0229187011719
0,153657,23.453540802001953,-25.7109317779541,39.77684783935547,701.7227783203125
0,153659,-44.45399856567383,-8.746912002563477,-57.18024444580078,-109.80322265625
0,153661,-39.2013053894043,39.52231216430664,-8.432476997375488,-73.45486450195312
0,153663,33.69835662841797,-20.232847213745117,16.527559280395508,-196.84228515625
0,153665,22.500734329223633,-33.23399353027344,-5.89963436126709,-395.54071044921875
0,153667,36.09016036987305,29.085113525390625,26.869937896728516,46.454246520996094
0,153669,11.949132919311523,37.18404006958008,1.377289056777954,243.45291137695312
0,153671,-57.50020217895508,-17.240135192871094,-16.864574432373047,61.84989929199219
0,153673,-5.70257568359375,-23.583908081054688,7.495625972747803,111.9696273803711
0,153675,18.228899002075195,5.136343479156494,-0.9542677998542786,-116.52881622314453
0,153677,10.27875804901123,19.712553024291992,0.497408002614975,-482.810546875
0,153679,44.940425872802734,3.6523728370666504,33.088016510009766,532.960205078125
0,153681,-21.552656173706055,-40.87379455566406,-25.4063777923584,932.0582885742188
0,153683,-90.70061492919922,-53.97093200683594,-42.53313446044922,-441.63037109375
0,153685,-21.22093391418457,8.174934387207031,-0.3964465260505676,-978.4878540039062
0,153687,60.92955780029297,53.19367218017578,4.339544296264648,-458.5813903808594
0,153689,16.143251419067383,-18.432941436767578,21.615421295166016,313.80841064453125
0,153691,-33.50186538696289,8.517532348632812,7.274429798126221,687.8933715820312
0,153693,15.472049713134766,66.97002410888672,0.8033234477043152,86.5272445678711
0,153695,54.01120376586914,8.608953475952148,28.300334930419922,-190.6006622314453
0,153697,14.195660591125488,-22.118738174438477,3.466982126235962,71.15767669677734
0,153699,-58.80148696899414,-44.06257629394531,-42.77890396118164,-352.6794128417969
0,153701,-12.798558235168457,-2.3027219772338867,0.26456892490386963,-156.47708129882812
0,153703,40.55225372314453,20.695716857910156,6.866201877593994,642.9107666015625
0,153705,-23.476463317871094,-17.28040313720703,-6.3571457862854,167.0467987060547
0,153707,-26.54047393798828,0.35271531343460083,28.82377052307129,-338.9082946777344
0,153709,8.604655265808105,3.4541378021240234,0.8530371189117432,-234.32200622558594
0,153711,12.690750122070312,-17.383121490478516,-13.375524520874023,200.57147216796875
0,153713,-3.3392179012298584,-10.841878890991211,-32.48860168457031,140.29078674316406
0,153715,26.871187210083008,47.14751052856445,-10.008700370788574,-375.37384033203125
0,153717,10.811200141906738,29.116924285888672,52.65281295776367,-47.43666076660156
0,153720,-39.256290435791016,-33.58774185180664,7.1088032722473145,362.5874938964844
0,153721,29.861263275146484,8.883209228515625,8.50418758392334,27.57413101196289
0,153722,-2.2793686389923096,9.363175392150879,-4.630129814147949,-362.1415100097656
0,153725,-25.325674057006836,-20.474468231201172,-59.10117721557617,230.79556274414062
0,153726,36.82349395751953,-10.178025245666504,-3.672978401184082,607.251220703125
0,153730,-21.25538444519043,-6.355380535125732,42.314964294433594,-372.3367919921875
0,153731,-15.838162422180176,-2.1242711544036865,12.13957691192627,-458.86749267578125
0,153732,33.41749954223633,-20.809778213500977,-33.0711555480957,238.63864135742188
0,153735,-21.11783218383789,13.866250991821289,12.076448440551758,-63.559478759765625
0,153736,-30.993349075317383,6.175856590270996,17.218467712402344,-314.1245422363281
0,153739,23.587377548217773,-7.720699787139893,-42.37146759033203,51.23401641845703
0,153740,18.79117774963379,41.96994400024414,18.199411392211914,137.9935760498047
0,153743,-20.5777530670166,3.559598207473755,29.28536033630371,195.21282958984375
0,153744,0.01758928783237934,-25.798288345336914,-20.38697052001953,194.04519653320312
0,153747,27.358396530151367,1.7223100662231445,-12.884232521057129,-106.85111999511719
0,153748,-6.584728717803955,0.21618521213531494,-9.201416015625,66.71895599365234
0,153751,-83.96041107177734,-53.33980941772461,-11.356194496154785,-59.09052658081055
0,153752,-6.341951370239258,4.476259231567383,0.2396160066127777,-190.52703857421875
0,153755,108.22650909423828,88.84398651123047,45.10512161254883,236.7093505859375
0,153756,9.489091873168945,-18.745197296142578,14.119172096252441,180.84088134765625
0,153759,-47.9175910949707,-59.730018615722656,-55.385498046875,-413.64508056640625
0,153760,-8.922036170959473,29.352174758911133,-4.722635746002197,-348.8108215332031
0,153763,10.120109558105469,21.140701293945312,55.487884521484375,119.53633880615234
0,153764,21.445032119750977,-16.41851234436035,21.279367446899414,168.2447967529297
0,153767,13.725325584411621,23.786344528198242,-11.431097984313965,32.899330139160156
0,153768,-0.30234506726264954,29.29183006286621,-22.120677947998047,36.352420806884766
0,153771,-24.769716262817383,-58.76036071777344,-32.810264587402344,551.0614624023438
0,153772,-38.932132720947266,-56.12297439575195,-1.483176827430725,-134.0
0,153775,10.916881561279297,44.8564567565918,6.074528694152832,-889.4876098632812
0,153776,28.79432487487793,22.73308753967285,20.01862335205078,143.4427947998047
0,153779,10.60484504699707,-19.537397384643555,27.647768020629883,533.5626831054688
0,153780,-9.339506149291992,0.7260550260543823,-27.333372116088867,-7.2499470710754395
0,153783,-19.676889419555664,23.74192237854004,-22.752601623535156,-254.2992401123047
0,153784,15.910662651062012,26.022613525390625,8.762629508972168,-30.37236213684082
0,153787,13.873215675354004,13.904927253723145,18.11558723449707,249.15829467773438
0,153788,18.246074676513672,-4.955687522888184,4.193190097808838,77.0604248046875
0,153791,-22.125612258911133,-63.512203216552734,-15.432356834411621,-238.2317352294922
0,153792,-41.97297286987305,-14.647491455078125,12.561711311340332,-93.70742797851562
0,153795,19.593780517578125,31.722286224365234,-4.209625244140625,219.9501495361328
0,153796,29.94937515258789,-3.918015956878662,-11.863892555236816,78.51990509033203
0,153799,0.4527100622653961,8.055614471435547,24.430177688598633,-105.0602798461914
0,153800,-33.83024978637695,-3.493431568145752,-2.893911123275757,-78.14115905761719
0,153803,-10.271493911743164,-1.7352304458618164,-53.687007904052734,-20.653112411499023
0,153804,35.053009033203125,14.416754722595215,-8.40637493133545,39.093997955322266
0,153807,6.551024436950684,-11.02630615234375,68.54153442382812,43.80270004272461
0,153808,-8.276302337646484,2.255495548248291,17.337045669555664,-74.34539794921875
0,153811,1.0568742752075195,-16.564233779907227,-45.4146614074707,59.426902770996094
0,153812,-49.22905349731445,-22.469196319580078,-19.572246551513672,219.4149627685547
0,153815,13.155142784118652,55.706424713134766,47.855857849121094,-249.27569580078125
0,153816,38.133087158203125,5.20590353012085,12.916101455688477,-416.9284362792969
0,153819,-28.00880241394043,-19.767913818359375,-37.33045196533203,152.0881805419922
0,153820,28.915096282958984,40.42378616333008,21.96207046508789,421.40826416015625
0,153823,-16.970460891723633,-64.62466430664062,-27.21123504638672,32.677833557128906
0,153824,-35.770179748535156,-42.59994888305664,-17.941640853881836,34.91196823120117
0,153827,28.36432456970215,54.580753326416016,22.94053840637207,25.374853134155273
0,153828,-9.806164741516113,-20.63726043701172,-18.227741241455078,-407.3419189453125
0,153831,3.737893581390381,-10.220680236816406,30.307628631591797,-162.26531982421875
0,153832,48.81611633300781,57.5039176940918,16.916576385498047,95.73456573486328
0,153835,14.285999298095703,37.39134216308594,-35.268924713134766,392.9657287597656
0,153836,-30.16850471496582,-34.74274826049805,-22.374399185180664,218.4302215576172
0,153839,-2.8123059272766113,-23.849382400512695,15.765237808227539,-560.32958984375
0,153840,-23.06206703186035,3.200477361679077,37.0537109375,-289.8901672363281
0,153843,-31.83017349243164,-45.67094421386719,-21.094852447509766,405.60247802734375
0,153844,34.371185302734375,3.1033806800842285,-37.653343200683594,306.1318054199219
0,153847,21.201950073242188,74.89615631103516,41.77022933959961,-133.18235778808594
0,153848,7.293330669403076,19.647403717041016,18.1890869140625,70.71836853027344
0,153851,-15.511905670166016,-36.56593322753906,-21.904457092285156,32.668094635009766
0,153852,-6.87693977355957,-13.600537300109863,5.222189426422119,-194.59310913085938
0,153855,5.071212291717529,-1.0545580387115479,-3.9678220748901367,-59.35916519165039
0,153856,-35.299503326416016,-13.141069412231445,-4.821510314941406,-75.41539001464844
0,153859,27.742246627807617,20.848569869995117,25.244287490844727,214.63223266601562
0,153860,39.47233581542969,13.041935920715332,31.262998580932617,90.42317962646484
0,153863,-24.852590560913086,-28.156885147094727,-52.036014556884766,-339.5269470214844
0,153864,-7.085355758666992,-24.840808868408203,-25.62973976135254,10.009689331054688
0,153867,2.5728201866149902,1.8209000825881958,36.44293975830078,270.16131591796875
0,153868,-20.614849090576172,43.99420928955078,5.049874782562256,-38.567481994628906
0,153871,12.430088996887207,25.328866958618164,14.159659385681152,-160.91966247558594
0,153872,19.263940811157227,-32.436851501464844,-25.096834182739258,-26.078033447265625
0,153875,-38.72370910644531,-32.48817443847656,-56.69097900390625,157.7633056640625
0,153876,-28.450361251831055,-5.98021125793457,-10.198020935058594,101.3639144897461
0,153879,33.702449798583984,5.474012851715088,52.61324691772461,-51.46587371826172
0,153880,8.651240348815918,-8.872762680053711,41.97547149658203,10.937785148620605
0,153883,55.26616668701172,56.816810607910156,-11.516059875488281,-107.53873443603516
0,153884,42.09791946411133,89.40509796142578,-0.8870695233345032,-308.47564697265625
0,153887,-109.09199523925781,-86.21955108642578,-14.778968811035156,-174.8673095703125
0,153888,-34.26222610473633,-93.70426940917969,-21.415098190307617,440.61029052734375
0,153891,52.44319152832031,69.85794830322266,17.909778594970703,340.09466552734375
0,153893,29.018207550048828,49.04848861694336,18.94868278503418,-287.4978942871094
0,153895,-12.57037353515625,-59.07617950439453,-21.001487731933594,14.831603050231934
0,153897,-57.39866256713867,-32.10612487792969,-23.27753448486328,120.77713012695312
0,153899,10.198744773864746,19.208946228027344,12.99026870727539,-377.01318359375
0,153901,42.69722366333008,0.3665277659893036,8.253751754760742,-266.8967590332031
0,153903,-25.737091064453125,35.93947982788086,7.753910541534424,602.8043212890625
0,153905,2.452042818069458,35.446048736572266,5.5325846672058105,412.7149353027344
0,153907,54.837215423583984,-18.25611114501953,-2.8800923824310303,-383.4469909667969
0,153909,-23.755020141601562,-31.681419372558594,-5.682912826538086,-184.27188110351562
0,153911,-48.01570510864258,-41.10277557373047,-18.056306838989258,40.35215759277344
0,153913,-0.7717885971069336,-32.53778076171875,-15.206573486328125,55.394107818603516
0,153915,24.131397247314453,53.420387268066406,11.356339454650879,-68.72042083740234
0,153917,38.282413482666016,55.084678649902344,34.78084182739258,-12.148681640625
0,153919,8.104515075683594,-29.377185821533203,4.913183689117432,5.210028648376465
0,153921,-25.134838104248047,4.393514156341553,-7.061643123626709,-123.89917755126953
0,153923,-32.859375,17.403446197509766,-6.097044944763184,60.66333770751953
0,153925,2.984797477722168,-24.9327392578125,-45.249507904052734,130.0321044921875
0,153926,8.171514511108398,-20.414569854736328,-13.08483600616455,165.34475708007812
0,153929,-31.650312423706055,-5.309865474700928,62.359134674072266,26.163715362548828
0,153930,10.338727951049805,54.878761291503906,56.849369049072266,-374.4582214355469
0,153933,61.44007110595703,33.38480758666992,-15.798574447631836,-204.69613647460938
0,153934,1.3341889381408691,-112.51129150390625,-63.50143051147461,235.04994201660156
0,153937,-48.49278259277344,-33.391292572021484,-35.03334426879883,243.23545837402344
0,153938,-5.920358657836914,83.74750518798828,23.989337921142578,133.4066925048828
0,153941,22.882598876953125,20.256555557250977,22.663463592529297,-58.475372314453125
0,153942,1.0983681678771973,-41.79065704345703,-14.810165405273438,-450.666015625
0,153945,-12.271697044372559,-7.384095191955566,33.91437530517578,-281.60528564453125
0,153946,-3.981386661529541,46.3560676574707,-4.5950493812561035,447.1767883300781
0,153949,10.936002731323242,10.010601997375488,-44.300987243652344,222.8336181640625
0,153950,32.47870635986328,7.846378326416016,51.29254913330078,-179.62026977539062
0,153953,-13.004406929016113,-24.164400100708008,0.5908797383308411,129.7801055908203
0,153954,-48.90859603881836,-29.737363815307617,-49.32676315307617,68.50666809082031
0,153957,19.304649353027344,26.774789810180664,15.98839282989502,-147.1539764404297
0,153958,10.206509590148926,-0.9943307638168335,22.491424560546875,-15.309920310974121
0,153961,-19.464757919311523,-39.4094123840332,23.106761932373047,149.435791015625
0,153962,9.865797996520996,-32.157413482666016,4.6725850105285645,-43.65739822387695
0,153965,18.65987777709961,45.898372650146484,-44.63906478881836,-251.06532287597656
0,153966,22.93048095703125,67.03130340576172,9.537277221679688,7.9766364097595215
0,153969,-19.79242515563965,-48.529300689697266,10.356504440307617,169.6416473388672
0,153970,-11.442584991455078,-37.007198333740234,-50.12461471557617,-58.71735763549805
0,153973,12.40836238861084,14.633292198181152,0.9278442859649658,-83.80536651611328
0,153974,2.6801576614379883,14.698240280151367,35.69062805175781,85.23823547363281
0,153977,-4.024276256561279,34.983821868896484,21.450592041015625,115.32076263427734
0,153978,-8.71631908416748,-11.90518569946289,-18.790313720703125,-9.01297664642334
0,153981,-10.106805801391602,-50.78065872192383,-31.3658447265625,-199.2501678466797
0,153982,-24.97401237487793,3.499285936355591,8.868603706359863,-4.173909664154053
0,153985,10.505395889282227,55.52257537841797,18.486324310302734,179.425537109375
0,153986,29.548860549926758,-11.638914108276367,-7.975350379943848,14.85956859588623
0,153989,1.4783071279525757,-64.45291137695312,-17.332199096679688,-106.22408294677734
0,153990,-25.555313110351562,-6.757752895355225,18.954753875732422,-66.58526611328125
0,153993,25.7404727935791,87.97029876708984,45.91518783569336,241.19244384765625
0,153994,22.87146759033203,30.005510330200195,-17.267118453979492,86.35639953613281
0,153997,-60.759639739990234,-62.10966110229492,-66.11961364746094,-259.91387939453125
0,153998,6.171807289123535,5.4271135330200195,44.13785934448242,-61.79573440551758
0,154001,17.05511474609375,-9.456214904785156,49.33267593383789,-56.00143051147461
0,154002,-10.002063751220703,-5.734555721282959,-60.22295379638672,-66.05387115478516
0,154005,39.134525299072266,66.33110809326172,-2.045858383178711,187.57659912109375
0,154006,-18.74150276184082,-18.210893630981445,39.705142974853516,112.7781753540039
0,154009,-42.96162033081055,-90.94612884521484,-26.965988159179688,-78.82156372070312
0,154010,15.513070106506348,4.75996732711792,-1.8109959363937378,-36.56242752075195
0,154013,55.96811294555664,88.77167510986328,23.465497970581055,-21.2575740814209
0,154014,3.8855443000793457,2.8308424949645996,-19.998573303222656,6.406519412994385
0,154017,-41.91849136352539,-83.96900939941406,-10.190068244934082,204.77281188964844
0,154018,21.00166130065918,-43.74081802368164,-4.534543037414551,37.81050491333008
0,154021,-0.7127684354782104,47.82112121582031,-4.857157230377197,-283.235107421875
0,154022,-25.757497787475586,90.04334259033203,23.916683197021484,13.415140151977539
0,154025,9.778717041015625,-20.921119689941406,-4.0626139640808105,358.15972900390625
0,154026,-3.182478904724121,-80.15911865234375,-5.97253942489624,-37.258148193359375
0,154029,-20.882709503173828,8.511995315551758,6.878875255584717,-464.9005126953125
0,154030,7.050854206085205,39.0546760559082,-24.08792495727539,14.6498384475708
0,154033,29.297033309936523,39.886146545410156,11.505036354064941,191.2501983642578
0,154034,-0.28817325830459595,-22.532594680786133,13.93199348449707,-174.4416046142578
0,154037,-9.315771102905273,-48.90483093261719,-15.89348316192627,46.25077438354492
0,154038,-1.583270788192749,63.44282913208008,-3.23765230178833,209.21762084960938
0,154041,-3.483184337615967,23.10346794128418,7.815579414367676,4.494630813598633
0,154042,0.2938663065433502,-124.2254867553711,17.418855667114258,-21.42675018310547
0,154045,6.601304531097412,-5.832477569580078,11.639822959899902,-67.14561462402344
0,154046,-4.965750694274902,121.45532989501953,-4.3717041015625,-94.66548156738281
0,154049,16.759437561035156,2.9465513229370117,-21.427536010742188,124.3995590209961
0,154050,18.842491149902344,-15.27450942993164,0.6359553337097168,80.8739242553711
0,154053,-47.84864807128906,-11.249724388122559,10.399578094482422,-112.14989471435547
0,154054,-24.882251739501953,-54.05799865722656,-13.801384925842285,-49.106353759765625
0,154057,20.02037239074707,2.11387300491333,0.16635309159755707,65.36321258544922
0,154058,4.294433116912842,36.58074951171875,18.740930557250977,36.87223434448242
0,154061,2.2183146476745605,6.085458278656006,-6.866360664367676,-57.68303298950195
0,154062,6.286848068237305,-17.915311813354492,-35.652015686035156,-3.491978406906128
0,154065,21.505664825439453,2.537247896194458,19.06072998046875,26.06582260131836
0,154066,11.991374015808105,4.154959678649902,33.34807586669922,-24.754396438598633
0,154069,-17.51289176940918,-7.309168815612793,-12.764162063598633,24.45673179626465
0,154070,1.5936042070388794,9.422154426574707,3.421276569366455,9.036778450012207
0,154073,-9.769815444946289,-17.72381591796875,-17.61625099182129,-33.7763786315918
0,154074,-21.235279083251953,-10.13891315460205,1.960737705230713,19.2711124420166
0,154077,8.576106071472168,27.971059799194336,30.285120010375977,-11.362512588500977
0,154078,11.768010139465332,-6.8950910568237305,-16.40885353088379,5.777101039886475
0,154081,15.338678359985352,-19.166147232055664,-16.48836898803711,91.19908142089844
0,154082,-33.514427185058594,4.651564121246338,-20.378694534301758,-25.619375228881836
0,154085,6.4158453941345215,33.65907287597656,6.260952949523926,-88.95389556884766
0,154086,57.039878845214844,17.88542938232422,25.720848083496094,-10.101614952087402
0,154089,-54.70760726928711,-45.02239990234375,-13.674386024475098,-36.26304244995117
0,154090,-21.75442123413086,-10.877423286437988,-10.77989387512207,-26.6424503326416
0,154093,25.03512191772461,25.146841049194336,18.563806533813477,80.61412048339844
0,154094,-7.033641815185547,-11.508864402770996,11.837353706359863,107.58560943603516
0,154097,7.3001227378845215,22.63038444519043,-3.1644604206085205,-2.9948713779449463
0,154098,-4.904757022857666,8.42504596710205,5.948027610778809,-89.4187240600586
0,154101,-0.645473062992096,-6.428299903869629,-21.741806030273438,-37.58294677734375
0,154102,-0.005257639102637768,23.50674819946289,-7.67880392074585,81.58256530761719
0,154105,-3.2219483852386475,-73.67453002929688,27.908111572265625,24.588905334472656
0,154106,-4.132020950317383,-45.50931167602539,-26.519506454467773,-114.71636962890625
0,154109,3.1375837326049805,85.37500762939453,1.9022505283355713,5.737430572509766
0,154110,28.430097579956055,18.58905601501465,30.37525177001953,138.7993927001953
0,154113,3.543536424636841,-37.49340057373047,-30.601848602294922,24.235801696777344
0,154114,-26.897062301635742,0.8114989995956421,7.804801940917969,-122.01768493652344
0,154117,25.66900634765625,16.00531005859375,28.878602981567383,-135.76971435546875
0,154118,37.636024475097656,12.530569076538086,-4.672957897186279,5.05781364440918
0,154121,-50.96358108520508,-30.816492080688477,-20.46061897277832,207.45278930664062
0,154122,-35.40489959716797,-21.999582290649414,-29.681581497192383,44.75790786743164
0,154125,35.28400421142578,16.262643814086914,4.1035332679748535,-165.995849609375
0,154127,-3.7222118377685547,17.800065994262695,27.602256774902344,-6.9351043701171875
0,154129,13.535975456237793,36.86037063598633,17.008283615112305,48.832977294921875
0,154131,-1.603608250617981,5.737096309661865,-2.5858395099639893,-37.06198501586914
0,154133,-46.61848068237305,-38.31911087036133,-27.104080200195312,23.90129852294922
0,154135,59.36512756347656,-1.8706600666046143,-10.365080833435059,49.22141647338867
0,154137,19.816213607788086,-0.7512150406837463,3.112309217453003,-24.312992095947266
0,154141,-56.99991989135742,-2.2580246925354004,20.437755584716797,8.383843421936035
0,154141,8.301115036010742,23.065773010253906,32.67905807495117,15.73787784576416
0,154143,-4.650585651397705,-19.47361946105957,-44.39067077636719,-33.273189544677734
0,154145,-5.134596824645996,-19.023155212402344,-27.4114990234375,-7.508856773376465
0,154147,22.52242088317871,4.54996919631958,34.76457595825195,4.497034549713135
0,154149,7.812419414520264,1.3475518226623535,8.23479175567627,-2.0730152130126953
0,154151,-9.889823913574219,4.924722671508789,18.09515953063965,4.21912956237793
0,154153,-25.01963996887207,1.198552131652832,0.15696412324905396,12.059396743774414
0,154155,-25.715118408203125,28.009347915649414,-36.348567962646484,21.07262420654297
0,154157,16.154558181762695,-47.829246520996094,-9.476442337036133,-16.93069076538086
0,154159,43.58089065551758,-52.295223236083984,21.01613998413086,-31.7397403717041
0,154161,-13.730142593383789,86.33917999267578,10.710064888000488,-8.090137481689453
0,154163,-6.570986270904541,31.971662521362305,12.828956604003906,18.65883445739746
0,154165,16.23163414001465,-38.60370635986328,-16.886444091796875,5.028955459594727
0,154167,3.4426767826080322,26.21918296813965,-50.29753494262695,-59.83173751831055
0,154169,-1.6594674587249756,-5.069461345672607,28.67811393737793,45.19038391113281
0,154171,-27.756860733032227,-53.65190887451172,21.39797592163086,97.018798828125
0,154173,14.121186256408691,38.65461730957031,-12.519718170166016,-36.97905731201172
0,154175,21.608551025390625,38.396148681640625,29.640644073486328,-37.51383972167969
0,154177,-37.93656539916992,-57.840721130371094,-9.093706130981445,-18.5332088470459
0,154179,-17.912120819091797,-19.448930740356445,-22.253437042236328,-28.296409606933594
0,154181,27.485734939575195,6.2592549324035645,0.18669617176055908,41.317604064941406
0,154183,17.12607192993164,-3.7711181640625,-3.26138973236084,33.13550567626953
0,154185,2.352980852127075,31.19151496887207,27.955583572387695,-23.222814559936523
0,154187,-6.302681922912598,5.3245158195495605,9.082367897033691,22.15032386779785
0,154189,-17.989742279052734,-38.22944259643555,-26.956560134887695,25.861997604370117
0,154191,7.561278343200684,11.64729118347168,-8.44242000579834,-25.44595718383789
0,154193,16.62868309020996,59.013301849365234,7.902411460876465,-47.4340934753418
0,154195,-26.99889373779297,-30.488033294677734,-14.308977127075195,-42.84629821777344
0,154197,8.214470863342285,-28.619823455810547,14.088113784790039,26.645238876342773
0,154199,30.315628051757812,59.5809211730957,25.696533203125,43.14548110961914
0,154201,-22.084335327148438,-5.35004186630249,-42.39060592651367,-3.559904098510742
0,154203,-8.5518217086792,-53.92257308959961,6.90057373046875,-1.3313997983932495
0,154205,10.149544715881348,2.6886651515960693,23.230173110961914,-3.652439832687378
0,154207,6.606705188751221,37.177059173583984,-24.8622989654541,-14.924455642700195
0,154209,15.474287986755371,2.33477520942688,31.580259323120117,14.959778785705566
0,154211,-33.54539489746094,-69.80376434326172,-13.931829452514648,-39.57698059082031
0,154213,-31.01399803161621,-2.3536722660064697,-70.7634048461914,-5.444704055786133
0,154215,36.03068161010742,63.93515396118164,42.40727233886719,87.68998718261719
0,154217,-2.1843104362487793,-26.474430084228516,57.06731414794922,-27.88454246520996
0,154219,14.621068000793457,-21.943004608154297,-12.811314582824707,-23.437545776367188
0,154221,12.435656547546387,36.763885498046875,-14.745335578918457,45.11444854736328
0,154223,-41.218299865722656,10.05254077911377,-3.361187219619751,0.7138120532035828
0,154225,28.653915405273438,-5.429411888122559,17.16494369506836,-20.094989776611328
0,154227,25.34505844116211,14.084712028503418,16.282560348510742,-35.72349166870117
0,154229,-45.52642822265625,-9.520482063293457,-24.688114166259766,18.285120010375977
0,154231,-22.232280731201172,-33.55107116699219,-42.51765441894531,40.0561637878418
0,154233,19.478761672973633,4.108901023864746,8.736376762390137,-71.7195816040039
0,154235,8.012134552001953,17.24697494506836,23.825946807861328,-48.034324645996094
0,154237,9.127788543701172,8.187884330749512,-9.348069190979004,93.77938842773438
0,154239,13.530959129333496,26.663265228271484,-1.7358381748199463,38.47185134887695
0,154241,-11.648820877075195,10.639030456542969,2.1152589321136475,-62.8057975769043
0,154243,2.2081964015960693,-37.900970458984375,-0.7222802639007568,-24.13754653930664
0,154245,7.441188812255859,-31.707555770874023,10.32551097869873,28.27136993408203
0,154247,-34.16175079345703,-0.33475109934806824,1.9270156621932983,6.702536106109619
0,154249,-7.49796724319458,-13.485809326171875,1.3728307485580444,-5.389314651489258
0,154251,21.206111907958984,7.529600143432617,15.929858207702637,6.6892900466918945
0,154253,5.559402942657471,47.43110275268555,-19.82513427734375,-29.68929672241211
0,154255,10.165830612182617,-5.577849388122559,-28.63800621032715,-5.081406116485596
0,154257,8.037179946899414,-14.123540878295898,29.476354598999023,57.21109390258789
0,154259,15.371432304382324,35.670249938964844,29.467388153076172,25.14869499206543
0,154261,-34.5693473815918,-20.30882453918457,-27.96721076965332,-65.9101791381836
0,154263,-38.91670227050781,-30.155223846435547,-24.697921752929688,-39.35231018066406
0,154265,31.886873245239258,3.610607385635376,12.316615104675293,65.37448120117188
0,154267,12.613971710205078,-9.5208101272583,4.7556610107421875,21.26923942565918
0,154269,-19.27521514892578,23.961353302001953,-0.9180020093917847,-41.537437438964844
0,154271,24.508575439453125,16.767208099365234,21.06580352783203,2.2559876441955566
0,154273,20.566797256469727,-19.750104904174805,-0.5391605496406555,14.505735397338867
0,154275,-39.24223327636719,-27.388748168945312,-28.62339210510254,3.974619150161743
0,154277,7.4758477210998535,11.988722801208496,9.856196403503418,6.258288383483887
0,154279,20.01589012145996,49.00580596923828,22.959592819213867,-10.405168533325195
0,154281,-35.41075134277344,-26.40786361694336,-21.822994232177734,-19.43971824645996
0,154283,17.605215072631836,-27.27094841003418,-9.354650497436523,-3.6369712352752686
0,154285,24.64983367919922,16.809480667114258,25.521520614624023,21.370620727539062
0,154287,-52.48365020751953,-20.837295532226562,-3.361034870147705,13.998893737792969
0,154289,-11.576044082641602,-12.027894020080566,-20.416025161743164,-14.240538597106934
0,154291,48.11787033081055,36.627681732177734,-1.2680432796478271,-29.74917221069336
0,154293,19.457120895385742,34.38164520263672,11.822420120239258,30.586645126342773
0,154295,-19.566694259643555,-36.88479995727539,-11.14995002746582,25.59052276611328
0,154297,-32.4149055480957,-26.470821380615234,-5.477492332458496,-61.55914306640625
0,154299,13.10587215423584,47.93636703491211,28.028905868530273,17.335859298706055
0,154301,36.69613265991211,3.0983052253723145,-9.710528373718262,53.6281852722168
0,154303,8.330714225769043,-24.79293441772461,-8.91694450378418,-32.62681198120117
0,154305,-15.811477661132812,9.893568992614746,24.801530838012695,3.079554557800293
0,154307,-47.15120315551758,0.7437376379966736,-14.869885444641113,-16.887258529663086
0,154309,-3.16623854637146,1.5775575637817383,-10.482925415039062,-26.195362091064453
0,154311,51.69559097290039,3.9513421058654785,11.436567306518555,50.32679748535156
0,154313,1.8931105136871338,-11.265921592712402,2.277804136276245,-16.52721405029297
0,154315,-28.059240341186523,-9.236563682556152,-13.04190444946289,-37.35838317871094
0,154317,-7.311825275421143,-4.445560455322266,-2.404423952102661,30.095943450927734
0,154319,-11.09431266784668,-13.704904556274414,16.110734939575195,12.022466659545898
0,154321,-7.758659362792969,13.557088851928711,-11.854329109191895,-14.4663667678833
0,154323,21.038471221923828,18.921798706054688,-20.200515747070312,-0.06321517378091812
0,154325,37.75154113769531,-0.11733338236808777,6.539283752441406,11.805601119995117
0,154327,-14.307258605957031,14.552865028381348,16.612503051757812,-8.309426307678223
0,154330,-33.823951721191406,-11.9698486328125,18.496231079101562,-13.324295997619629
0,154331,34.58586883544922,-33.68391418457031,7.5544819831848145,33.81012725830078
0,154332,23.412824630737305,-3.5374526977539062,-40.602867126464844,-1.050618052482605
0,154335,-44.77191162109375,18.4606990814209,-4.9560394287109375,-19.756303787231445
0,154336,-18.270723342895508,7.2858710289001465,35.67605972290039,9.30672550201416
0,154339,16.417675018310547,15.23626708984375,4.140833854675293,-4.901762962341309
0,154340,-0.6157887578010559,5.514859676361084,-2.952122211456299,13.841136932373047
0,154343,7.410628318786621,-31.092416763305664,-18.193601608276367,-2.190464735031128
0,154344,11.79609203338623,0.8640168309211731,-21.924114227294922,-13.398064613342285
0,154347,31.895410537719727,54.685428619384766,32.186527252197266,19.15384292602539
0,154348,-33.48133087158203,-22.17205047607422,7.021594047546387,-29.151081085205078
0,154351,-60.40400314331055,-54.93124771118164,-59.92347717285156,-47.27802276611328
0,154352,41.732635498046875,37.22297286987305,0.4019774794578552,52.38117980957031
0,154355,34.41274642944336,2.5463578701019287,56.389434814453125,56.15983581542969
0,154356,-11.325153350830078,-44.20772171020508,35.60624313354492,-32.8350830078125
0,154359,1.968427062034607,24.428558349609375,-16.44632339477539,-22.550769805908203
0,154360,-3.6668825149536133,36.99970626831055,-55.8682975769043,14.513855934143066
0,154363,-13.533077239990234,-26.21228790283203,-5.786147117614746,7.3096923828125
0,154365,2.367763042449951,-19.279767990112305,46.37306213378906,-19.591859817504883
0,154367,-11.059866905212402,9.249492645263672,13.025443077087402,-23.826080322265625
0,154369,8.833050727844238,5.709413051605225,-27.50853157043457,19.38800048828125
0,154371,-0.44228217005729675,9.815927505493164,-18.861339569091797,14.663649559020996
0,154373,-25.164352416992188,6.488012313842773,16.62236213684082,-20.61310577392578
0,154375,21.04924774169922,-23.344886779785156,15.59687328338623,2.9617645740509033
0,154377,0.310102254152298,-7.213856220245361,-25.63197898864746,20.271520614624023
0,154379,2.223618507385254,50.147579193115234,-8.443808555603027,-14.142539978027344
0,154381,13.953795433044434,-13.455251693725586,23.338665008544922,5.497666835784912
0,154383,-6.865918159484863,-25.967357635498047,10.00941276550293,30.109560012817383
0,154385,9.76680850982666,42.194847106933594,-5.956356525421143,-15.689193725585938
0,154387,-9.795745849609375,-24.03420066833496,-14.942351341247559,-38.86776351928711
0,154389,-3.0785064697265625,-29.46270751953125,-11.23314094543457,8.255950927734375
0,154391,19.172943115234375,35.693180084228516,22.558732986450195,49.90529251098633
0,154393,-5.3225274085998535,22.94192123413086,13.225189208984375,-18.41912269592285
0,154395,-17.72684097290039,-13.36764144897461,-35.442718505859375,-13.639745712280273
0,154397,12.56771469116211,-31.102779388427734,14.383947372436523,12.009063720703125
0,154399,4.647741794586182,6.632534027099609,34.41050720214844,-39.40252685546875
0,154401,-20.568702697753906,3.0462570190429688,-27.194992065429688,19.336111068725586
0,154403,-8.07933521270752,-34.923423767089844,-38.488914489746094,6.536447048187256
0,154405,1.2037088871002197,16.53466033935547,12.187236785888672,-31.474225997924805
0,154407,10.432984352111816,24.182601928710938,17.886489868164062,8.069414138793945
0,154409,7.278517723083496,-3.3979506492614746,-5.058472156524658,33.89916229248047
0,154411,7.396263122558594,5.28346586227417,25.546125411987305,36.050052642822266
0,154413,-9.934683799743652,-26.07107925415039,26.540395736694336,-17.822467803955078
0,154415,-16.386486053466797,-9.421545028686523,-22.131799697875977,-35.15386199951172
0,154417,5.647608757019043,24.479326248168945,-35.189453125,-11.421091079711914
0,154419,1.0344072580337524,2.9470155239105225,-6.366063117980957,8.931822776794434
0,154421,2.695972204208374,-5.009161949157715,22.040681838989258,17.302352905273438
0,154423,16.118213653564453,0.8711674809455872,32.01530075073242,-5.466774940490723
0,154425,8.614274024963379,7.007601261138916,-22.93889808654785,2.175447702407837
0,154427,-22.228750228881836,-1.5509370565414429,-32.601898193359375,12.679303169250488
0,154429,0.7021725177764893,-12.480938911437988,18.889368057250977,-21.900474548339844
0,154431,28.79252052307129,11.196343421936035,12.895726203918457,-8.534526824951172
0,154433,-24.667028427124023,24.991941452026367,-11.703352928161621,-0.2829083502292633
0,154435,-12.325149536132812,-20.95390510559082,-12.096129417419434,8.609177589416504
0,154437,40.39678955078125,-10.03664493560791,20.234642028808594,10.103180885314941
0,154439,-9.681193351745605,8.871450424194336,9.900952339172363,-13.376119613647461
0,154441,-29.73478889465332,13.224942207336426,-36.62049102783203,6.676532745361328
0,154443,-3.377192258834839,0.8883675336837769,-22.77381706237793,-16.91791534423828
0,154445,-8.067131042480469,-43.277854919433594,29.4412841796875,14.195249557495117
0,154447,38.401893615722656,6.099958419799805,47.54219055175781,39.275421142578125
0,154449,9.620424270629883,-5.784839630126953,-11.262837409973145,-27.4713191986084
0,154451,-32.233848571777344,29.972553253173828,-12.719988822937012,-30.704744338989258
0,154453,18.010345458984375,34.79994583129883,14.246954917907715,-5.890888690948486
0,154455,3.2908143997192383,-53.38004684448242,-29.8273868560791,31.427383422851562
0,154457,-22.060564041137695,-8.850716590881348,-0.6615158319473267,29.648677825927734
0,154459,-3.1918959617614746,32.648380279541016,13.360380172729492,-35.05241775512695
0,154461,9.825227737426758,8.584704399108887,-11.56812858581543,-13.278797149658203
0,154463,-5.750618934631348,-41.72106170654297,4.701336860656738,-4.2408599853515625
0,154465,3.334611654281616,-12.02953815460205,2.0471673011779785,-8.960432052612305
0,154467,4.838628768920898,45.37741470336914,-2.093012809753418,68.3246841430664
0,154469,-15.297459602355957,16.88127899169922,-20.01841163635254,-20.931503295898438
0,154471,6.336599826812744,-26.07018280029297,-2.3606209754943848,-65.22383880615234
0,154473,-0.853219747543335,-8.982466697692871,42.58518981933594,63.58821487426758
0,154475,-7.022496223449707,18.182437896728516,4.9123029708862305,20.843917846679688
0,154477,9.196965217590332,-29.6820068359375,-56.08865737915039,-61.52652359008789
0,154479,16.398176193237305,-18.92085075378418,11.622586250305176,20.63660430908203
0,154481,9.757796287536621,33.31074905395508,39.38711929321289,27.817642211914062
0,154483,-25.5843505859375,20.295751571655273,-23.01431655883789,-39.95077896118164
0,154485,-13.842061042785645,5.2848076820373535,5.664796352386475,-0.04634614288806915
0,154487,36.48334884643555,-14.484417915344238,4.580197334289551,4.029726028442383
0,154489,15.313044548034668,-7.801639556884766,-2.058828830718994,8.776158332824707
0,154491,-32.15533447265625,3.5749125480651855,1.7213553190231323,8.36624526977539
0,154493,-12.58898639678955,-23.20229148864746,-24.88304901123047,12.341361045837402
0,154495,-3.4790167808532715,-7.586292266845703,10.415802955627441,-11.791220664978027
0,154497,-1.5560616254806519,38.27914810180664,7.644681930541992,-54.121360778808594
0,154499,42.79281234741211,39.21168518066406,5.478533744812012,47.41032028198242
0,154501,16.317623138427734,-21.998306274414062,15.941020965576172,49.409732818603516
0,154503,-55.102378845214844,-56.630001068115234,-10.323951721191406,-51.598384857177734
0,154505,-19.817113876342773,10.70263385772705,0.01503086369484663,-19.004777908325195
0,154507,37.071773529052734,50.4629020690918,-10.030335426330566,39.411170959472656
0,154509,5.191964149475098,-7.775546073913574,-5.468213081359863,11.623119354248047
0,154511,3.0872058868408203,-49.43373489379883,6.082795143127441,-17.829395294189453
0,154513,21.19852066040039,10.432821273803711,-3.4837372303009033,-8.568310737609863
0,154515,-16.026527404785156,41.043251037597656,-3.5808377265930176,-4.266358375549316
0,154517,-30.935325622558594,-25.28179931640625,-17.33586883544922,-6.775424480438232
0,154519,-0.4823155105113983,-21.286102294921875,17.419357299804688,1.035016417503357
0,154521,-1.7223740816116333,4.810028553009033,25.165422439575195,-16.689586639404297
0,154523,-6.5396318435668945,11.868967056274414,-26.687217712402344,7.16550350189209
0,154525,32.3336067199707,23.127609252929688,3.299450397491455,17.357437133789062
0,154527,-7.031401634216309,-29.22732925415039,-3.2735793590545654,-14.98560619354248
0,154529,-21.918071746826172,4.287260055541992,14.027778625488281,11.454693794250488
0,154531,14.449423789978027,14.713140487670898,17.321727752685547,-4.934149742126465
0,154533,13.315464973449707,-9.601454734802246,-35.091548919677734,-4.723766803741455
0,154535,12.579375267028809,25.545988082885742,12.100947380065918,23.115781784057617
0,154537,-32.63780975341797,-27.894207000732422,-4.012408256530762,2.737626552581787
0,154540,-8.106658935546875,4.325304985046387,2.7011446952819824,16.427675247192383
0,154541,33.292442321777344,23.73293685913086,23.338050842285156,-10.817384719848633
0,154542,-14.534709930419922,-36.4669189453125,-19.70397186279297,-43.15177536010742
0,154545,-18.032041549682617,-11.07137393951416,-26.763212203979492,36.243804931640625
0,154546,18.2784366607666,8.344487190246582,1.3403457403182983,20.10700225830078
0,154549,15.241182327270508,26.302492141723633,20.80720329284668,-44.6132926940918
0,154550,-15.575642585754395,7.0174455642700195,17.21906089782715,-2.781524896621704
0,154553,-16.8398380279541,-40.35871887207031,13.297783851623535,24.89491081237793
0,154554,23.521366119384766,-4.39943265914917,-20.551544189453125,-17.68498992919922
0,154557,0.9223530292510986,17.971349716186523,-32.489479064941406,-24.763870239257812
0,154558,-5.653499126434326,13.322176933288574,31.125463485717773,24.662145614624023
0,154561,37.93690872192383,36.93941879272461,28.94202423095703,6.744147300720215
0,154562,-20.30036735534668,-8.01637077331543,-41.142372131347656,2.062936782836914
0,154565,-49.41348648071289,-74.03641510009766,-20.150739669799805,6.796021461486816
0,154566,21.015518188476562,1.3451364040374756,29.217288970947266,12.030085563659668
0,154569,31.507658004760742,52.59032440185547,17.21844482421875,38.83119201660156
0,154570,-34.499061584472656,-24.578365325927734,-29.525720596313477,-61.12477111816406
0,154573,-36.52969741821289,-10.447096824645996,-13.652039527893066,-56.87150192260742
0,154574,39.66870880126953,33.477874755859375,13.516353607177734,67.7286376953125
0,154577,51.94558334350586,2.6675162315368652,-0.34217870235443115,-6.192917823791504
0,154578,-34.802978515625,-40.01628494262695,1.9091029167175293,-48.54035186767578
0,154581,-35.56454849243164,-6.214126110076904,-1.330736517906189,58.953006744384766
0,154582,39.5228157043457,59.74032974243164,18.561874389648438,28.895261764526367
0,154585,3.3697474002838135,-6.0909905433654785,4.635503768920898,-52.63972091674805
0,154586,-26.571136474609375,-50.4423942565918,-26.705875396728516,-12.405198097229004
0,154589,2.574270725250244,8.843667984008789,7.473601818084717,28.713716506958008
0,154590,5.502466201782227,29.298267364501953,0.9604803919792175,29.08052635192871
0,154593,11.705103874206543,15.815278053283691,-7.71318244934082,-41.554161071777344
0,154594,-15.555935859680176,-7.070381164550781,21.726856231689453,-31.957569122314453
0,154599,-3.9142074584960938,-19.792428970336914,-0.008766242302954197,65.01274871826172
0,154600,27.60430145263672,-11.469792366027832,-11.844539642333984,1.8924881219863892
0,154601,-19.966089248657227,-6.895229339599609,-11.214696884155273,-55.3491325378418
0,154602,-4.872070789337158,1.0383659601211548,2.648955821990967,3.7481658458709717
0,154605,15.297479629516602,9.129247665405273,8.21638011932373,19.78146743774414
0,154606,-14.010783195495605,3.792668581008911,-13.391119956970215,-5.992748737335205
0,154609,-2.6250481605529785,7.826922416687012,12.921160697937012,7.802674293518066
0,154610,29.321178436279297,27.348621368408203,21.527023315429688,35.51432800292969
0,154613,5.938530445098877,-0.6255452036857605,-1.4344584941864014,-0.6840587854385376
0,154614,-41.76155471801758,-62.4763298034668,-26.849695205688477,-64.22052001953125
0,154617,2.3238725662231445,-4.73162317276001,-5.891015529632568,4.914255619049072
0,154618,5.938349723815918,55.33303451538086,10.732982635498047,61.332489013671875
0,154621,-9.709831237792969,-27.526268005371094,0.01879185065627098,-42.08036422729492
0,154622,19.718521118164062,-21.30569839477539,8.072458267211914,-7.7997541427612305
0,154625,2.712228536605835,51.743160247802734,4.239812850952148,34.564292907714844
0,154626,10.911529541015625,12.694032669067383,19.60267448425293,-36.37807846069336
0,154629,6.074207305908203,-21.213571548461914,2.594639778137207,14.310667037963867
0,154630,-16.555803298950195,0.8394230604171753,-38.08462905883789,27.435983657836914
0,154633,-20.361936569213867,-9.08014965057373,-9.073349952697754,-30.851360321044922
0,154634,8.142369270324707,-1.786146640777588,39.895957946777344,-12.519647598266602
0,154637,28.404987335205078,1.6050175428390503,-23.018341064453125,43.7111701965332
0,154638,-13.188336372375488,-29.751110076904297,-42.35354232788086,-14.594329833984375
0,154641,-22.68834686279297,12.690677642822266,40.488765716552734,-35.48602294921875
0,154642,-0.808571457862854,35.926979064941406,11.481478691101074,43.4644889831543
0,154645,2.942103624343872,-22.133459091186523,-23.68818473815918,-5.555542945861816
0,154646,13.81788444519043,-14.165700912475586,21.851362228393555,-27.709428787231445
0,154649,-6.877078056335449,16.43651008605957,-3.0618698596954346,5.71178674697876
0,154650,-19.573501586914062,-14.039667129516602,-34.38279724121094,-23.285301208496094
0,154653,29.33194351196289,-11.819656372070312,12.871688842773438,-2.3753387928009033
0,154654,13.152892112731934,20.491804122924805,35.09711837768555,71.90364837646484
0,154657,-27.39042854309082,27.747802734375,-2.099029779434204,16.042543411254883
0,154658,7.314077377319336,-4.013362884521484,-36.388877868652344,-62.41281509399414
0,154661,24.331209182739258,-24.280534744262695,9.630029678344727,-3.368906021118164
0,154662,-12.845793724060059,5.7342023849487305,29.20394515991211,20.42313575744629
0,154665,-18.199935913085938,2.072467565536499,-11.941010475158691,-7.146665573120117
0,154666,15.554951667785645,-4.351552963256836,-3.543267011642456,-12.667533874511719
0,154669,21.649173736572266,3.1326773166656494,2.8284189701080322,24.803037643432617
0,154670,-21.870529174804688,-8.597822189331055,9.282303810119629,5.793591499328613
0,154673,-27.818044662475586,-7.355075836181641,-16.95974349975586,-50.501705169677734
0,154674,31.264616012573242,3.1575751304626465,-22.342967987060547,4.092184066772461
0,154677,9.980402946472168,15.791098594665527,39.14248275756836,27.96013069152832
0,154678,-27.58028221130371,-5.231743812561035,-7.03591775894165,24.012340545654297
0,154681,4.7322282791137695,-23.025815963745117,-20.880149841308594,6.6643266677856445
0,154682,2.634505033493042,13.536944389343262,20.064599990844727,-47.84175491333008
0,154685,-2.4905896186828613,1.7182633876800537,-17.819957733154297,-25.03041648864746
0,154686,-9.539538383483887,-21.01801872253418,-25.08363151550293,25.330137252807617
0,154689,-0.34318119287490845,18.494157791137695,24.95939064025879,45.152442932128906
0,154690,9.248566627502441,26.88945960998535,26.45220184326172,-0.07452571392059326
0,154693,-14.269787788391113,5.604635715484619,-15.550749778747559,-39.27490997314453
0,154694,18.96880340576172,1.1115416288375854,10.050676345825195,6.0842604637146
0,154697,8.47131633758545,-30.91541862487793,15.605894088745117,24.053165435791016
0,154698,-24.375713348388672,-30.210647583007812,-26.498743057250977,-6.694045543670654
0,154701,29.72911834716797,60.83661651611328,-9.47814655303955,-18.908058166503906
0,154702,12.9192533493042,18.411195755004883,13.244174003601074,-16.08497428894043
0,154705,-39.70247268676758,-66.75838470458984,-6.429342746734619,6.122755527496338
0,154706,14.61381721496582,3.779392957687378,5.754581928253174,25.125621795654297
0,154709,20.6933536529541,41.708831787109375,6.47859001159668,10.478796005249023
0,154710,-27.827198028564453,-13.717442512512207,-17.501163482666016,-21.856243133544922
0,154713,-0.6939288377761841,-33.61066436767578,0.34234097599983215,-9.78410530090332
0,154714,9.516602516174316,-8.327816009521484,-2.5511045455932617,4.916248321533203
0,154717,-9.466249465942383,17.237060546875,1.5522712469100952,-2.8035640716552734
0,154718,-11.46031379699707,40.98191452026367,17.228971481323242,18.39490509033203
0,154721,8.225682258605957,9.915495872497559,0.15451663732528687,-21.504371643066406
0,154722,19.135671615600586,-50.53992462158203,-3.640756130218506,-26.919994354248047
0,154725,-8.727873802185059,-11.294971466064453,-16.582305908203125,43.02790832519531
0,154726,2.483617067337036,27.431554794311523,1.1864888668060303,26.99269676208496
0,154729,12.342527389526367,2.5649404525756836,16.742809295654297,-21.289974212646484
0,154730,3.656622886657715,16.46384620666504,3.0749785900115967,-18.380064010620117
0,154733,-35.62266540527344,-18.90695571899414,-18.385190963745117,-14.844758033752441
0,154734,-34.84611129760742,-16.630924224853516,-12.851052284240723,8.230237007141113
0,154737,37.98662567138672,20.301895141601562,18.24114990234375,41.38345718383789
0,154738,23.848278045654297,1.7915512323379517,-11.818222999572754,16.587223052978516
0,154741,18.27083396911621,22.788253784179688,19.630266189575195,-24.895030975341797
0,154742,-6.122472763061523,-2.9786312580108643,34.691261291503906,-13.183026313781738
0,154745,-45.7950553894043,-35.11676788330078,-34.021060943603516,-0.7623972296714783
0,154746,-12.560291290283203,-19.365482330322266,-34.52130126953125,-37.85730743408203
0,154749,27.34682846069336,14.128669738769531,26.037456512451172,-1.7657088041305542
0,154750,30.593433380126953,40.28096389770508,17.16287612915039,51.70941925048828
0,154753,-25.172163009643555,-16.406160354614258,-9.293272018432617,17.6035213470459
0,154754,-16.37366485595703,-19.478763580322266,5.922212600708008,-20.99968147277832
0,154757,26.70301055908203,13.584447860717773,-0.02733244188129902,-7.766677379608154
0,154758,33.268829345703125,-4.892629623413086,4.43616247177124,19.098724365234375
0,154761,-28.979106903076172,0.28061357140541077,-33.336463928222656,-51.274436950683594
0,154762,-52.13203048706055,-14.856574058532715,-10.372658729553223,-30.02341079711914
0,154765,30.464696884155273,-12.92430305480957,51.247615814208984,105.53954315185547
0,154766,18.856792449951172,44.566776275634766,10.330656051635742,22.90033531188965
0,154769,-22.881929397583008,5.190286159515381,-43.49583435058594,-90.66664123535156
0,154770,3.3046908378601074,-34.79946517944336,-27.247684478759766,4.3568925857543945
0,154773,13.025888442993164,9.94604778289795,23.432674407958984,30.456987380981445
0,154774,11.304112434387207,14.205710411071777,34.47903060913086,-26.22734832763672
0,154777,-0.22607287764549255,-1.5533442497253418,2.439751386642456,-0.4225860834121704
0,154778,-32.64565658569336,-22.179306030273438,-36.41557312011719,7.8054986000061035
0,154781,13.475896835327148,4.2862091064453125,-7.375324249267578,-4.870499134063721
0,154782,24.813352584838867,45.754302978515625,23.94264030456543,2.3934133052825928
0,154785,-30.219547271728516,-14.4142484664917,-1.6721636056900024,11.55712604522705
0,154786,0.9205731749534607,-32.56181335449219,-13.010772705078125,-0.663740336894989
0,154789,10.69636058807373,-0.9405762553215027,12.567737579345703,-1.353275179862976
0,154790,-13.541280746459961,1.2963522672653198,4.209606647491455,11.26914119720459
0,154793,10.5283203125,18.047597885131836,-0.29167622327804565,3.3335485458374023
0,154794,-2.8638832569122314,-16.5376033782959,3.979724645614624,-17.995344161987305
0,154797,-5.815804958343506,-17.012630462646484,-27.615909576416016,-14.63996410369873
0,154798,35.0268440246582,35.89170455932617,5.26517915725708,25.920412063598633
0,154801,-6.666769981384277,15.672127723693848,33.63447570800781,-2.5678317546844482
0,154802,-32.006805419921875,-23.880578994750977,0.6332629323005676,-47.717594146728516
0,154805,13.002888679504395,4.787619113922119,-3.8681390285491943,42.588531494140625
0,154806,7.811432361602783,4.492411136627197,10.404631614685059,45.46852111816406
0,154809,-8.287334442138672,-11.921881675720215,-24.45442771911621,-79.94520568847656
0,154811,20.003868103027344,21.89400291442871,-13.4263334274292,-2.0039427280426025
0,154813,-3.439814567565918,-17.475759506225586,11.111675262451172,57.3716926574707
0,154815,-46.1756477355957,-45.19410705566406,-11.776455879211426,-16.69576644897461
0,154817,9.516409873962402,40.408321380615234,6.46402645111084,-3.28338885307312
0,154819,31.093786239624023,21.720640182495117,4.484525680541992,10.653310775756836
0,154821,-10.4964599609375,-36.69195556640625,-1.0086957216262817,-2.1645114421844482
0,154823,-12.047863960266113,13.678568840026855,0.24449948966503143,-7.025376319885254
0,154825,-9.180519104003906,-8.473758697509766,-1.3185343742370605,-9.670069694519043
0,154827,13.876760482788086,-24.45694923400879,-14.990656852722168,-17.151872634887695
0,154829,25.645336151123047,51.72062301635742,9.711824417114258,9.631075859069824
0,154831,-4.545294761657715,-6.066183090209961,30.423189163208008,44.01457977294922
0,154833,-0.8134002685546875,-33.505680084228516,-32.65947723388672,-37.31899642944336
0,154835,-11.778383255004883,58.684593200683594,6.691951751708984,-36.29387664794922
0,154837,-14.268513679504395,-21.231796264648438,30.076440811157227,74.23372650146484
0,154839,38.9959831237793,-29.5312557220459,-11.621587753295898,-1.9296483993530273
0,154840,-12.340677261352539,29.99530029296875,-17.779664993286133,-67.30359649658203
1,154844,-31.606027603149414,-10.367049217224121,-17.1627197265625,35.391414642333984
1,154845,47.817073822021484,1.9716511964797974,37.71992111206055,27.953174591064453
1,154847,-7.4393134117126465,-3.421194314956665,0.40147554874420166,-44.78821563720703
1,154849,-42.18088912963867,-18.997709274291992,-57.97119903564453,15.8137845993042
1,154851,4.003693103790283,-0.6749089360237122,18.486377716064453,59.36122131347656
1,154853,10.274680137634277,35.91706466674805,32.15494155883789,-53.42073440551758
1,154855,15.19308090209961,10.097469329833984,-10.769248962402344,-58.494667053222656
1,154857,-18.212238311767578,-42.16190719604492,15.235910415649414,69.07725524902344
1,154859,-38.0809326171875,-21.490753173828125,-14.713147163391113,-22.852481842041016
1,154861,28.6040096282959,20.4752140045166,-28.12815284729004,-52.92386245727539
1,154863,46.724857330322266,28.25203514099121,20.72527503967285,79.25657653808594
1,154865,-1.332218885421753,7.17128324508667,19.07094955444336,26.670560836791992
1,154867,-9.268077850341797,6.58207368850708,-1.9935351610183716,-60.630924224853516
1,154869,-20.122528076171875,-31.973892211914062,-6.648309230804443,-11.883206367492676
1,154871,-27.498659133911133,-28.2023868560791,19.491168975830078,57.78326416015625
1,154873,9.916988372802734,37.361446380615234,-1.9231969118118286,-12.377494812011719
1,154875,34.46281433105469,9.272005081176758,-16.721532821655273,-27.05803871154785
1,154877,16.399131774902344,-28.220932006835938,-9.197308540344238,30.415035247802734
1,154879,-4.475465297698975,3.6623284816741943,-3.007927656173706,-10.524168968200684
1,154881,-36.43804931640625,14.8167142868042,17.739839553833008,-0.3019419014453888
1,154883,-7.835482120513916,-3.271700859069824,-9.334516525268555,1.9741666316986084
1,154885,28.116636276245117,1.6979284286499023,-13.684035301208496,-37.51149368286133
1,154887,-23.02281379699707,-2.0162675380706787,5.229133605957031,4.088545799255371
1,154889,0.17470304667949677,-20.784351348876953,-1.27392578125,24.669864654541016
1,154891,22.62409019470215,15.646503448486328,4.9552083015441895,-0.33637914061546326
1,154893,4.9308762550354,30.37201690673828,22.32883644104004,10.92675495147705
1,154895,10.391390800476074,-26.40628433227539,-10.315603256225586,-2.357851266860962
1,154897,-28.994396209716797,-39.5109748840332,-31.40888214111328,-37.76402282714844
1,154899,-32.91399383544922,16.999406814575195,18.669357299804688,-14.569801330566406
1,154901,18.130678176879883,56.013153076171875,6.28383207321167,25.521883010864258
1,154903,22.244529724121094,-30.884571075439453,-16.911724090576172,27.756662368774414
1,154905,-14.85642147064209,-59.70977783203125,-1.29385244846344,-24.739906311035156
1,154907,9.210598945617676,57.95088195800781,20.081905364990234,-3.227630853652954
1,154909,16.290687561035156,35.50741195678711,61.07179260253906,74.92609405517578
1,154911,-18.631563186645508,-33.810054779052734,-41.06132888793945,-37.811500549316406
1,154913,37.804161071777344,19.807313919067383,-53.0770378112793,-63.14342498779297
1,154915,-0.49677911400794983,5.253998279571533,37.36555862426758,36.00489807128906
1,154917,-83.71810913085938,-43.852115631103516,-39.070980072021484,8.554313659667969
1,154919,15.171942710876465,-6.23049259185791,10.908822059631348,8.220987319946289
1,154921,54.7184944152832,27.749963760375977,60.34123992919922,8.287479400634766
1,154923,1.050921082496643,-1.8871369361877441,-18.011083602905273,0.3256913125514984
1,154925,2.301283836364746,-6.993929386138916,-30.619556427001953,-0.5791073441505432
1,154927,-29.90586280822754,8.92187213897705,-18.166654586791992,-35.56089401245117
1,154929,-38.45063400268555,-22.20551872253418,7.288928508758545,7.369757175445557
1,154931,35.69148254394531,-6.72749137878418,20.784513473510742,26.581802368164062
1,154933,25.998477935791016,16.79156494140625,-0.4340152442455292,-29.18828773498535
1,154935,-10.274972915649414,11.243731498718262,-21.927831649780273,-7.938705921173096
1,154937,7.565959930419922,24.386043548583984,19.981184005737305,41.43425750732422
1,154939,-9.91309928894043,-4.8919219970703125,27.650419235229492,-6.644024848937988
1,154941,-15.327352523803711,-13.091403007507324,-18.562768936157227,-16.66265106201172
1,154943,14.397382736206055,6.924894332885742,2.3841114044189453,36.41447448730469
1,154945,21.07463264465332,-10.808144569396973,17.57721519470215,-3.6152803897857666
1,154947,-28.484600067138672,-31.883726119995117,-19.306846618652344,-47.26161575317383
1,154949,-29.48871612548828,-14.228970527648926,-27.08316993713379,-21.317615509033203
1,154951,26.122486114501953,36.41139221191406,-12.428624153137207,15.179840087890625
1,154953,24.806079864501953,32.376556396484375,37.107635498046875,24.402984619140625
1,154955,-10.473834991455078,-25.99801254272461,16.311603546142578,-15.395407676696777
1,154957,-6.446168899536133,-18.194509506225586,-37.68806076049805,6.698068618774414
1,154959,-3.5201504230499268,23.96206283569336,10.980066299438477,23.219993591308594
1,154961,4.826244831085205,-12.85239315032959,10.381606101989746,-40.136634826660156
1,154963,15.175688743591309,-7.753690242767334,-21.277469635009766,7.82215690612793
1,155218,-17.293811798095703,21.684967041015625,5.8878374099731445,31.404056549072266
1,155220,-3.7744452953338623,-7.62513542175293,27.4867000579834,-28.659347534179688
1,155222,14.11729621887207,5.133855819702148,-1.9437745809555054,-16.27642822265625
1,155224,-4.769336223602295,5.873834133148193,-16.4655704498291,35.628902435302734
1,155226,6.350592136383057,-13.778777122497559,1.0911273956298828,24.936904907226562
1,155228,-0.5703043341636658,-4.035488605499268,16.48795509338379,-30.924692153930664
1,155230,-26.04660415649414,-5.087594985961914,-6.3832550048828125,-20.531503677368164
1,155232,1.760669231414795,-5.775211811065674,-34.72584533691406,23.81514549255371
1,155233,10.753801345825195,-0.05278071388602257,9.055513381958008,18.70401382446289
1,156258,-14.788113594055176,19.52989387512207,18.35232925415039,-26.255521774291992
1,156261,2.5861968994140625,19.28290367126465,6.038201332092285,-1.5431712865829468
1,156263,17.60962677001953,-20.619205474853516,-11.077786445617676,29.03525161743164
1,156265,10.812177658081055,-8.3704195022583,-28.45664405822754,-4.789102077484131
1,156267,-0.9784623980522156,11.129989624023438,26.524478912353516,-21.728574752807617
1,156269,-17.993555068969727,-15.742713928222656,14.654574394226074,-2.737122058868408
1,156271,8.277315139770508,4.1709885597229,-23.16694450378418,9.060855865478516
1,156273,8.07138442993164,23.331886291503906,1.1080763339996338,-11.07226848602295
1,156275,-13.94478988647461,-23.725261688232422,3.4899542331695557,6.96298360824585
1,156277,26.97705078125,-20.958511352539062,-5.072398662567139,21.64421272277832
1,156279,7.092979431152344,32.82094192504883,17.62737464904785,-17.623369216918945
1,156281,-47.12298583984375,15.239330291748047,9.045855522155762,-15.48089599609375
1,156283,-12.999741554260254,-13.619892120361328,-13.760869979858398,-8.144442558288574
1,156285,29.424327850341797,-0.19065500795841217,5.63879919052124,-1.370648980140686
1,156287,12.239447593688965,-4.867948055267334,16.971179962158203,33.75581741333008
1,156289,-5.678426265716553,3.8074140548706055,-3.4352312088012695,7.046363353729248
1,156291,-4.76241397857666,-2.54172945022583,-16.912580490112305,-22.55694007873535
1,156293,-26.5726318359375,-24.036014556884766,7.365289688110352,-9.116490364074707
1,156295,7.243021488189697,14.648856163024902,15.959796905517578,4.277961730957031
1,156297,10.490537643432617,25.635238647460938,-22.208126068115234,-6.9335455894470215
1,156299,-20.466495513916016,-22.575489044189453,-41.986690521240234,-6.197255611419678
1,156301,30.370752334594727,-20.588346481323242,35.74386978149414,49.33563232421875
1,156303,2.3128457069396973,6.131688594818115,18.969097137451172,-7.21958065032959
1,156305,-7.237306118011475,12.80644702911377,-34.9291877746582,-69.34024047851562
1,156307,34.05319595336914,15.407072067260742,13.481033325195312,53.47211837768555
1,156309,-9.239316940307617,-4.616318225860596,-2.2950491905212402,45.202117919921875
1,156311,-5.8323798179626465,1.864026427268982,2.4724392890930176,-37.39352035522461
1,156313,-7.684138298034668,-34.120731353759766,7.792916297912598,-27.601842880249023
1,156315,-30.243778228759766,-20.210227966308594,-8.853022575378418,-11.26097583770752
1,156317,10.968160629272461,75.96015930175781,1.2001715898513794,49.97164535522461
1,156319,18.190338134765625,13.130912780761719,6.761379718780518,29.303821563720703
1,156321,1.3240092992782593,-59.31128692626953,12.640654563903809,-46.23501205444336
1,156323,-13.960140228271484,-17.72956085205078,-17.15521240234375,-26.558326721191406
1,156325,-1.584035038948059,29.634435653686523,-7.140458106994629,23.7690372467041
1,156327,6.346763610839844,25.871294021606445,19.704002380371094,13.538254737854004
1,156329,-26.249414443969727,-4.60111141204834,-13.774845123291016,-36.48287582397461
1,156331,19.832378387451172,2.884361505508423,-6.5764875411987305,0.12592506408691406
1,156333,24.143230438232422,0.7571764588356018,20.946773529052734,29.196542739868164
1,156335,-29.13571548461914,-21.54437255859375,2.2070412635803223,-20.667335510253906
1,156337,9.635714530944824,-25.884990692138672,-2.9057250022888184,-24.840917587280273
1,156339,21.305662155151367,11.246133804321289,-10.772390365600586,8.055265426635742
1,156341,-7.779691219329834,46.999393463134766,-2.728793144226074,58.73160171508789
1,156343,-7.985808372497559,-4.4181036949157715,-8.968854904174805,-25.172191619873047
1,156345,-3.066772222518921,-55.2932243347168,-8.121260643005371,-63.88136672973633
1,156347,13.055749893188477,-10.59772777557373,29.410099029541016,41.0074462890625
1,156349,-0.6050540208816528,33.871429443359375,16.992483139038086,45.0090446472168
1,156351,-28.460853576660156,23.31324005126953,-17.44611930847168,10.523938179016113
1,156353,-6.576202869415283,-0.7631114721298218,-41.09862518310547,-11.156747817993164
1,156355,27.576539993286133,-35.339210510253906,20.141881942749023,-34.11576461791992
1,156357,10.130847930908203,-17.687788009643555,30.957387924194336,-29.805816650390625
1,156359,-28.5356502532959,25.940200805664062,-18.720788955688477,25.512083053588867
1,156361,3.210139036178589,15.723956108093262,13.56992244720459,32.93804931640625
1,156363,34.09071731567383,10.166911125183105,2.8903303146362305,16.79961395263672
1,156365,-6.797952651977539,13.98840045928955,-23.220062255859375,-0.9049617052078247
1,156367,-27.704448699951172,-6.696933746337891,2.6636722087860107,-58.2614860534668
1,156369,-15.363371849060059,-30.757640838623047,14.397844314575195,-3.9417457580566406
1,156371,4.171885967254639,-12.266122817993164,3.7593934535980225,34.86404800415039
1,156373,18.451496124267578,34.14167785644531,-17.03546142578125,-15.743890762329102
1,156375,12.64962100982666,58.03025436401367,4.197673797607422,18.3577823638916
1,156377,6.063427925109863,-30.132299423217773,7.841780185699463,16.59368896484375
1,156379,-1.9041626453399658,-81.79869842529297,-30.51752281188965,-63.16283416748047
1,156381,-14.768779754638672,-4.224387168884277,23.04143714904785,17.330116271972656
1,156383,-12.930863380432129,-20.764236450195312,24.85760498046875,51.96023941040039
1,156385,-0.8752215504646301,25.745588302612305,-43.11268997192383,-77.73416900634766
1,156387,2.767091989517212,64.90465545654297,-3.687925100326538,-15.464788436889648
1,156389,4.770052433013916,-28.884727478027344,17.54740333557129,78.97271728515625
1,156391,23.15526008605957,18.713972091674805,-4.132620334625244,15.400197982788086
1,156393,-8.116291046142578,3.704183340072632,12.916214942932129,-33.898834228515625
1,156395,-33.71903610229492,-39.80180358886719,1.18636155128479,4.059096336364746
1,156397,32.30055618286133,36.10812759399414,2.236957550048828,-3.3298394680023193
1,156399,7.173951148986816,-7.878157138824463,-7.7256598472595215,-33.98127365112305
1,156401,-22.540374755859375,-11.483050346374512,-21.537748336791992,27.143321990966797
1,156403,24.859935760498047,40.637672424316406,13.441734313964844,27.873802185058594
1,156405,12.582003593444824,-17.412256240844727,7.856691360473633,-5.2491655349731445
1,156407,5.732011318206787,-31.57831573486328,1.6003574132919312,-21.772096633911133
1,156410,-27.324222564697266,28.556997299194336,-9.918312072753906,-24.735319137573242
1,156413,-55.05680465698242,6.186281204223633,-0.6752218008041382,16.180870056152344
1,156413,5.249605655670166,-55.22227478027344,36.23027420043945,6.821853160858154
1,156414,20.37354850769043,-2.2437827587127686,-22.900957107543945,-25.94205093383789
1,156417,29.032506942749023,0.5534407496452332,-23.711292266845703,35.8201789855957
1,156418,18.44736671447754,-58.68058776855469,31.115402221679688,41.77329635620117
1,156421,-36.5650749206543,34.356590270996094,-7.107632160186768,-22.46006202697754
1,156422,-1.826696515083313,82.16862487792969,-24.220766067504883,-19.877197265625
1,156425,11.417725563049316,35.91194152832031,20.405603408813477,-19.77039337158203
1,156426,-6.251018524169922,7.586032867431641,9.878226280212402,-5.138126373291016
1,156429,19.453065872192383,-54.66584777832031,-26.170778274536133,-20.17733383178711
1,156430,16.3697452545166,-32.64092254638672,11.894002914428711,13.235597610473633
1,156433,-9.420149803161621,1.9173253774642944,16.779335021972656,57.16108703613281
1,156434,4.334965705871582,-8.408610343933105,-16.481033325195312,-31.334823608398438
1,156437,1.6574000120162964,23.316892623901367,-14.87374496459961,-32.4512939453125
1,156438,-44.50846862792969,4.585122108459473,7.832396507263184,43.149147033691406
1,156441,-2.1943793296813965,25.30023193359375,38.49846649169922,-10.480413436889648
1,156442,41.405269622802734,39.423988342285156,-0.5186524987220764,-20.493127822875977
1,156445,18.89837646484375,-35.24775314331055,-27.870351791381836,59.27382278442383
1,156446,-30.652191162109375,-24.304113388061523,-16.007909774780273,-15.580415725708008
1,156449,-70.35713958740234,6.289680004119873,-2.861534833908081,-51.23808670043945
1,156450,41.58335876464844,-1.3245189189910889,42.75920104980469,17.9683780670166
1,156453,57.643959045410156,-47.2644157409668,-26.393198013305664,7.194454193115234
1,156454,-49.75106430053711,-27.548004150390625,-31.747238159179688,27.638750076293945
1,156457,-12.560861587524414,49.700035095214844,43.33269500732422,42.91148376464844
1,156458,9.231810569763184,0.7297202348709106,-11.686767578125,-39.923683166503906
1,156461,24.64244842529297,-2.459019899368286,-10.129082679748535,-58.862308502197266
1,156462,30.26731300354004,44.60080337524414,13.622760772705078,3.6968276500701904
1,156465,-27.41604232788086,-19.828624725341797,-2.636791944503784,9.346246719360352
1,156466,-1.5519107580184937,-34.927486419677734,21.945877075195312,12.584731101989746
1,156469,-0.859481155872345,-9.55241870880127,-13.763102531433105,21.077672958374023
1,156470,-32.96944808959961,-23.4486141204834,-37.02322769165039,-23.434274673461914
1,156473,33.361061096191406,51.1750373840332,32.67049789428711,3.5078296661376953
1,156474,37.87199401855469,73.9106216430664,24.9749813079834,28.375572204589844
1,156477,-28.50358009338379,-8.752751350402832,-19.668909072875977,-11.484386444091797
1,156478,-26.855710983276367,-21.215065002441406,-11.687562942504883,-6.916046142578125
1,156481,-28.29280662536621,-15.19283676147461,4.2316484451293945,-10.391241073608398
1,156482,-16.595855712890625,-34.95633316040039,-7.477088451385498,-19.598569869995117
1,156485,33.83153533935547,18.009008407592773,-12.437786102294922,-6.693802833557129
1,156486,11.511883735656738,67.37076568603516,26.171714782714844,36.324440002441406
1,156489,-34.83391571044922,-50.670650482177734,0.040356822311878204,1.8661108016967773
1,156490,14.18133544921875,-103.72076416015625,-33.43971252441406,-49.15810012817383
1,156493,78.73694610595703,11.366019248962402,23.7275390625,57.78181457519531
1,156494,27.226165771484375,42.11337661743164,27.802587509155273,38.85714340209961
1,156497,-67.71531677246094,44.12639617919922,-28.34241485595703,-95.40094757080078
1,156498,-15.151311874389648,25.943328857421875,-8.351740837097168,-16.44708824157715
1,156501,25.637622833251953,-4.136396884918213,26.561532974243164,93.81610107421875
1,156502,-1.6738444566726685,-1.251893401145935,-3.114694595336914,7.43692684173584
1,156505,-32.281898498535156,-40.047786712646484,-33.61622619628906,-86.36466979980469
1,156506,-22.919940948486328,-7.493680000305176,8.279363632202148,-5.056957244873047
1,156509,62.92533874511719,-35.63524627685547,37.16789245605469,98.68424987792969
1,156510,-0.26627323031425476,-47.09405517578125,-16.883859634399414,35.65351104736328
1,156513,-98.80787658691406,10.750819206237793,-24.045549392700195,-87.46295928955078
1,156514,6.593015670776367,34.30989456176758,14.764966011047363,-18.57720375061035
1,156517,101.6339340209961,114.40594482421875,22.9785099029541,66.71561431884766
1,156518,-16.546775817871094,19.368139266967773,-27.61471939086914,-42.15768051147461
1,156521,-53.59356689453125,-62.979095458984375,-21.04986000061035,-71.73858642578125
1,156522,27.0042667388916,-11.85392951965332,32.03624725341797,6.086517333984375
1,156525,40.52354431152344,-34.04941940307617,7.160126209259033,55.09451675415039
1,156526,2.8344249725341797,-24.07282257080078,0.8934885859489441,43.290061950683594
1,156529,-21.166488647460938,65.32688903808594,-12.613227844238281,-35.702518463134766
1,156530,-5.958359241485596,52.98725891113281,-6.479367733001709,-49.33917236328125
1,156533,-0.8236596584320068,0.14389647543430328,10.74487018585205,24.704179763793945
1,156534,32.348358154296875,7.234431743621826,-3.1489145755767822,50.11748504638672
1,156537,-18.84856414794922,-18.804594039916992,-0.023480497300624847,-35.988426208496094
1,156538,-76.32701110839844,-59.97203826904297,-6.207137584686279,-35.78288269042969
1,156541,11.773473739624023,-98.22637176513672,-9.363879203796387,30.283510208129883
1,156542,38.257240295410156,-24.07364845275879,5.738228797912598,30.652267456054688
1,156545,11.683145523071289,67.59819030761719,29.52769660949707,65.9120101928711
1,156546,25.344837188720703,44.58635330200195,16.915571212768555,-5.975803375244141
1,156549,-10.900043487548828,-5.608295917510986,-27.759321212768555,-92.14922332763672
1,156550,-28.664175033569336,8.736384391784668,-11.841991424560547,28.103099822998047
1,156553,-12.629373550415039,39.91373825073242,10.565177917480469,39.6068000793457
1,156554,5.298908710479736,48.38203430175781,-15.501669883728027,-118.92076110839844
1,156557,80.60265350341797,49.07631301879883,3.884453773498535,-32.663658142089844
1,156558,17.96394920349121,-45.27928161621094,19.449199676513672,109.82249450683594
1,156561,-159.46002197265625,-232.05320739746094,-23.89826202392578,-17.158151626586914
1,156562,-60.0300407409668,-105.20632934570312,-8.305832862854004,19.271055221557617
1,156565,138.17086791992188,202.81463623046875,21.217472076416016,104.46485900878906
1,156566,82.46688079833984,117.63402557373047,0.28576046228408813,-107.52806854248047
1,156569,-84.91647338867188,-12.841506004333496,-4.891294002532959,-108.81362915039062
1,156570,-74.3206787109375,11.950718879699707,-31.874845504760742,82.52293395996094
1,156573,78.44332122802734,-19.24761199951172,-5.834183216094971,26.077861785888672
1,156574,52.351898193359375,-18.669841766357422,42.401432037353516,-35.32270050048828
1,156579,-59.21272659301758,-50.53886795043945,-6.532271385192871,-10.371381759643555
1,156580,2.4019081592559814,-71.44356536865234,-14.917435646057129,-14.872618675231934
1,156581,72.3537826538086,89.53923797607422,38.05147171020508,57.66117858886719
1,156582,-5.0300493240356445,78.87618255615234,7.970026016235352,52.79813766479492
1,156585,-59.62297439575195,-35.339046478271484,-36.408790588378906,-40.29161071777344
1,156586,-17.585044860839844,-32.22882080078125,0.9155703186988831,-61.061100006103516
1,156589,-11.022594451904297,-76.31878662109375,9.246840476989746,42.011375427246094
1,156590,-37.69535827636719,2.5259790420532227,-23.314088821411133,93.45167541503906
1,156593,-25.51895523071289,110.75064849853516,12.769943237304688,-60.23294448852539
1,156594,36.25166320800781,28.34784698486328,33.1116943359375,-65.32876586914062
1,156597,80.79107666015625,-90.80628204345703,-12.488443374633789,33.04591369628906
1,156598,-3.189154863357544,-7.739435195922852,5.834012508392334,14.37581729888916
1,156601,-47.62974548339844,97.55293273925781,-10.720853805541992,2.675382137298584
1,156602,11.831332206726074,1.3622243404388428,-52.70893859863281,-65.12247467041016
1,156605,24.452606201171875,-95.03795623779297,24.26824188232422,-19.478273391723633
1,156606,-9.17398452758789,-22.900436401367188,45.4283332824707,79.51465606689453
1,156609,5.849166393280029,49.09183120727539,-19.374635696411133,29.253114700317383
1,156610,60.327457427978516,1.8218740224838257,-27.332242965698242,0.7056411504745483
1,156613,-42.5435791015625,-50.19886016845703,25.896406173706055,-70.34024810791016
1,156614,-85.68482971191406,5.997260570526123,15.382440567016602,-37.96693801879883
1,156617,47.154052734375,84.64767456054688,-13.8439359664917,73.2771987915039
1,156618,22.528593063354492,-20.954870223999023,13.355186462402344,1.960518479347229
1,156621,-46.413818359375,-59.10605239868164,-19.22542953491211,-2.713768243789673
1,156622,-29.842092514038086,14.879264831542969,-26.614927291870117,27.958982467651367
1,156625,17.186477661132812,22.260244369506836,-11.664344787597656,-31.02956771850586
1,156626,62.3387451171875,-5.1349287033081055,22.697734832763672,-8.712947845458984
1,156629,-10.796890258789062,28.103755950927734,30.261554718017578,-47.02894973754883
1,156630,9.045734405517578,77.291015625,7.912209510803223,0.8194521069526672
1,156633,42.1486930847168,-66.94474792480469,10.379045486450195,70.57749938964844
1,156634,-24.90816307067871,-95.1717529296875,-32.3421516418457,-60.48499298095703
1,156637,-36.25631332397461,33.9725341796875,-3.155479669570923,57.03360366821289
1,156638,-43.47614288330078,-11.633199691772461,11.45483684539795,112.26033782958984
1,156641,43.82513427734375,-92.72505950927734,-32.6684455871582,-134.6518096923828
1,156642,70.91709899902344,28.78567886352539,4.804250717163086,-19.1825008392334
1,156645,-49.03329849243164,166.05642700195312,34.5099983215332,107.91300201416016
1,156646,-42.06645202636719,24.642427444458008,-9.84401798248291,-65.47054290771484
1,156649,16.980377197265625,-145.9534149169922,-2.9275124073028564,-44.5296516418457
1,156650,-0.22799962759017944,-3.8467319011688232,-6.438932418823242,0.36355435848236084
1,156653,10.338274955749512,112.8519058227539,-4.6054487228393555,-24.87459945678711
1,156654,-20.781694412231445,5.752301216125488,35.89909362792969,35.341026306152344
1,156657,-28.86474609375,54.309913635253906,-5.50006103515625,50.538963317871094
1,156658,42.43118667602539,21.17205047607422,-28.57182502746582,2.0235280990600586
1,156661,3.538482427597046,-209.213134765625,-26.7498836517334,-31.450857162475586
1,156662,-35.177940368652344,-63.661903381347656,16.62822723388672,-7.393189430236816
1,156665,12.593891143798828,158.76254272460938,33.869205474853516,-3.1700785160064697
1,156666,5.753170013427734,52.429996490478516,-35.41867446899414,-42.82772445678711
1,156669,54.72905349731445,-31.31528663635254,13.891973495483398,30.0340518951416
1,156670,62.29331970214844,-60.16286849975586,27.156848907470703,20.595367431640625
1,156673,-95.71271514892578,-89.13703918457031,-36.435035705566406,-25.76318359375
1,156674,-88.74654388427734,34.241939544677734,-2.1076788902282715,70.63191223144531
1,156677,64.60307312011719,105.63780212402344,39.1955451965332,12.375439643859863
1,156678,70.65443420410156,33.47566223144531,36.07114791870117,-17.828025817871094
1,156681,-54.505943298339844,7.498655319213867,-40.45125961303711,-69.2668228149414
1,156682,2.3773491382598877,-41.472408294677734,-37.689449310302734,-85.11331176757812
1,156685,71.070556640625,-152.55784606933594,14.412964820861816,30.3642578125
1,156686,-68.10427856445312,0.1614774614572525,-2.182530641555786,37.909854888916016
1,156689,-73.39974212646484,169.6067657470703,9.44942569732666,134.2533721923828
1,156690,29.849912643432617,-11.03298282623291,-8.439181327819824,14.245186805725098
1,156693,65.707275390625,-41.64784240722656,-16.830520629882812,-120.90044403076172
1,156694,35.76439666748047,34.64191818237305,5.7336602210998535,-2.831909418106079
1,156697,-60.047210693359375,0.7883858680725098,11.10638427734375,-1.0261404514312744
1,156698,-85.19268798828125,-25.145273208618164,-24.72458267211914,-3.91036319732666
1,156701,81.83435821533203,-77.89732360839844,10.983355522155762,49.01346206665039
1,156702,70.6087646484375,-17.198400497436523,58.23124694824219,93.20012664794922
1,156705,-122.97076416015625,92.24913787841797,-21.833093643188477,-10.080974578857422
1,156706,-16.448884963989258,71.10121154785156,-26.07502555847168,-122.72444152832031
1,156709,80.57825469970703,20.04237937927246,3.9044606685638428,-66.74986267089844
1,156710,12.394997596740723,-48.87995529174805,8.812678337097168,-10.453639030456543
1,156713,16.208757400512695,-127.90171813964844,0.38397157192230225,83.19651794433594
1,156714,5.498211860656738,-3.7152063846588135,-29.341670989990234,70.25504302978516
1,156717,-44.68317794799805,129.7660675048828,37.89714050292969,-47.382225036621094
1,156718,-51.11814498901367,14.480305671691895,17.02345848083496,-67.99600219726562
1,156721,56.123435974121094,-79.7972412109375,-22.135263442993164,39.803306579589844
1,156722,77.28701782226562,1.5134891271591187,16.298723220825195,68.35590362548828
1,156725,-35.443660736083984,64.71890258789062,-62.9129524230957,-95.6846923828125
1,156726,-78.69295501708984,-1.756870150566101,-27.806169509887695,-21.27057456970215
1,156729,-26.53628921508789,-66.3338394165039,62.623802185058594,84.9747085571289
1,156730,49.11279296875,-15.190033912658691,30.36615562438965,17.436458587646484
1,156733,10.462943077087402,9.958183288574219,9.29589557647705,-12.383984565734863
1,156734,-28.251388549804688,-1.8223029375076294,-27.380889892578125,-65.19725799560547
1,156737,43.19920349121094,57.13798522949219,-27.37066078186035,2.8017494678497314
1,156738,39.456260681152344,5.735251426696777,17.642824172973633,7.791892051696777
1,156741,-70.24220275878906,-39.683162689208984,8.133082389831543,28.18201446533203
1,156742,-76.15438079833984,104.88207244873047,-9.372307777404785,92.42115783691406
1,156745,72.58025360107422,-6.07240104675293,23.187057495117188,-63.21158218383789
1,156746,50.94976043701172,-142.4281463623047,-11.921073913574219,-74.01195526123047
1,156749,-91.53253173828125,50.659324645996094,-55.610740661621094,35.203365325927734
1,156750,9.669036865234375,1.7252147197723389,22.715612411499023,17.18770980834961
1,156753,172.7276153564453,-134.46482849121094,60.276763916015625,33.930877685546875
1,156755,-6.075084209442139,-82.85869598388672,-9.608701705932617,-12.788813591003418
1,156758,-191.81214904785156,99.29798889160156,-47.43989944458008,-89.98929595947266
1,156759,-3.4492530822753906,194.9237823486328,-2.0185964107513428,35.47468566894531
1,156760,46.995361328125,-80.4612808227539,-11.367398262023926,8.925338745117188
1,156763,26.068016052246094,-38.71225357055664,1.1365342140197754,-25.332218170166016
1,156764,77.195556640625,167.6651153564453,68.99507904052734,55.53746795654297
1,156767,-51.165061950683594,-1.8829981088638306,13.223321914672852,-22.919891357421875
1,156768,-49.97178649902344,-103.178955078125,-23.471050262451172,1.0544548034667969
1,156771,42.41558074951172,-22.414209365844727,4.564977645874023,75.96554565429688
1,156772,27.051725387573242,44.91344451904297,-22.983118057250977,-31.741666793823242
1,156775,7.329407215118408,-13.218317985534668,-12.815033912658691,-86.22814178466797
1,156776,-77.56659698486328,18.32108497619629,-8.776899337768555,11.627410888671875
1,156779,-48.578369140625,-11.792900085449219,0.48074987530708313,43.31680679321289
1,156780,87.82465362548828,-108.53961181640625,28.239431381225586,40.98788070678711
1,156783,20.09015464782715,89.36714172363281,-9.049529075622559,-31.728652954101562
1,156784,21.629093170166016,143.8332061767578,16.599775314331055,-97.61003112792969
1,156787,-15.828639030456543,-197.79763793945312,-29.895973205566406,-2.333405017852783
1,156788,-155.2650604248047,-341.2221984863281,-83.86536407470703,59.326602935791016
1,156791,152.63746643066406,28.13492202758789,65.1968994140625,185.00442504882812
1,156792,166.52117919921875,189.75628662109375,38.686649322509766,95.32257843017578
1,156795,-345.29156494140625,287.8286437988281,-59.497196197509766,-274.1492004394531
1,156796,-91.12569427490234,163.20274353027344,33.27688980102539,-128.49496459960938
1,156799,310.13525390625,-204.609619140625,46.22955322265625,158.3623809814453
1,156800,26.250295639038086,-23.10817527770996,-13.694746971130371,-3.518296480178833
1,156803,-84.1951904296875,7.9095916748046875,-11.56076431274414,-91.94176483154297
1,156804,3.2692856788635254,-81.09817504882812,0.14538750052452087,52.16499328613281
1,156807,-22.711009979248047,19.69576644897461,8.721393585205078,44.464332580566406
1,156808,-0.3352891206741333,48.6846809387207,20.683963775634766,0.8751831650733948
1,156811,6.752040863037109,16.889659881591797,-22.022233963012695,-8.350970268249512
1,156812,-31.477399826049805,-64.56878662109375,-35.44200134277344,-76.42230224609375
1,156815,13.500467300415039,-60.95578384399414,6.024489402770996,58.95071792602539
1,156816,31.96316146850586,-6.264833450317383,7.342080116271973,112.12017059326172
1,156819,17.660762786865234,-6.345724105834961,3.0938405990600586,-62.1041374206543
1,156820,23.478099822998047,-16.40955924987793,5.107315540313721,-79.77299499511719
1,156823,-87.45387268066406,97.50163269042969,22.593860626220703,27.09103775024414
1,156824,-62.408935546875,93.26412963867188,29.072948455810547,43.87052536010742
1,156827,94.1357192993164,-104.15705108642578,-32.65049743652344,10.011008262634277
1,156828,13.268531799316406,-16.3826961517334,-32.424110412597656,4.175879001617432
1,156831,-29.83637237548828,106.1762466430664,-13.631098747253418,-70.68647003173828
1,156832,32.717716217041016,-82.21614074707031,-26.709081649780273,-109.49617767333984
1,156835,-60.1269416809082,-125.03327178955078,10.426015853881836,74.44181060791016
1,156836,28.901540756225586,0.2602762281894684,30.453134536743164,142.2690887451172
1,156839,58.01819610595703,38.97998809814453,10.384916305541992,-23.818832397460938
1,156840,-69.77953338623047,55.5081672668457,6.3173322677612305,-32.551570892333984
1,156843,17.310110092163086,49.34650802612305,19.616466522216797,-30.51925277709961
1,156844,40.92902755737305,11.744189262390137,-11.793118476867676,-21.686471939086914
1,156847,10.564964294433594,21.379865646362305,-19.41570281982422,57.11461639404297
1,156848,44.551414489746094,8.649114608764648,-9.296920776367188,-4.870845317840576
1,156851,-39.78959655761719,-143.2901153564453,-19.44779396057129,-49.93166732788086
1,156852,-186.3365478515625,-71.15869140625,5.684365749359131,35.623291015625
1,156855,66.81945037841797,70.01839447021484,79.3255386352539,107.88341522216797
1,156856,202.2471923828125,-44.136749267578125,47.7844352722168,6.333136081695557
1,156859,-130.60772705078125,137.6831512451172,-69.26268005371094,-149.88111877441406
1,156860,-47.53192138671875,182.04502868652344,-17.33517837524414,-77.65605926513672
1,156863,47.4376335144043,-183.42620849609375,-21.638120651245117,48.34737014770508
1,156864,-34.86381530761719,-72.85401153564453,-32.04819869995117,34.0104866027832
1,156867,35.50653076171875,121.47078704833984,41.1234016418457,57.63822555541992
1,156868,12.340112686157227,-76.89031219482422,23.30508804321289,-10.926861763000488
1,156871,-11.915718078613281,16.108482360839844,29.34857177734375,-64.26709747314453
1,156872,-1.0242230892181396,120.3534164428711,-21.110010147094727,-1.076426386833191
1,156875,-7.759420394897461,-86.45042419433594,-54.78451919555664,11.091337203979492
1,156876,-19.469274520874023,-75.63604736328125,0.6048439741134644,54.09735870361328
1,156879,52.498687744140625,-7.727110385894775,11.779427528381348,35.7125358581543
1,156880,46.960426330566406,-69.3775863647461,3.4936764240264893,-37.193023681640625
1,156883,-62.23564910888672,-41.041839599609375,-7.512340068817139,-44.44358825683594
1,156884,-59.3319091796875,50.25776672363281,1.1300113201141357,19.894189834594727
1,156887,7.116178512573242,135.72181701660156,22.903270721435547,46.283939361572266
1,156888,41.18352127075195,107.76993560791016,-5.9427337646484375,-4.0707783699035645
1,156891,-21.534334182739258,-52.8365478515625,-20.111133575439453,-88.34759521484375
1,156892,33.547054290771484,-41.752864837646484,22.17386817932129,-65.56949615478516
1,156895,107.18112182617188,-33.167503356933594,27.232799530029297,52.91181945800781
1,156896,-130.8225860595703,-91.62288665771484,-13.649188041687012,74.41743469238281
1,156899,-124.5100326538086,26.086124420166016,-16.298446655273438,108.56982421875
1,156900,126.45588684082031,51.10746765136719,3.4750876426696777,2.7046830654144287
1,156903,66.8224868774414,-11.177963256835938,7.182277202606201,-121.53536224365234
1,156904,-50.79348373413086,-70.32408142089844,-36.167808532714844,-17.318416595458984
1,156907,-16.10177993774414,19.943368911743164,-38.788639068603516,9.608823776245117
1,156908,25.183311462402344,105.92823791503906,44.64067840576172,-21.833858489990234
1,156911,-4.132533550262451,-24.7531795501709,45.4522590637207,-1.1307668685913086
1,156912,1.9896492958068848,17.780820846557617,3.4450130462646484,31.745075225830078
1,156915,45.16094970703125,40.85627365112305,-3.529421091079712,19.306747436523438
1,156916,17.012426376342773,-48.071434020996094,-12.821687698364258,-32.55823516845703
1,156919,-62.02989196777344,12.788379669189453,-21.198841094970703,7.399819850921631
1,156920,-38.79806137084961,-44.95206832885742,-22.336652755737305,-5.725151538848877
1,156923,38.0203742980957,-94.35697174072266,18.680147171020508,-42.512630462646484
1,156924,-17.82291030883789,62.00947570800781,40.309486389160156,45.868629455566406
1,156927,-45.990882873535156,15.555030822753906,-20.485416412353516,34.16943359375
1,156928,5.703824043273926,-81.50353240966797,-12.227035522460938,-24.319793701171875
1,156931,26.859067916870117,57.00187683105469,36.23930358886719,39.416351318359375
1,156933,21.162208557128906,101.510498046875,-17.679616928100586,-1.1450871229171753
1,156935,-22.09965705871582,-28.430936813354492,-31.217050552368164,-92.07897186279297
1,156937,-11.787297248840332,-39.42911148071289,-2.4889791011810303,-21.58099937438965
1,156939,41.371585845947266,23.128705978393555,-22.787446975708008,29.48799705505371
1,156941,22.41883659362793,16.62596893310547,19.195205688476562,28.77320098876953
1,156943,-26.737075805664062,-42.05345916748047,27.924768447875977,61.29069900512695
1,156945,-20.902456283569336,-38.89017105102539,-15.988300323486328,-46.024566650390625
1,156947,5.424320697784424,25.149316787719727,6.688804626464844,-48.14997863769531
1,156950,24.940736770629883,31.802709579467773,24.666847229003906,80.54354858398438
1,156950,23.3956241607666,12.302179336547852,7.949567794799805,-2.055100202560425
1,156953,-48.362613677978516,-20.939693450927734,-39.767887115478516,-35.0727424621582
1,156954,-25.478307723999023,-19.22711753845215,-5.205268859863281,-0.8302571177482605
1,156957,58.24388885498047,34.86811828613281,27.50832176208496,-19.098615646362305
1,156958,2.642943859100342,24.397348403930664,-17.206777572631836,30.092504501342773
1,156961,-28.430130004882812,-48.64699172973633,18.737869262695312,3.362403631210327
1,156962,22.359277725219727,-15.899754524230957,28.86762809753418,-57.046905517578125
1,156965,-14.56192398071289,15.933276176452637,-37.889984130859375,36.55842208862305
1,156966,-4.070664882659912,3.0087292194366455,-13.446081161499023,45.45637893676758
1,156969,15.599048614501953,4.64757776260376,31.97088050842285,-22.24907112121582
1,156970,-40.86983108520508,-27.020675659179688,-26.86651039123535,-15.896137237548828
1,156973,1.4839218854904175,12.428993225097656,-29.20880126953125,-1.1195592880249023
1,156974,38.39043045043945,40.76781463623047,25.122608184814453,30.22091293334961
1,156977,-7.92538595199585,-4.509308338165283,6.06657075881958,-26.700166702270508
1,156978,-30.01295280456543,-32.82906723022461,-6.58134126663208,-39.23461151123047
1,156981,19.23181915283203,-9.423675537109375,8.51386833190918,49.20211410522461
1,156982,29.06794548034668,21.527517318725586,1.6437532901763916,12.813040733337402
1,156985,-26.000600814819336,-4.658095359802246,1.0437159538269043,-18.339494705200195
1,156986,-0.2132481336593628,-3.686293601989746,2.770249128341675,20.387723922729492
1,156989,11.060624122619629,22.151100158691406,6.14519739151001,-2.0125010013580322
1,156990,-35.53152847290039,-8.847914695739746,-9.170351028442383,-28.54218101501465
1,156993,17.657533645629883,-18.278669357299805,-10.982658386230469,5.810850620269775
1,156994,22.258983612060547,-2.1235809326171875,7.2707061767578125,17.428190231323242
1,156997,-16.496795654296875,8.270380973815918,3.2257912158966064,-40.73447799682617
1,156998,36.59628677368164,39.12158203125,19.554244995117188,9.736615180969238
1,157001,-13.372819900512695,-25.56258773803711,-24.814533233642578,38.064453125
1,157002,-50.668785095214844,-42.697837829589844,-30.08816146850586,-45.78866958618164
1,157005,37.759422302246094,36.46383285522461,49.127140045166016,-6.9464287757873535
1,157006,16.289880752563477,5.204047679901123,5.987813472747803,56.189125061035156
1,157009,-34.18000411987305,-8.277567863464355,-31.769481658935547,-45.49074935913086
1,157010,-0.4429604709148407,10.627513885498047,18.206384658813477,-53.18684387207031
1,157013,0.8574098348617554,-24.959238052368164,-6.927337646484375,82.7390365600586
1,157014,-3.1280674934387207,3.7803173065185547,-23.70928382873535,18.768850326538086
1,157017,10.01368236541748,29.440441131591797,26.652568817138672,-37.58945083618164
1,157018,0.6984910368919373,-8.365500450134277,4.622576713562012,19.05727195739746
1,157021,-9.669129371643066,-22.37913703918457,-25.13904571533203,-21.64922523498535
1,157022,-1.4294416904449463,-5.458245754241943,8.181983947753906,-22.75955581665039
1,157025,15.6253023147583,19.401498794555664,9.632568359375,39.572574615478516
1,157026,4.4737467765808105,6.741403579711914,7.123713970184326,35.217655181884766
1,157029,-2.8994839191436768,-12.345552444458008,10.633790969848633,-26.997283935546875
1,157030,-5.069969654083252,-4.251134395599365,-21.643739700317383,-47.529502868652344
1,157033,-3.0406081676483154,33.0445671081543,3.528923273086548,-2.763275623321533
1,157034,7.727173328399658,11.594254493713379,0.18964864313602448,27.225112915039062
1,157037,-8.56576156616211,-33.56413269042969,-27.167278289794922,25.17584228515625
1,157038,-19.878124237060547,4.0399322509765625,30.65161895751953,13.434134483337402
1,157041,11.774225234985352,4.601367950439453,10.200647354125977,-46.93256759643555
1,157042,16.162158966064453,-25.808109283447266,-23.951271057128906,-28.292369842529297
1,157045,-4.650662422180176,3.4271397590637207,36.119789123535156,77.14674377441406
1,157046,22.266305923461914,9.46113395690918,17.018630981445312,5.59949254989624
1,157049,-6.367763519287109,-9.781119346618652,-54.51179885864258,-35.01533126831055
1,157050,-30.13373565673828,14.493969917297363,-7.526033401489258,-10.499979019165039
1,157053,28.306995391845703,-5.549203872680664,31.478931427001953,-29.06910514831543
1,157054,18.920242309570312,-31.214818954467773,-5.801436901092529,37.764549255371094
1,157057,-22.928327560424805,34.47480392456055,-10.364801406860352,17.255002975463867
1,157058,0.7255610227584839,37.467491149902344,11.919747352600098,-14.256815910339355
1,157061,-2.721118450164795,-40.80054473876953,-8.005423545837402,-18.619543075561523
1,157062,1.5249216556549072,-16.019784927368164,-10.620128631591797,10.719695091247559
1,157065,-9.385160446166992,18.400955200195312,20.508604049682617,39.81418228149414
1,157066,-39.99345779418945,7.467225551605225,-12.488411903381348,-46.74491882324219
1,157069,30.92470359802246,17.195066452026367,-7.694250583648682,-7.259796619415283
1,157070,28.514305114746094,-11.60062026977539,5.581964492797852,20.31023406982422
1,157073,-20.338809967041016,-23.9426326751709,-11.628915786743164,18.03217124938965
1,157074,16.988466262817383,-6.537035942077637,16.594499588012695,63.21968460083008
1,157077,-4.471731662750244,-14.065837860107422,9.622848510742188,-129.32937622070312
1,157078,-49.99269485473633,17.214330673217773,-12.992228507995605,-94.34330749511719
1,157081,25.344642639160156,39.51713943481445,10.786581039428711,196.82318115234375
1,157082,56.984859466552734,-0.4383639693260193,-1.0438543558120728,30.855688095092773
1,157085,-32.242652893066406,-31.991117477416992,-29.938220977783203,-150.8324432373047
1,157086,-30.103553771972656,-6.099228382110596,-2.9691240787506104,1.1143498420715332
1,157089,20.788570404052734,20.453882217407227,21.97040557861328,78.4385986328125
1,157090,5.670567989349365,3.0366768836975098,21.565685272216797,11.424931526184082
1,157093,-21.005584716796875,-19.9567813873291,-1.3711984157562256,-30.840120315551758
1,157094,-26.938770294189453,-22.13872718811035,-21.698184967041016,-3.2720208168029785
1,157097,36.51448440551758,39.19580841064453,6.152743339538574,-1.3360238075256348
1,157098,22.44059944152832,7.680083274841309,1.6980234384536743,13.494431495666504
1,157101,-21.298892974853516,-31.453222274780273,-1.4043021202087402,3.674830436706543
1,157102,23.65633773803711,45.01362228393555,10.642451286315918,-34.22776794433594
1,157105,-25.479219436645508,-22.27174186706543,-12.858781814575195,39.17100143432617
1,157106,-33.82099151611328,-41.407615661621094,-15.833605766296387,27.181705474853516
1,157109,43.71527099609375,51.890968322753906,5.924557685852051,-78.3092269897461
1,157110,3.985255479812622,1.144173264503479,12.85757064819336,-8.452919960021973
1,157113,-13.693075180053711,-18.555160522460938,7.0205302238464355,40.66690444946289
1,157114,34.560916900634766,39.18864822387695,29.164846420288086,20.8525333404541
1,157117,-34.58394241333008,7.55419921875,-20.016019821166992,11.345992088317871
1,157119,-18.93314552307129,-52.53964614868164,-54.19569396972656,-53.60985565185547
1,157121,55.33921813964844,-43.20106887817383,29.95220947265625,21.42545509338379
1,157123,-4.547991752624512,25.117570877075195,28.260873794555664,94.6430435180664
1,157125,-18.4160099029541,38.25044250488281,-20.725866317749023,-75.83495330810547
1,157127,-24.442184448242188,-26.94279670715332,4.964529037475586,-125.86624908447266
1,157129,-20.71870231628418,-34.534881591796875,-8.615580558776855,66.57860565185547
1,157131,39.12429428100586,29.749032974243164,-21.947111129760742,70.6218032836914
1,157133,33.97074890136719,55.73887634277344,22.262340545654297,-10.089122772216797
1,157135,-29.4450626373291,-34.92289733886719,12.425125122070312,14.837717056274414
1,157137,-32.423831939697266,-41.6375732421875,-16.537179946899414,-16.107173919677734
1,157139,29.323307037353516,33.36951446533203,-10.887258529663086,-40.75190353393555
1,157141,10.124914169311523,20.392532348632812,13.781672477722168,10.925419807434082
1,157143,-14.262171745300293,4.594672203063965,31.93562889099121,48.795677185058594
1,157145,-1.1557801961898804,-5.393326759338379,-15.275814056396484,-20.9221134185791
1,157147,-2.753535747528076,1.9746336936950684,-35.65035629272461,-52.30851745605469
1,157149,14.807085037231445,8.034794807434082,14.420525550842285,28.500486373901367
1,157151,-0.9998261332511902,-7.6751275062561035,19.472759246826172,38.067115783691406
1,157152,-1.4150702953338623,-11.449644088745117,-12.904261589050293,-20.052141189575195
1,157155,-3.0516138076782227,0.9089500308036804,-1.5803812742233276,-19.72780418395996
1,157156,-30.340839385986328,0.8870889544487,-10.287383079528809,-13.366581916809082
1,157159,16.683515548706055,-7.119129180908203,-2.800320625305176,24.188919067382812
1,157160,14.132707595825195,-11.962014198303223,21.41925811767578,37.157249450683594
1,157163,-21.221288681030273,-23.937191009521484,-9.982163429260254,-44.06586837768555
1,157164,24.649934768676758,24.13129997253418,8.768619537353516,-16.1488094329834
1,157167,19.172250747680664,38.83182144165039,19.729530334472656,33.2133674621582
1,157168,-36.4755973815918,-16.979188919067383,-22.421144485473633,4.98301362991333
1,157171,-23.204824447631836,-40.15925216674805,-13.157358169555664,-10.809473991394043
1,157172,27.90117645263672,1.6796625852584839,35.30746078491211,5.195035934448242
1,157175,17.210378646850586,36.38148880004883,4.622744083404541,0.5441384315490723
1,157176,-12.546767234802246,-2.8296918869018555,-36.529563903808594,-35.9320182800293
1,157179,-0.4356105625629425,-15.666558265686035,0.9995756149291992,10.914426803588867
1,157180,-7.767469882965088,-9.762093544006348,-4.688060760498047,11.428126335144043
1,157183,-2.5099732875823975,8.3773832321167,-2.3269314765930176,-3.5979340076446533
1,157184,4.174159049987793,30.68532943725586,19.405517578125,14.78387451171875
1,157187,0.6523376107215881,6.2907395362854,0.41997483372688293,-19.813066482543945
1,157188,7.407768726348877,-11.613397598266602,-8.578185081481934,7.654560089111328
1,157191,-4.590700626373291,-7.672494888305664,-14.940339088439941,30.25422477722168
1,157192,2.2386014461517334,-7.658037185668945,14.415740966796875,-10.367042541503906
1,157195,1.5715000629425049,4.224564552307129,37.687835693359375,-19.776165008544922
1,157196,-8.711173057556152,-3.5832178592681885,-32.0220832824707,20.852697372436523
1,157199,0.0021553905680775642,-9.763916969299316,-33.02302932739258,0.9101512432098389
1,157200,16.125347137451172,31.196975708007812,32.74485397338867,-21.288660049438477
1,157203,13.253920555114746,-2.9090120792388916,-23.517202377319336,-9.609683990478516
1,157204,-20.035173416137695,-56.02045822143555,-10.550701141357422,1.9531573057174683
1,157207,-29.678693771362305,14.421574592590332,45.295005798339844,-1.7858669757843018
1,157208,23.081289291381836,54.18119430541992,-0.6692973375320435,-14.578765869140625
1,157211,20.763071060180664,-22.618799209594727,6.963934421539307,32.4116325378418
1,157212,-18.701282501220703,-19.92809295654297,-2.8418819904327393,-20.09601593017578
1,157215,5.148329734802246,12.859408378601074,-30.323230743408203,-13.499000549316406
1,157216,-2.8627371788024902,-0.8109266757965088,17.36671257019043,88.24407958984375
1,157219,-9.672577857971191,7.729109764099121,17.044240951538086,-34.69353485107422
1,157220,18.184879302978516,-4.453086853027344,-11.271868705749512,-99.05943298339844
1,157223,17.847286224365234,2.1369638442993164,20.121370315551758,79.61809539794922
1,157224,-1.4529132843017578,11.813419342041016,10.976746559143066,94.29813385009766
1,157227,-29.091585159301758,-10.940613746643066,-53.06692123413086,-69.10041809082031
1,157228,-13.771944999694824,-11.68787670135498,-23.811853408813477,-36.71561050415039
1,157231,30.129684448242188,33.56104278564453,43.438968658447266,8.692413330078125
1,157232,-0.6939042210578918,-8.902130126953125,0.8653637170791626,-40.20686340332031
1,157235,-19.94620704650879,-41.41481018066406,-38.229740142822266,38.54023361206055
1,157236,11.596386909484863,22.853740692138672,3.6863741874694824,-18.567094802856445
1,157239,-0.36531907320022583,10.5137357711792,26.293912887573242,-33.4554328918457
1,157240,-26.573837280273438,-14.820441246032715,9.618720054626465,82.30348205566406
1,157243,-1.9262486696243286,-23.376352310180664,-6.233074188232422,-8.318778991699219
1,157244,28.475467681884766,14.283605575561523,-10.07560920715332,-41.21131896972656
1,157247,0.14276449382305145,32.75650405883789,2.3982129096984863,28.482572555541992
1,157248,-13.652458190917969,-36.36469268798828,13.149127006530762,19.339818954467773
1,157251,0.27659183740615845,-20.10948371887207,-22.22393226623535,-25.78121566772461
1,157252,15.840826988220215,42.85595703125,-9.302468299865723,0.64082932472229
1,157255,4.228903770446777,6.802197456359863,32.39399337768555,18.942306518554688
1,157256,-7.895397663116455,-13.261039733886719,6.651784896850586,-47.88484191894531
1,157259,12.745919227600098,18.237585067749023,0.7737621068954468,-15.47148323059082
1,157260,2.7283363342285156,-34.414608001708984,-12.733512878417969,53.80046081542969
1,157263,-27.415977478027344,-16.5032958984375,-20.87190818786621,-5.025362968444824
1,157264,-1.7057244777679443,74.13711547851562,24.04486656188965,-25.318899154663086
1,157267,19.985986709594727,-14.443381309509277,10.076057434082031,43.7425537109375
1,157268,-20.591041564941406,-52.430519104003906,-30.135467529296875,-12.591012954711914
1,157271,3.0989420413970947,18.80609130859375,16.383729934692383,-19.658737182617188
1,157272,37.27423858642578,0.43047282099723816,6.724356174468994,26.545167922973633
1,157275,-7.0656514167785645,22.220367431640625,-18.93974494934082,-39.27672576904297
1,157276,-37.9373664855957,2.2954089641571045,19.71352195739746,10.10074520111084
1,157279,1.0061359405517578,-14.581328392028809,-4.385099411010742,17.493698120117188
1,157280,16.066532135009766,2.371598482131958,-20.26350212097168,-40.448265075683594
1,157283,6.24929666519165,-15.422072410583496,7.199852466583252,33.41537857055664
1,157284,10.954720497131348,17.0815486907959,18.045825958251953,27.221689224243164
1,157287,-15.949593544006348,-3.8787498474121094,-21.85982322692871,-42.879913330078125
1,157288,-1.5931872129440308,4.562518119812012,0.3183369040489197,-5.005345344543457
