Aktueller Finger,timestamp_ms,sensor_0,sensor_1,sensor_2,sensor_3
0,531952,8.934296607971191,-8.458447456359863,-8.54042911529541,-37.75678253173828
0,531954,-0.8215060234069824,-10.497411727905273,-8.849491119384766,-17.753568649291992
0,531957,17.780921936035156,9.675891876220703,17.44087791442871,17.319664001464844
0,531958,2.196550130844116,22.2406005859375,11.464208602905273,8.878929138183594
0,531961,-18.794963836669922,-10.78152847290039,-16.680728912353516,0.6144397258758545
0,531962,-4.926661014556885,-14.472620964050293,11.040047645568848,-17.777570724487305
0,531963,20.42753791809082,26.890474319458008,4.357478141784668,24.17660903930664
0,531971,13.96513557434082,3.569955825805664,-14.548688888549805,8.93800163269043
0,531971,-22.169517517089844,-36.08122253417969,-0.7656542062759399,-52.940025329589844
0,531972,1.994177222251892,2.672341823577881,4.773367881774902,33.646644592285156
0,531973,7.449872970581055,28.939653396606445,-6.91550350189209,34.15835189819336
0,531974,-11.159189224243164,13.687902450561523,2.8572113513946533,-47.82892608642578
0,531975,12.73336410522461,-11.398476600646973,43.15626525878906,5.759052276611328
0,531978,0.22250978648662567,-20.885828018188477,-22.64364242553711,12.280417442321777
0,531980,-26.796480178833008,6.4435319900512695,-50.31641387939453,-39.64821243286133
0,531982,-3.9609591960906982,6.718297004699707,34.7609748840332,10.331940650939941
0,531984,19.067943572998047,-26.8752384185791,-4.423691272735596,53.86757278442383
0,531986,-3.83747935295105,-8.134668350219727,-2.8484275341033936,-0.5060299634933472
0,531988,-8.195359230041504,17.26947593688965,23.510639190673828,-38.2655029296875
0,531990,28.675094604492188,18.82305145263672,-15.933473587036133,3.4696638584136963
0,531992,-9.767536163330078,10.022696495056152,11.98764419555664,25.13079071044922
0,531994,-22.093841552734375,-44.306732177734375,-17.55583953857422,-5.021897315979004
0,532015,35.7385368347168,-5.196041107177734,-17.561168670654297,-12.726217269897461
0,532015,-0.6674996614456177,52.396270751953125,29.19971466064453,-23.930017471313477
0,532016,-14.528943061828613,0.4586905539035797,-15.683683395385742,-2.4601240158081055
0,532016,2.5327110290527344,-12.367632865905762,-2.919253349304199,26.53278923034668
0,532016,-12.423654556274414,14.78988265991211,34.92841339111328,-1.6840977668762207
0,532016,11.532575607299805,1.6520005464553833,-8.131580352783203,2.4669413566589355
0,532016,6.5434112548828125,-28.533098220825195,-23.065662384033203,6.865452289581299
0,532016,-24.995267868041992,-18.53384017944336,2.2720987796783447,-1.9438443183898926
0,532017,-1.6439948081970215,21.971139907836914,-1.574493646621704,1.191002607345581
0,532017,25.938556671142578,-18.03127098083496,-1.4570839405059814,1.7313313484191895
0,532018,-8.239712715148926,-19.632572174072266,2.8934755325317383,6.506833076477051
0,532018,-5.67464017868042,47.2468376159668,-0.1990433782339096,-15.32249641418457
0,532020,24.050779342651367,-9.771172523498535,12.01068115234375,-18.627103805541992
0,532022,-9.070466041564941,-37.67082595825195,2.9729292392730713,10.67512321472168
0,532024,-13.569170951843262,31.80173110961914,3.460249423980713,0.12058694660663605
0,532026,-0.17851872742176056,33.98775863647461,-0.8183524012565613,-0.6793694496154785
0,532028,-17.18796157836914,-13.161149024963379,-10.92464542388916,16.382713317871094
0,532030,-25.567840576171875,-20.635963439941406,-18.81212615966797,-9.603511810302734
0,532032,3.618820905685425,-15.131746292114258,-14.879141807556152,-23.795637130737305
0,532034,46.102378845214844,19.76122283935547,36.593544006347656,12.886834144592285
0,532036,11.07617473602295,29.403648376464844,20.63453483581543,27.326658248901367
0,532038,-18.809154510498047,-21.638124465942383,-22.368473052978516,-1.5920324325561523
0,532040,0.02836262248456478,-19.03879737854004,-27.35089683532715,2.1802735328674316
0,532043,-2.7861435413360596,-30.584035873413086,11.23432445526123,0.5640698075294495
0,532077,0.4644133746623993,11.142149925231934,29.965194702148438,-16.04378890991211
0,532077,10.400676727294922,49.49846649169922,-24.51054573059082,0.6905763149261475
0,532077,0.7664300203323364,-11.381709098815918,-6.310603618621826,-3.1807727813720703
0,532078,-8.081110000610352,-33.5720329284668,30.717689514160156,-6.284043788909912
0,532078,-0.3793097138404846,-9.999445915222168,1.8088963031768799,3.6153039932250977
0,532078,4.689121246337891,37.38154983520508,-19.365488052368164,-6.812608242034912
0,532078,-9.463555335998535,9.189725875854492,0.9625704288482666,15.90367603302002
0,532078,-6.563565254211426,-20.197341918945312,8.776896476745605,9.609651565551758
0,532079,20.40288543701172,10.613520622253418,-18.05531883239746,-38.03435516357422
0,532079,-2.846557378768921,-16.821937561035156,-10.719463348388672,3.7319045066833496
0,532079,-23.34941291809082,2.7368149757385254,28.485506057739258,49.54512023925781
0,532079,3.070136308670044,30.08982276916504,7.342922687530518,-5.823111057281494
0,532079,26.186864852905273,-13.530205726623535,-37.752052307128906,-26.497045516967773
0,532079,15.713237762451172,-2.4285757541656494,14.138002395629883,11.553797721862793
0,532080,-13.73305892944336,0.33434048295021057,29.53103256225586,-11.024349212646484
0,532080,-8.9769868850708,-13.535420417785645,-30.963979721069336,-8.866744995117188
0,532080,-8.63736343383789,10.679986000061035,-9.697041511535645,16.882368087768555
0,532081,-19.3669490814209,14.525566101074219,22.454004287719727,-15.85112190246582
0,532081,24.252613067626953,8.686452865600586,-3.6085052490234375,-3.3593909740448
0,532083,25.651887893676758,-18.938371658325195,-7.355132102966309,14.8909273147583
0,532084,-20.416526794433594,3.037412643432617,15.306642532348633,-0.15446436405181885
0,532085,8.619243621826172,40.73201370239258,-9.021221160888672,-3.442261219024658
0,532088,9.573558807373047,-14.872544288635254,1.9448847770690918,-2.8321456909179688
0,532089,-22.895261764526367,-27.261260986328125,32.35966110229492,10.400989532470703
0,532092,-11.925992012023926,12.75217342376709,-23.617691040039062,-2.3538782596588135
0,532093,3.979313611984253,-12.757291793823242,-15.219135284423828,-10.552667617797852
0,532096,7.432189464569092,-34.976951599121094,4.443268775939941,5.0013017654418945
0,532097,-0.15497125685214996,10.61789321899414,-4.819416046142578,16.09698486328125
0,532100,-7.613968372344971,3.653010845184326,25.077543258666992,-3.947749137878418
0,532101,-0.20273737609386444,-8.785414695739746,-18.943994522094727,-29.141725540161133
0,532104,8.761791229248047,20.303503036499023,-19.04084587097168,1.7596514225006104
0,532105,-16.67547607421875,16.747425079345703,37.83500289916992,17.618118286132812
0,532153,14.018472671508789,-9.003754615783691,-9.770333290100098,-3.0308001041412354
0,532154,35.46452713012695,-42.23068618774414,-32.463890075683594,-3.667005777359009
0,532154,-13.806610107421875,3.924396276473999,23.1052303314209,5.0190863609313965
0,532154,-26.116741180419922,46.6549186706543,9.501422882080078,5.823934555053711
0,532154,-13.224190711975098,10.570744514465332,-3.4354348182678223,-4.85383939743042
0,532154,14.577200889587402,-6.117629051208496,3.0833852291107178,0.8702422380447388
0,532154,16.968820571899414,-5.206023693084717,-15.189133644104004,17.08453369140625
0,532155,-9.135168075561523,-0.3528726100921631,2.711885929107666,-0.4799732565879822
0,532155,-1.546107292175293,-1.749382495880127,2.8733372688293457,-19.3203067779541
0,532155,2.142143726348877,-20.125179290771484,-2.915738344192505,-12.07441234588623
0,532155,-21.218231201171875,-12.608783721923828,0.3611721694469452,16.01618766784668
0,532155,-8.926065444946289,11.408854484558105,0.3567361831665039,28.5374813079834
0,532155,26.65831756591797,25.432748794555664,6.751871585845947,-3.767102003097534
0,532156,16.274799346923828,7.630048751831055,9.20932388305664,-22.9963321685791
0,532156,-14.577313423156738,-16.016382217407227,-4.421336650848389,-3.774738073348999
0,532156,12.664310455322266,8.775325775146484,-14.905738830566406,-5.340704441070557
0,532156,-1.1691077947616577,-11.277169227600098,-7.383499622344971,-10.026839256286621
0,532156,-42.15338897705078,-34.22182083129883,-7.453723907470703,21.47669792175293
0,532156,18.108531951904297,15.509510040283203,13.622024536132812,-4.131282329559326
0,532157,28.134382247924805,19.515565872192383,3.082852363586426,-24.962610244750977
0,532157,-20.512191772460938,-11.623435974121094,-4.969566822052002,15.582985877990723
0,532157,-1.658643126487732,4.278505325317383,24.969913482666016,2.9228334426879883
0,532157,17.98541831970215,4.579153060913086,-17.62257194519043,-17.079309463500977
0,532157,-4.001685619354248,-19.135452270507812,-31.31136131286621,2.356663703918457
0,532159,-10.458160400390625,10.149550437927246,28.725236892700195,22.31816864013672
0,532159,-2.677762746810913,8.459125518798828,25.43507194519043,14.621821403503418
0,532160,4.648672580718994,-3.522709369659424,-7.2714056968688965,-5.6227030754089355
0,532161,4.238607406616211,20.374507904052734,-7.599435806274414,-7.87288236618042
0,532164,-10.997714042663574,10.248382568359375,23.856708526611328,9.012937545776367
0,532165,12.980504989624023,-7.31031608581543,1.646330714225769,-15.947212219238281
0,532168,-9.601181983947754,-21.493148803710938,-46.92723846435547,-9.41058349609375
0,532169,-34.834590911865234,-7.324760913848877,-3.238353729248047,18.715585708618164
0,532172,31.199172973632812,11.754886627197266,9.533806800842285,-14.828845024108887
0,532173,30.275571823120117,13.935689926147461,-0.37347865104675293,-1.9051079750061035
0,532176,-12.779622077941895,2.1767094135284424,21.90276527404785,9.312262535095215
0,532177,-10.497903823852539,-19.37421989440918,-2.5635602474212646,-0.9032583832740784
0,532180,8.638091087341309,-24.597808837890625,-11.723811149597168,-7.2856926918029785
0,532181,3.499951124191284,-15.678265571594238,8.16934871673584,3.084648609161377
0,532184,-9.920610427856445,29.457901000976562,-1.6608214378356934,11.80339241027832
0,532186,-5.811924457550049,29.222091674804688,-21.127412796020508,-1.1855021715164185
0,532188,-3.604649782180786,-5.015610218048096,1.849048137664795,21.789043426513672
0,532249,9.515925407409668,-19.828689575195312,32.10495376586914,-5.971405506134033
0,532249,10.470046043395996,-3.135207176208496,-1.6980457305908203,-46.16749572753906
0,532249,-9.231099128723145,21.75469970703125,-13.506324768066406,0.04444105178117752
0,532249,-30.288785934448242,-10.691604614257812,11.890649795532227,26.845027923583984
0,532250,12.200201988220215,8.09930419921875,-9.601600646972656,9.542137145996094
0,532250,35.210445404052734,10.212875366210938,-17.682113647460938,-10.015279769897461
0,532250,-15.136526107788086,-15.276104927062988,5.5421576499938965,-13.69626235961914
0,532250,-8.629107475280762,2.8744564056396484,8.848973274230957,0.6711193919181824
0,532250,8.9900484085083,-22.474714279174805,2.259988784790039,-1.4692498445510864
0,532251,-7.286721229553223,-4.842360496520996,-14.628046989440918,5.573091983795166
0,532251,-2.7295899391174316,32.664772033691406,11.747179985046387,16.794858932495117
0,532251,13.156890869140625,-1.784293532371521,18.42312240600586,3.015172004699707
0,532251,-0.48404809832572937,-10.514760971069336,-15.591082572937012,5.88120698928833
0,532251,-23.433141708374023,1.6292325258255005,-11.55477523803711,-2.9987902641296387
0,532251,-2.8316831588745117,-16.48714256286621,-1.7451989650726318,-14.312445640563965
0,532252,29.493263244628906,0.29134514927864075,11.16928768157959,4.9533467292785645
0,532252,6.607711315155029,18.395545959472656,-4.679941177368164,18.273719787597656
0,532252,-31.023719787597656,-3.651613473892212,5.59986686706543,5.623218059539795
0,532252,-6.626398086547852,1.521209716796875,11.957411766052246,-17.542545318603516
0,532252,20.66452980041504,4.45332145690918,-28.005064010620117,-11.3799409866333
0,532252,0.34099939465522766,-4.119443893432617,-15.465331077575684,1.6116020679473877
0,532253,-12.511459350585938,1.7692368030548096,21.61294174194336,14.197449684143066
0,532253,14.418694496154785,6.173398971557617,26.3802547454834,-2.1321346759796143
0,532253,11.498442649841309,8.089593887329102,-5.921522617340088,-20.077194213867188
0,532253,-17.236169815063477,-27.617473602294922,-26.95339584350586,-6.200958728790283
0,532253,-13.238382339477539,-11.515027046203613,-5.1836256980896,3.189434766769409
0,532254,5.246618747711182,33.17164611816406,29.04803466796875,5.278811454772949
0,532254,25.01775550842285,-3.665497064590454,20.005229949951172,9.007216453552246
0,532254,7.113765716552734,-18.765647888183594,-31.49199104309082,-4.458723068237305
0,532254,-22.660245895385742,-14.861458778381348,-26.636991500854492,-11.715672492980957
0,532255,-26.998117446899414,2.553832530975342,29.13718032836914,1.4261016845703125
0,532255,16.729198455810547,17.472562789916992,12.805975914001465,-17.142553329467773
0,532256,40.895084381103516,-8.706265449523926,-16.887611389160156,7.521774768829346
0,532257,-21.523584365844727,7.132656574249268,13.12795352935791,32.35588073730469
0,532258,-37.976505279541016,9.927520751953125,8.471826553344727,-8.38033390045166
0,532260,12.821707725524902,-4.060296058654785,-14.908920288085938,-3.166102647781372
0,532262,20.694143295288086,8.91355037689209,1.7951651811599731,22.99349021911621
0,532264,-2.398188829421997,17.207012176513672,3.169142484664917,-8.018058776855469
0,532266,-5.259551525115967,-4.543725967407227,-24.739818572998047,-27.573604583740234
0,532268,9.349897384643555,-29.538330078125,1.0578619241714478,9.468236923217773
0,532270,4.009565353393555,-3.3518807888031006,21.747148513793945,4.943137168884277
0,532272,-22.223430633544922,22.364904403686523,-4.788949489593506,-23.797496795654297
0,532274,3.738205671310425,-6.000607967376709,-14.66339111328125,5.375717639923096
0,532276,6.012925624847412,-30.92613410949707,-0.45081672072410583,27.242467880249023
0,532278,-2.294010639190674,17.97810935974121,22.431777954101562,-1.1997584104537964
0,532280,20.08447265625,9.133825302124023,-19.028480529785156,-19.991403579711914
0,532282,-11.004241943359375,-6.592779636383057,-14.935001373291016,-11.037797927856445
0,532284,-18.389957427978516,22.4061222076416,52.863224029541016,2.963225841522217
0,532356,10.098152160644531,-5.170537948608398,5.507328033447266,27.033891677856445
0,532357,18.174076080322266,-9.241106986999512,-34.196468353271484,19.191946029663086
0,532357,-5.618139266967773,-2.658020496368408,-19.593095779418945,-24.00361442565918
0,532357,-7.048470497131348,-0.02748890034854412,-3.4757883548736572,4.640116214752197
0,532357,4.07777738571167,3.567483901977539,46.51283264160156,73.9987564086914
0,532357,7.888289928436279,14.718647003173828,17.626110076904297,-22.853164672851562
0,532357,-2.695284605026245,-30.563682556152344,-58.7327995300293,-65.39750671386719
0,532358,-22.354698181152344,-13.350907325744629,-25.105817794799805,16.408777236938477
0,532358,12.093549728393555,59.35341262817383,41.889862060546875,-28.618112564086914
0,532358,1.9898675680160522,-26.590394973754883,13.330840110778809,-15.098180770874023
0,532358,-5.773754596710205,-35.991416931152344,-17.754045486450195,18.854991912841797
0,532358,1.5138944387435913,0.9538942575454712,12.278834342956543,4.797032833099365
0,532358,-14.354815483093262,8.533968925476074,18.854387283325195,16.68394660949707
0,532359,10.433185577392578,44.74968338012695,-10.444005012512207,-12.10791015625
0,532359,13.639666557312012,-0.9307674765586853,-10.898611068725586,-30.13377571105957
0,532359,5.456726551055908,-29.606637954711914,-25.558090209960938,0.32331541180610657
0,532359,-19.870731353759766,-2.448150873184204,-8.085126876831055,36.116825103759766
0,532359,-8.83493709564209,-7.056512355804443,28.30864143371582,-6.251292705535889
0,532359,16.78965950012207,-11.934516906738281,3.3325295448303223,-28.05406379699707
0,532360,-19.065603256225586,29.3194637298584,2.5895955562591553,35.34501647949219
0,532360,-5.564886093139648,28.07263946533203,15.268397331237793,17.14569854736328
0,532360,30.44183921813965,-16.05153465270996,5.0848283767700195,-39.2806396484375
0,532360,17.70769500732422,-25.283117294311523,-25.8132381439209,-8.21446418762207
0,532360,-29.554838180541992,6.501614093780518,-20.325794219970703,33.958492279052734
0,532360,-12.14589786529541,14.266819953918457,22.185956954956055,-11.117751121520996
0,532361,25.503747940063477,-8.595457077026367,22.383752822875977,-24.939138412475586
0,532361,8.047469139099121,13.292492866516113,-18.366796493530273,28.729978561401367
0,532361,-13.245874404907227,-4.490878582000732,-18.53664779663086,7.728772163391113
0,532361,-17.40291404724121,-37.55607604980469,15.136469841003418,-17.694583892822266
0,532361,17.53652572631836,12.5367431640625,-4.27072811126709,2.786301374435425
0,532362,12.911808967590332,27.730758666992188,-34.34923553466797,32.754302978515625
0,532362,8.89513111114502,-8.021585464477539,12.680808067321777,3.0764780044555664
0,532362,1.428411602973938,0.44687917828559875,46.46953582763672,-38.37892532348633
0,532362,-50.03783416748047,7.908873558044434,1.8140199184417725,17.599275588989258
0,532362,-3.9117183685302734,-0.18212947249412537,-23.12783432006836,18.089025497436523
0,532362,45.357398986816406,2.9761533737182617,-18.010583877563477,-75.83650207519531
0,532364,-21.451963424682617,-5.69157600402832,6.142572402954102,18.106491088867188
0,532364,-19.917749404907227,0.9149930477142334,20.628747940063477,105.0121078491211
0,532364,28.24340057373047,0.7853408455848694,0.4389532208442688,-61.70553970336914
0,532364,-6.979020118713379,-7.609238147735596,-10.867496490478516,-43.99835205078125
0,532366,-11.090803146362305,-4.348918914794922,-6.051524639129639,60.93443298339844
0,532368,11.589409828186035,7.562875270843506,2.8382678031921387,-12.208366394042969
0,532370,12.026519775390625,-3.6124489307403564,4.912739276885986,-34.789215087890625
0,532372,8.806139945983887,-19.836748123168945,-8.53403091430664,26.221487045288086
0,532374,-19.02175521850586,-9.758455276489258,-0.25801408290863037,12.318648338317871
0,532376,-23.384571075439453,-28.973039627075195,33.81440353393555,-10.763236045837402
0,532378,20.838241577148438,30.447507858276367,4.433999538421631,4.792669773101807
0,532380,13.02320384979248,46.9222526550293,-21.625144958496094,-3.2639811038970947
0,532382,-8.871247291564941,-11.664726257324219,9.674529075622559,-3.0004005432128906
0,532384,6.7704362869262695,-5.293829441070557,-2.3420140743255615,-26.617389678955078
0,532386,-31.49417495727539,-17.97314453125,-20.91609764099121,4.741053581237793
0,532460,-12.008760452270508,14.273104667663574,-2.6838252544403076,27.924875259399414
0,532461,46.46107482910156,4.693528652191162,8.023833274841309,-13.581717491149902
0,532461,1.9195088148117065,-19.66541290283203,5.329113006591797,-12.238531112670898
0,532461,-16.3566837310791,22.241884231567383,2.388432025909424,13.066980361938477
0,532461,11.74180793762207,1.0999226570129395,-21.677194595336914,22.156452178955078
0,532461,-21.68561553955078,-4.31354284286499,-19.05840492248535,-11.439739227294922
0,532461,-4.1508612632751465,10.011992454528809,-5.269088268280029,-22.520381927490234
0,532462,15.621915817260742,-16.572019577026367,-5.352806091308594,26.22055435180664
0,532462,6.653682231903076,-16.45587158203125,30.84461784362793,-5.060256481170654
0,532462,17.420124053955078,7.927178859710693,16.621797561645508,-15.589288711547852
0,532462,-37.2877311706543,4.006849765777588,-19.296863555908203,31.659364700317383
0,532462,-18.563037872314453,-9.978558540344238,-6.28217077255249,-22.224462509155273
0,532462,21.22579574584961,7.934106826782227,0.5991397500038147,-10.547697067260742
0,532463,2.5608177185058594,22.736610412597656,19.598344802856445,15.475196838378906
0,532463,8.937468528747559,-6.587785243988037,17.11554718017578,-34.277557373046875
0,532463,0.5590378046035767,-9.8572359085083,-22.01002311706543,-9.76927375793457
0,532463,-19.607147216796875,6.0410966873168945,19.14780616760254,28.24607276916504
0,532463,3.561535358428955,-13.795679092407227,9.916065216064453,18.532726287841797
0,532464,28.423887252807617,-8.842092514038086,-33.53110885620117,-19.03675651550293
0,532464,1.6987473964691162,20.277448654174805,39.57056427001953,-18.050676345825195
0,532464,-5.574934005737305,25.984966278076172,15.382035255432129,15.325173377990723
0,532464,-3.1173465251922607,-3.452921152114868,-50.629905700683594,-20.3808536529541
0,532464,-19.118764877319336,-22.613405227661133,-9.80228328704834,8.725412368774414
0,532464,-8.775979995727539,-0.20853205025196075,-11.573090553283691,30.832908630371094
0,532465,9.331677436828613,-11.235980987548828,1.5841633081436157,-10.630525588989258
0,532465,14.704856872558594,0.7860843539237976,61.59623718261719,19.497583389282227
0,532465,15.469145774841309,4.650981903076172,1.8164560794830322,-9.7714262008667
0,532465,4.847771644592285,-36.28559494018555,-26.484176635742188,-11.144430160522461
0,532465,-6.650780200958252,10.030694961547852,3.453667163848877,6.711062431335449
0,532465,-12.338781356811523,37.47570037841797,-28.68631362915039,-10.729841232299805
0,532466,4.645596504211426,-8.221660614013672,4.033968448638916,31.643308639526367
0,532466,10.603583335876465,-18.822168350219727,29.021167755126953,7.437417030334473
0,532466,-11.931041717529297,11.437952041625977,-11.562994003295898,-34.39789962768555
0,532466,-22.09552764892578,17.758556365966797,12.945667266845703,4.664181709289551
0,532466,16.104101181030273,3.739028215408325,-2.0747528076171875,8.306675910949707
0,532466,22.82230567932129,-14.489327430725098,-48.83494186401367,-7.541719913482666
0,532467,-35.91062927246094,0.8701051473617554,35.204132080078125,11.733529090881348
0,532468,4.091286659240723,40.83621597290039,25.683124542236328,45.48982238769531
0,532468,36.09648132324219,-3.5925207138061523,-52.09597396850586,-8.037349700927734
0,532468,-7.715855598449707,-38.10752868652344,-28.311588287353516,-85.01445770263672
0,532468,-15.764371871948242,8.93095874786377,32.60670852661133,-5.5469231605529785
0,532470,6.731973171234131,7.287558555603027,58.95051193237305,5.8277812004089355
0,532472,12.073400497436523,-23.922754287719727,-13.837942123413086,-11.48962688446045
0,532474,-30.285680770874023,31.720199584960938,-16.304330825805664,33.247344970703125
0,532476,-16.06325912475586,7.433727741241455,4.3774590492248535,14.670251846313477
0,532478,39.5979118347168,-61.06841278076172,-3.4672389030456543,-11.07022476196289
0,532480,-0.745496392250061,3.939945936203003,-0.8739410638809204,-11.081762313842773
0,532482,-40.900146484375,36.68067932128906,-18.623554229736328,11.218055725097656
0,532484,0.21169771254062653,17.072769165039062,10.725760459899902,7.026769161224365
0,532486,3.4772279262542725,-12.714327812194824,6.111391067504883,9.662166595458984
0,532488,10.235735893249512,-25.108190536499023,-22.041305541992188,9.220952033996582
0,532490,24.64611053466797,13.067033767700195,0.25032997131347656,-15.875185012817383
0,532567,-12.457840919494629,-6.978301048278809,20.7101993560791,0.8769689798355103
0,532567,3.718533992767334,-16.630855560302734,1.5042036771774292,8.287514686584473
0,532568,4.944318771362305,16.352834701538086,-8.392132759094238,-13.473611831665039
0,532568,-14.661799430847168,14.764453887939453,-1.264614224433899,-16.731618881225586
0,532568,3.1423420906066895,-6.0219879150390625,-3.016655445098877,-0.5668559074401855
0,532568,-1.162135124206543,-17.92656707763672,-2.384901285171509,5.543292045593262
0,532568,-0.1306990534067154,-2.172861099243164,6.071169853210449,15.18930721282959
0,532568,-8.083826065063477,1.6367368698120117,7.057689666748047,6.909905910491943
0,532569,0.11577007174491882,13.33597183227539,-5.444750785827637,-18.186725616455078
0,532569,19.09263038635254,9.287036895751953,-3.61188006401062,-1.0576053857803345
0,532569,-15.577939987182617,-32.20286560058594,-3.741665840148926,15.908305168151855
0,532569,-18.680509567260742,-2.686461925506592,-2.8445675373077393,8.332677841186523
0,532569,33.06706619262695,44.87009811401367,7.990768909454346,-17.19415283203125
0,532570,24.04764175415039,-0.06036790460348129,5.438962936401367,-15.360243797302246
0,532570,-29.536375045776367,-34.23619842529297,1.3020161390304565,16.030256271362305
0,532570,-12.467916488647461,5.526504039764404,-2.833733081817627,8.422601699829102
0,532570,9.684431076049805,25.74941062927246,-10.87606143951416,-13.76933479309082
0,532570,-9.94686508178711,3.4859495162963867,11.832207679748535,-5.120960235595703
0,532570,11.009193420410156,-11.953474998474121,14.650226593017578,2.7974939346313477
0,532571,2.8319427967071533,-17.58700942993164,-23.809892654418945,10.098179817199707
0,532571,-28.839069366455078,-4.784094333648682,-2.556627035140991,9.106440544128418
0,532571,19.539445877075195,21.93838119506836,28.651350021362305,-2.152515411376953
0,532571,29.39072608947754,14.249030113220215,-15.48990249633789,-3.7734882831573486
0,532571,-17.797517776489258,-9.690890312194824,-22.43111228942871,-21.449071884155273
0,532571,-6.377769470214844,-19.094358444213867,16.83614158630371,1.9337265491485596
0,532572,-2.0480406284332275,-4.892182350158691,-6.96694278717041,25.949344635009766
0,532572,-5.360942840576172,5.85981559753418,-14.575776100158691,-1.9867810010910034
0,532572,6.277707576751709,-7.298385143280029,30.903827667236328,0.24415086209774017
0,532572,11.74899959564209,4.657179355621338,19.334938049316406,-4.57698392868042
0,532572,3.4178035259246826,16.43341827392578,-20.679527282714844,-11.172405242919922
0,532572,-19.888036727905273,3.621567726135254,-4.814022064208984,14.596346855163574
0,532573,1.7835814952850342,4.2907209396362305,2.214611291885376,6.491421222686768
0,532573,17.542619705200195,-8.19716739654541,-0.5046509504318237,-13.388801574707031
0,532573,5.500439167022705,-21.152889251708984,13.725993156433105,-20.409088134765625
0,532573,-3.0176639556884766,17.4145565032959,-12.077862739562988,-15.640496253967285
0,532573,-8.352981567382812,10.751411437988281,-7.34567403793335,9.270317077636719
0,532573,-0.04155750572681427,-21.263389587402344,10.29050350189209,8.560784339904785
0,532574,6.784356594085693,4.139486789703369,-3.2256810665130615,5.157454013824463
0,532575,-12.28868293762207,-9.743582725524902,2.059321403503418,32.84001159667969
0,532575,-26.01365852355957,-12.721465110778809,-16.13844871520996,20.522666931152344
0,532575,8.433119773864746,18.07663345336914,-2.0465176105499268,-2.9042282104492188
0,532576,12.626117706298828,15.565370559692383,5.303198337554932,-17.799644470214844
0,532577,-11.439979553222656,-17.730276107788086,-23.330421447753906,-0.31278011202812195
0,532578,10.463977813720703,-3.448397636413574,-29.926828384399414,67.96996307373047
0,532579,9.446009635925293,30.600215911865234,-2.1150312423706055,-3.658193826675415
0,532582,19.00897789001465,8.612648010253906,31.024505615234375,-49.84183120727539
0,532583,27.844425201416016,9.533761978149414,13.726137161254883,-1.7120141983032227
0,532586,-50.664772033691406,-27.019222259521484,25.806304931640625,-39.62027359008789
0,532587,-33.437843322753906,-42.62468719482422,-8.584637641906738,-23.784120559692383
0,532590,40.41022872924805,47.279781341552734,-3.578376293182373,-7.9587626457214355
0,532591,14.866137504577637,70.06422424316406,40.00465393066406,-20.012067794799805
0,532594,-10.97724437713623,-69.11274719238281,-29.71601104736328,4.66004753112793
0,532595,-2.6899356842041016,-60.64111328125,-14.385736465454102,17.29403305053711
0,532598,-13.450566291809082,49.093109130859375,16.679475784301758,38.195735931396484
0,532599,-33.162269592285156,-0.3229771852493286,-4.351451873779297,24.909637451171875
0,532602,2.7386832237243652,-6.359799385070801,11.916790962219238,-9.47640323638916
0,532603,24.74284553527832,-1.4706616401672363,-11.719307899475098,-10.830265998840332
0,532689,8.33029556274414,6.711798191070557,-27.692899703979492,-4.456262111663818
0,532690,18.957618713378906,27.03493881225586,6.792001247406006,3.1982715129852295
0,532690,-3.6845388412475586,-5.35732364654541,19.394479751586914,-6.279380798339844
0,532690,-12.373071670532227,-16.30160140991211,-7.691064834594727,-8.967251777648926
0,532690,22.418231964111328,-7.921030044555664,-8.041881561279297,8.19276237487793
0,532690,-7.649041175842285,2.50191330909729,18.974061965942383,6.5577073097229
0,532690,-30.78959846496582,7.822806358337402,13.7376708984375,-16.355419158935547
0,532691,19.064550399780273,2.8969838619232178,-14.715426445007324,-31.324317932128906
0,532691,11.583537101745605,-30.32973289489746,-7.118105888366699,1.7362172603607178
0,532691,-29.630868911743164,-5.400350570678711,4.649490833282471,27.2342529296875
0,532691,2.5579214096069336,31.843242645263672,3.2201836109161377,12.628933906555176
0,532691,23.50823211669922,-14.630663871765137,-9.992570877075195,9.337737083435059
0,532691,-14.94417953491211,-12.444847106933594,-28.534255981445312,10.672048568725586
0,532692,-17.47587776184082,12.35286808013916,10.550317764282227,9.799359321594238
0,532692,22.415250778198242,4.288268566131592,17.795886993408203,0.1291510909795761
0,532692,11.14310073852539,2.185173749923706,8.0889310836792,-26.066295623779297
0,532692,-12.62389087677002,-23.08758544921875,-4.953151226043701,-17.955005645751953
0,532692,-7.949796199798584,-6.4543561935424805,-7.956068992614746,1.3165044784545898
0,532692,8.177255630493164,37.92654800415039,18.91114044189453,4.75853157043457
0,532693,5.3770880699157715,7.115164756774902,-2.0562753677368164,4.723574161529541
0,532693,-11.278865814208984,-24.172531127929688,2.692748546600342,-6.291110038757324
0,532693,17.34229850769043,3.712897539138794,0.5597962737083435,-6.49352502822876
0,532693,5.7437567710876465,-1.8823473453521729,-18.184904098510742,15.675657272338867
0,532693,-28.212949752807617,-10.655061721801758,-6.870765209197998,25.14472007751465
0,532693,6.309472560882568,17.238393783569336,1.570202350616455,-7.160566329956055
0,532694,22.987329483032227,20.186771392822266,6.607860565185547,-13.282883644104004
0,532694,-4.532173156738281,15.774724960327148,-0.9929265379905701,-0.05883615463972092
0,532694,-25.537599563598633,-14.158305168151855,9.061832427978516,-3.8299431800842285
0,532694,-2.360792636871338,-34.26758575439453,16.862611770629883,8.568448066711426
0,532694,22.316984176635742,17.932960510253906,-6.869406700134277,4.809635162353516
0,532695,-15.688385009765625,14.1077299118042,-20.901521682739258,-9.405896186828613
0,532695,-17.554931640625,-48.617279052734375,-21.544137954711914,1.509915828704834
0,532695,3.2322094440460205,-14.401202201843262,2.298623561859131,15.708115577697754
0,532695,6.9444260597229,38.33829879760742,23.210784912109375,-9.00290298461914
0,532695,23.765254974365234,10.430153846740723,9.44318675994873,-20.155765533447266
0,532695,-4.241879940032959,-10.346663475036621,-5.552322864532471,10.491033554077148
0,532696,-26.016923904418945,1.6133930683135986,3.965196371078491,3.0767602920532227
0,532696,20.027647018432617,15.657262802124023,7.09949254989624,-1.1135462522506714
0,532696,33.70286560058594,10.554256439208984,-17.433425903320312,5.992870330810547
0,532696,-20.24875831604004,-3.72080659866333,-12.67496109008789,1.4536521434783936
0,532696,-15.065338134765625,-9.905245780944824,16.725927352905273,20.01968765258789
0,532696,20.126083374023438,-7.79034948348999,1.949011206626892,2.921698570251465
0,532697,-15.1510009765625,1.0332350730895996,-26.480342864990234,-21.044706344604492
0,532698,-13.173469543457031,9.994941711425781,5.874136447906494,-5.521235466003418
0,532698,22.141477584838867,1.082716464996338,34.10441589355469,-3.0052146911621094
0,532698,-9.263988494873047,-22.97968292236328,-0.8660855293273926,1.3528238534927368
0,532698,-28.111982345581055,8.396549224853516,1.474913477897644,-1.183026909828186
0,532700,17.989545822143555,11.122664451599121,-8.637531280517578,-18.695049285888672
0,532702,23.820693969726562,-21.789216995239258,-12.041842460632324,-6.561999320983887
0,532704,-7.806607246398926,-2.4065825939178467,24.21712875366211,5.976515293121338
0,532706,7.189549446105957,10.173094749450684,-21.748823165893555,-11.29086685180664
0,532708,-5.6591596603393555,4.070719242095947,-9.98405933380127,7.167214870452881
0,532710,-3.4535515308380127,8.929315567016602,8.045465469360352,51.92980194091797
0,532712,16.78795051574707,2.6302905082702637,-10.2059326171875,11.327669143676758
0,532714,-0.9214710593223572,-4.233376979827881,46.031829833984375,-76.3879623413086
0,532716,-38.852561950683594,-19.126548767089844,27.230182647705078,-65.46131134033203
0,532718,-28.16768455505371,-19.295284271240234,-77.33308410644531,65.6273193359375
0,532720,60.67781066894531,40.86821365356445,-75.41607666015625,147.51708984375
0,532723,29.259836196899414,15.676332473754883,50.32727813720703,-1.6571980714797974
0,532724,-48.80763626098633,-47.97064971923828,71.14306640625,-123.52301788330078
0,532727,-13.50451946258545,5.398221015930176,-1.7302215099334717,-32.168087005615234
0,532728,12.465851783752441,35.31409454345703,-8.74188232421875,6.908200740814209
0,532731,-6.63773250579834,9.197946548461914,6.154521942138672,16.387601852416992
0,532732,16.59471893310547,3.5688304901123047,-2.2195301055908203,14.207328796386719
0,532829,12.978452682495117,-29.673358917236328,-7.900526523590088,-17.992137908935547
0,532829,-23.985185623168945,-25.732988357543945,-10.871294975280762,14.089287757873535
0,532829,0.6284498572349548,30.336549758911133,-13.748054504394531,-4.242271900177002
0,532829,9.966350555419922,10.62949275970459,22.89218521118164,-16.887874603271484
0,532830,-13.488982200622559,-6.870904922485352,16.322940826416016,26.505048751831055
0,532830,6.0842485427856445,12.21168041229248,-8.4580717086792,3.3335423469543457
0,532830,7.619565010070801,-13.326817512512207,-5.552193641662598,-12.807402610778809
0,532830,-18.54642677307129,-7.744452476501465,-24.03561019897461,11.022873878479004
0,532830,5.532796382904053,5.025017261505127,-6.874245643615723,7.5406413078308105
0,532830,21.343341827392578,-8.139935493469238,8.693779945373535,-3.1930978298187256
0,532831,3.1748759746551514,1.0784035921096802,-6.724533557891846,2.3614907264709473
0,532831,-20.463150024414062,-2.1474390029907227,-5.165739059448242,7.357606887817383
0,532831,-26.888813018798828,-21.747173309326172,5.9547529220581055,-14.673406600952148
0,532831,2.810401678085327,-7.432905197143555,-5.073971748352051,-12.290614128112793
0,532831,18.997182846069336,10.437480926513672,-6.176488876342773,3.4953927993774414
0,532832,-4.189788818359375,4.67627477645874,25.767986297607422,4.900577545166016
0,532832,9.448952674865723,10.240196228027344,11.601984977722168,16.697633743286133
0,532832,26.849435806274414,10.69478988647461,-22.09390640258789,6.012515068054199
0,532832,-19.870975494384766,-8.144875526428223,-8.656045913696289,11.878767967224121
0,532832,-11.022171020507812,4.022896766662598,20.860620498657227,16.100364685058594
0,532832,28.239654541015625,19.032756805419922,21.284461975097656,-16.016029357910156
0,532833,2.2560760974884033,-9.01772689819336,-24.173416137695312,-18.28816032409668
0,532833,-14.627944946289062,-6.02977180480957,-23.143272399902344,-2.504105806350708
0,532833,4.961236000061035,9.663053512573242,24.341087341308594,9.308658599853516
0,532833,-0.32628440856933594,3.1698930263519287,23.80187225341797,6.198375701904297
0,532833,-0.13282527029514313,-0.17643234133720398,-11.603890419006348,-4.451071739196777
0,532833,5.434813499450684,-3.2205734252929688,-18.308637619018555,-20.557973861694336
0,532834,-19.238059997558594,0.5528505444526672,-3.580568790435791,-16.177579879760742
0,532834,-11.286709785461426,-14.304755210876465,1.320969581604004,13.908166885375977
0,532834,13.116641998291016,-14.210489273071289,23.86932373046875,9.966365814208984
0,532834,12.256795883178711,13.064196586608887,-3.804083824157715,-5.081470489501953
0,532834,-16.44540023803711,-5.061810493469238,-22.816862106323242,-0.1762564331293106
0,532835,0.23014116287231445,-1.2810479402542114,30.07740020751953,-0.12984490394592285
0,532835,25.284805297851562,26.502328872680664,4.660006999969482,-4.824780464172363
0,532835,-19.113435745239258,8.51854419708252,-3.781388521194458,3.7476065158843994
0,532835,-6.7395405769348145,-15.535764694213867,-1.8972890377044678,-6.6318888664245605
0,532835,11.914397239685059,-18.607900619506836,-26.01946449279785,-8.873428344726562
0,532835,-12.276124000549316,-3.05641508102417,19.596731185913086,16.974332809448242
0,532835,-1.962683081626892,22.568403244018555,7.699199676513672,18.738384246826172
0,532836,11.832784652709961,18.413026809692383,-15.507940292358398,-2.4748916625976562
0,532836,-7.0444793701171875,-21.845062255859375,-0.9818684458732605,-27.308277130126953
0,532836,-23.307146072387695,-16.321239471435547,-10.824889183044434,-11.748011589050293
0,532836,8.21358585357666,13.044393539428711,-2.1993496417999268,23.49634552001953
0,532836,34.147830963134766,-10.311203002929688,7.210488319396973,-17.87074851989746
0,532836,-7.92898416519165,-40.50784683227539,1.7980974912643433,-18.829870223999023
0,532837,-48.46835708618164,5.0490803718566895,-2.2068495750427246,15.006743431091309
0,532837,14.612671852111816,44.03001403808594,-7.130953788757324,-13.39258098602295
0,532837,36.07423400878906,0.5966578722000122,-6.196985244750977,18.913484573364258
0,532838,-4.109394550323486,5.3469390869140625,-4.050965785980225,31.150827407836914
0,532838,-6.325529098510742,15.21074104309082,3.8956212997436523,-7.727080821990967
0,532839,-8.658949851989746,-24.50605010986328,13.632572174072266,1.3758423328399658
0,532839,6.399896144866943,-2.8694050312042236,5.007822036743164,15.55272102355957
0,532839,4.312185287475586,18.787017822265625,-8.267826080322266,-5.542042255401611
0,532840,4.481133937835693,17.943225860595703,-2.149028778076172,-22.516855239868164
0,532842,3.192760944366455,-6.657174587249756,18.001733779907227,-15.462080001831055
0,532844,2.7105119228363037,-30.573486328125,-5.662833213806152,53.90234375
0,532846,5.5884928703308105,1.2274837493896484,-20.164371490478516,66.08602905273438
0,532848,-29.316741943359375,-9.427312850952148,7.534684658050537,-93.1604232788086
0,532850,-26.96473503112793,-12.929130554199219,10.803982734680176,-83.36878204345703
0,532852,15.921690940856934,20.153425216674805,-0.9836393594741821,60.37590789794922
0,532854,33.60540008544922,0.9112034440040588,-10.464668273925781,47.3276481628418
0,532857,12.761139869689941,-2.4940788745880127,33.1599006652832,-46.70723342895508
0,532858,-17.964141845703125,7.294515609741211,5.389076232910156,-45.96486282348633
0,532861,-12.19710636138916,-14.120166778564453,-71.33638763427734,79.43712615966797
0,532862,14.475093841552734,-10.194572448730469,-5.5237579345703125,74.84925079345703
0,532865,-1.1506000757217407,10.619311332702637,68.37103271484375,-69.93244934082031
0,532866,-7.3137030601501465,32.51476287841797,7.737232208251953,-46.05052185058594
0,532869,3.5313611030578613,-0.015634670853614807,-21.979875564575195,29.947887420654297
0,532870,-5.437413692474365,-9.855782508850098,27.240507125854492,-29.04737663269043
0,532873,3.0297834873199463,11.841113090515137,-7.319331169128418,-20.512210845947266
0,532874,-0.3116753101348877,-33.628902435302734,-22.33846092224121,27.394207000732422
0,532877,-6.677262306213379,-32.39149856567383,-19.28375816345215,16.32356071472168
0,532984,-3.480785369873047,32.49552917480469,-18.999984741210938,-12.862263679504395
0,532984,4.297459125518799,44.54051208496094,37.412349700927734,-5.9271039962768555
0,532984,-0.19614404439926147,-15.058324813842773,31.585704803466797,6.22980260848999
0,532985,-0.4007231295108795,-16.757362365722656,-17.802738189697266,-10.784323692321777
0,532985,10.290299415588379,0.34823259711265564,-21.39540672302246,15.313404083251953
0,532985,-16.443340301513672,-16.173006057739258,-5.681792259216309,9.588844299316406
0,532985,-5.3775858879089355,1.1491206884384155,-1.8154252767562866,1.0142418146133423
0,532985,34.48314666748047,18.095905303955078,1.3440614938735962,12.3568115234375
0,532985,-3.8927223682403564,1.9041401147842407,7.752536296844482,-11.859368324279785
0,532986,-33.25047302246094,-8.617816925048828,13.976469993591309,-4.270430088043213
0,532986,18.816633224487305,9.446914672851562,-2.161846160888672,-0.3045113980770111
0,532986,6.022530555725098,1.057669758796692,-4.199515342712402,-7.746148586273193
0,532986,-25.16933250427246,-9.056645393371582,9.705888748168945,0.721161961555481
0,532986,19.703174591064453,9.617328643798828,-24.214080810546875,-5.041530609130859
0,532986,14.214052200317383,8.299864768981934,-17.956424713134766,7.601205825805664
0,532987,-18.849342346191406,-24.0472412109375,28.947811126708984,20.49648666381836
0,532987,11.330255508422852,-16.261621475219727,13.353118896484375,1.1907819509506226
0,532987,24.074766159057617,21.972270965576172,-12.777329444885254,-6.895736217498779
0,532987,-32.895362854003906,9.683120727539062,-10.01696491241455,-7.868333339691162
0,532987,-24.49463653564453,-0.5724238753318787,7.630082130432129,-2.213758707046509
0,532987,25.46509552001953,10.128525733947754,3.974567413330078,8.356587409973145
0,532988,-0.7643331289291382,-2.880615711212158,-9.23710823059082,-20.672706604003906
0,532988,-11.693148612976074,-21.387968063354492,2.122645854949951,-4.914391040802002
0,532988,1.0476024150848389,-10.26846694946289,8.616621971130371,27.740814208984375
0,532988,9.733943939208984,23.333566665649414,9.28567123413086,-0.7180529236793518
0,532988,18.581735610961914,13.758866310119629,-0.4459550082683563,-10.156421661376953
0,532989,-4.675599575042725,-21.18561363220215,-20.878965377807617,4.0370707511901855
0,532989,-2.1297638416290283,1.9326320886611938,-0.8366051316261292,13.025517463684082
0,532989,1.3154375553131104,17.840639114379883,11.484689712524414,-1.4428004026412964
0,532989,-9.422449111938477,-15.411763191223145,-8.620960235595703,-17.26233673095703
0,532989,-1.252895712852478,-24.66510772705078,2.565950393676758,11.409685134887695
0,532989,0.2904355227947235,8.707513809204102,22.00655174255371,13.000452995300293
0,532989,11.340653419494629,26.270742416381836,-1.9722847938537598,-24.60385513305664
0,532990,-4.408608913421631,-10.002013206481934,-19.995168685913086,-13.411872863769531
0,532990,-9.029853820800781,-18.81769371032715,-3.934152603149414,-9.375517845153809
0,532990,-1.3592580556869507,13.764167785644531,-4.395076274871826,-5.569108009338379
0,532990,-21.946908950805664,16.34469223022461,7.436188220977783,25.883920669555664
0,532990,5.907070636749268,-0.12922270596027374,3.1773650646209717,8.39702033996582
0,532990,38.438331604003906,-7.090623378753662,-5.294252395629883,-11.308694839477539
0,532991,0.606361448764801,-15.91751480102539,12.321833610534668,-5.524476528167725
0,532991,-20.427167892456055,0.9940294027328491,5.39180326461792,1.5815767049789429
0,532991,2.2944717407226562,4.823371410369873,-4.631382465362549,-3.9688987731933594
0,532991,-7.350545406341553,-2.9879956245422363,0.8540623188018799,5.221789360046387
0,532991,-13.317763328552246,12.917485237121582,6.8245320320129395,27.877044677734375
0,532992,31.281225204467773,-6.361371994018555,-12.87205696105957,-7.596380710601807
0,532992,-0.309271901845932,1.8606045246124268,-2.8566226959228516,-18.86005401611328
0,532992,-36.13043975830078,-0.2839348316192627,6.6109819412231445,5.446100234985352
0,532992,30.824668884277344,-29.618511199951172,-11.463396072387695,5.416575908660889
0,532992,-8.290363311767578,14.28652572631836,19.912216186523438,1.9862685203552246
0,532992,-29.47600746154785,24.956398010253906,7.928792953491211,-2.0147182941436768
0,532993,38.91351318359375,-0.701697587966919,-17.390487670898438,1.5197596549987793
0,532993,0.5481619834899902,-2.290308713912964,-17.428485870361328,-8.021716117858887
0,532993,-18.525236129760742,-4.694576263427734,-4.714009761810303,-15.189004898071289
0,532993,25.699237823486328,-2.813410997390747,22.881193161010742,-6.836396217346191
0,532994,-7.282695770263672,-7.817465782165527,-13.92551326751709,16.671175003051758
0,532994,-23.30541229248047,-9.46747875213623,-25.34004020690918,27.429889678955078
0,532995,16.06683349609375,-4.08040714263916,-1.598474144935608,-5.843961238861084
0,532995,6.156305313110352,-7.536712169647217,21.375097274780273,-8.939046859741211
0,532995,-14.172653198242188,5.939950942993164,22.464519500732422,10.281696319580078
0,532996,14.8973388671875,46.48654556274414,-11.059836387634277,6.741841793060303
0,532998,24.833892822265625,26.924129486083984,-10.775259971618652,-7.543086051940918
0,533000,-20.531824111938477,-43.138587951660156,1.9730606079101562,3.3043723106384277
0,533002,-15.976067543029785,-43.927978515625,7.028360843658447,-2.049264907836914
0,533004,7.9290242195129395,14.68422794342041,14.442959785461426,-16.714038848876953
0,533006,-4.0439300537109375,36.395484924316406,-1.8824571371078491,11.695786476135254
0,533008,-11.047942161560059,9.607551574707031,-12.511540412902832,1.02991783618927
0,533010,2.6326427459716797,-15.309747695922852,14.389805793762207,-5.6912336349487305
0,533012,23.204431533813477,2.5634191036224365,-1.0651148557662964,-4.156932830810547
0,533014,2.7642970085144043,5.6531782150268555,-6.755743503570557,-29.384401321411133
0,533017,-21.221654891967773,-27.783287048339844,5.17595100402832,-10.410520553588867
0,533018,-2.0021400451660156,-15.166644096374512,-7.074770927429199,18.60773468017578
0,533021,8.29554557800293,10.967070579528809,1.9057989120483398,-0.2818529009819031
0,533022,-18.025968551635742,6.136377334594727,11.23653793334961,9.089211463928223
0,533025,-4.4673848152160645,5.597062110900879,4.547043323516846,20.05406379699707
0,533026,12.235176086425781,2.8775081634521484,-24.47844696044922,0.3436722159385681
0,533029,2.6764180660247803,-13.384564399719238,-5.423908710479736,10.277716636657715
0,533030,3.559922933578491,-0.31988629698753357,19.743789672851562,-0.9059950709342957
0,533033,-5.650331020355225,19.561513900756836,-5.289996147155762,-1.7609015703201294
0,533034,-3.6282639503479004,3.3137094974517822,-4.92862606048584,13.406316757202148
0,533153,22.881072998046875,-6.399788856506348,-1.7888134717941284,-19.793922424316406
0,533153,26.23931121826172,-3.4048492908477783,-5.834267616271973,-23.03685760498047
0,533153,-13.799171447753906,-6.995352268218994,-5.667392253875732,4.776976108551025
0,533153,-18.558128356933594,-0.519140899181366,-7.961010932922363,4.237804412841797
0,533154,-8.572866439819336,16.17494010925293,12.299298286437988,-1.8775264024734497
0,533154,6.895285129547119,18.11163902282715,26.403989791870117,-19.124338150024414
0,533154,11.914543151855469,-24.973281860351562,-10.485454559326172,1.7403545379638672
0,533154,-15.069687843322754,-26.681297302246094,-10.293519973754883,31.708288192749023
0,533154,6.637225151062012,17.72552490234375,14.567865371704102,-6.019067287445068
0,533154,-0.1652485728263855,2.848879814147949,-17.59282112121582,1.548766016960144
0,533155,-25.871614456176758,7.341378211975098,5.09118127822876,12.849602699279785
0,533155,6.81596040725708,0.1406448632478714,22.804414749145508,-14.7703218460083
0,533155,5.8750762939453125,-21.39114761352539,-22.10315704345703,14.50644588470459
0,533155,5.8481597900390625,12.391654014587402,-11.868243217468262,9.18192195892334
0,533155,10.135430335998535,6.507075786590576,23.078086853027344,-12.43539810180664
0,533155,-12.611698150634766,-3.716601848602295,14.050765991210938,-11.972498893737793
0,533156,10.840749740600586,25.21643829345703,-18.083810806274414,-24.53218650817871
0,533156,8.321892738342285,2.2574315071105957,-9.79350757598877,17.279714584350586
0,533156,-17.588777542114258,-29.65467643737793,11.328665733337402,17.834259033203125
0,533156,3.1918039321899414,4.399104118347168,-7.11226749420166,-19.168367385864258
0,533156,-7.237300872802734,10.01557731628418,-7.291938781738281,5.784093379974365
0,533157,-12.845895767211914,-8.329439163208008,7.120411396026611,19.523509979248047
0,533157,15.006754875183105,11.921234130859375,2.872830390930176,-9.333599090576172
0,533157,10.366215705871582,1.3076021671295166,14.051009178161621,-32.14142990112305
0,533157,-5.072363376617432,-22.72748565673828,-11.347403526306152,2.997675895690918
0,533157,-16.476343154907227,-6.509132385253906,-36.88636779785156,19.10039520263672
0,533157,-15.766107559204102,-0.5497815608978271,22.105308532714844,1.5846034288406372
0,533158,16.11461067199707,2.755281925201416,41.57098388671875,-2.9518496990203857
0,533158,31.518781661987305,8.127368927001953,-18.713481903076172,-12.215867042541504
0,533158,-13.089666366577148,-5.708526134490967,-26.187192916870117,1.8876880407333374
0,533158,-22.420228958129883,-5.308472633361816,10.060879707336426,15.982345581054688
0,533158,6.15303373336792,0.6419041752815247,7.162956237792969,6.306362152099609
0,533158,-2.7222440242767334,3.202666759490967,-13.173417091369629,-6.094091415405273
0,533159,1.2268706560134888,25.928430557250977,1.0427807569503784,-7.366393566131592
0,533159,6.4374918937683105,9.51528549194336,7.4776997566223145,4.245502471923828
0,533159,11.239568710327148,-18.995380401611328,1.6531486511230469,11.721392631530762
0,533159,19.9024715423584,7.853993892669678,6.088159084320068,-11.893638610839844
0,533159,-15.420350074768066,0.015350518748164177,-12.943025588989258,-16.081579208374023
0,533159,-22.07126235961914,-20.91230010986328,-9.116901397705078,12.007694244384766
0,533160,1.3529672622680664,-7.876175403594971,2.3734753131866455,10.39065170288086
0,533160,3.5286245346069336,10.541925430297852,9.486886024475098,6.385912895202637
0,533160,20.77920913696289,14.172309875488281,13.609842300415039,-17.931114196777344
0,533160,0.10214592516422272,-12.620579719543457,-2.2411177158355713,-22.76725959777832
0,533160,-10.640925407409668,-3.9245622158050537,2.3161654472351074,23.384925842285156
0,533160,20.03361701965332,12.629865646362305,-0.38874974846839905,33.551368713378906
0,533161,-9.093796730041504,7.699023246765137,-3.765047550201416,-0.6961693167686462
0,533161,-29.67631721496582,9.35821533203125,8.412734031677246,-21.287521362304688
0,533161,23.741737365722656,-4.82571268081665,-2.5353095531463623,1.8883402347564697
0,533161,35.33713150024414,-15.009363174438477,-9.523945808410645,-2.303067922592163
0,533161,-26.618040084838867,-5.122934341430664,6.387140274047852,-15.923479080200195
0,533161,-33.84128952026367,15.440258979797363,1.63313627243042,12.007600784301758
0,533162,-0.6275182366371155,5.0852203369140625,-1.9690852165222168,13.65267276763916
0,533162,9.357637405395508,-18.71873664855957,7.062019348144531,-28.178817749023438
0,533162,8.892860412597656,-23.886205673217773,-16.414432525634766,-3.835923671722412
0,533162,5.646451950073242,-3.4629321098327637,-11.074921607971191,22.225561141967773
0,533162,-2.3332207202911377,16.296058654785156,2.0497756004333496,-10.90876579284668
0,533162,-23.309951782226562,24.056068420410156,1.6568641662597656,-8.374232292175293
0,533163,4.973979473114014,10.135171890258789,6.2770843505859375,-4.540968418121338
0,533163,21.035503387451172,-21.13484001159668,0.5561316609382629,15.482160568237305
0,533164,-19.847232818603516,-5.693556308746338,3.3705832958221436,-0.09636149555444717
0,533164,5.073338508605957,-0.9940183758735657,-6.1485676765441895,-25.777740478515625
0,533164,31.18356704711914,4.837939739227295,-6.96928071975708,5.336995601654053
0,533165,-23.727487564086914,5.380919933319092,-10.857868194580078,21.13669204711914
0,533165,-34.88836669921875,-9.908172607421875,8.096863746643066,16.83247184753418
0,533165,29.546945571899414,-0.8058657050132751,18.252412796020508,-16.855640411376953
0,533166,19.551015853881836,-3.6368134021759033,-0.9654362201690674,-11.913000106811523
0,533168,-25.6026611328125,13.323859214782715,-16.844484329223633,6.103377819061279
0,533170,-0.0861734077334404,7.986269474029541,1.4340687990188599,4.509347438812256
0,533172,13.840337753295898,-29.910995483398438,47.60606002807617,19.656322479248047
0,533174,-10.642728805541992,0.45505189895629883,4.302572727203369,-9.313775062561035
0,533176,14.026650428771973,36.46206283569336,-29.198806762695312,-11.400992393493652
0,533178,31.76352882385254,-5.817619323730469,-47.86442565917969,31.7626895904541
0,533180,-24.631465911865234,-17.991662979125977,-30.76396942138672,12.294182777404785
0,533182,-13.088129997253418,19.989599227905273,38.17042922973633,-17.101707458496094
0,533184,13.534636497497559,3.8130757808685303,44.951595306396484,-25.881242752075195
0,533186,-9.00615406036377,1.513939619064331,41.28732681274414,-7.205831050872803
0,533188,-5.3926215171813965,-2.7117252349853516,-8.69192886352539,36.335060119628906
0,533190,-5.035111427307129,-32.017005920410156,-58.41655731201172,-6.623425483703613
0,533192,-9.020556449890137,-6.553562164306641,-16.521772384643555,-37.86860656738281
0,533194,2.4632012844085693,0.62681645154953,35.589324951171875,4.12431001663208
0,533196,19.777942657470703,-8.079712867736816,11.541768074035645,7.36431360244751
0,533198,-5.417880535125732,12.702252388000488,-16.28314781188965,-18.258140563964844
0,533200,-15.641901969909668,27.74506187438965,9.577657699584961,-15.747357368469238
0,533203,23.2226505279541,13.85983943939209,8.99280071258545,25.5928897857666
0,533204,19.335498809814453,-28.365713119506836,-15.29195785522461,31.515928268432617
0,533207,-1.0659724473953247,-19.85392951965332,-5.909626483917236,-9.219306945800781
0,533336,-17.051998138427734,14.561468124389648,-11.403227806091309,7.296158313751221
0,533336,-13.508155822753906,8.34049129486084,-19.084716796875,19.149377822875977
0,533336,9.85511302947998,18.162580490112305,17.191268920898438,-5.284396648406982
0,533336,-7.003533840179443,9.738669395446777,10.945673942565918,0.34830141067504883
0,533337,-5.726861000061035,-20.810386657714844,-10.399163246154785,-12.330537796020508
0,533337,9.700912475585938,-5.529002666473389,18.952220916748047,-13.159337043762207
0,533337,-16.758739471435547,16.206588745117188,3.464984655380249,-2.938152551651001
0,533337,-11.468201637268066,-20.963552474975586,-23.387008666992188,-0.6309933066368103
0,533337,13.936213493347168,-33.39182662963867,16.081768035888672,-7.84877347946167
0,533338,4.004030227661133,17.28365135192871,5.719725131988525,-10.658584594726562
0,533338,9.151152610778809,14.014928817749023,-27.012989044189453,20.242542266845703
0,533338,10.278038024902344,10.653403282165527,4.655848026275635,-6.80874490737915
0,533338,-11.811387062072754,13.4093017578125,21.26482582092285,-21.16543197631836
0,533338,-2.149656057357788,-30.310300827026367,3.0117764472961426,19.342914581298828
0,533338,13.708112716674805,7.99544095993042,-7.813066482543945,4.287276744842529
0,533339,-2.7909650802612305,32.62165832519531,-18.60857391357422,-4.715335845947266
0,533339,-16.93686294555664,-30.122716903686523,4.483452320098877,19.980871200561523
0,533339,-0.24180249869823456,-7.741466522216797,28.87537384033203,5.517353057861328
0,533339,4.656822204589844,27.968433380126953,-11.172493934631348,-21.80026626586914
0,533339,9.244136810302734,-19.974498748779297,-24.043397903442383,-12.273720741271973
0,533339,16.453798294067383,-11.768306732177734,15.621040344238281,0.04486929625272751
0,533340,-21.43817138671875,22.434429168701172,9.772832870483398,-1.8281614780426025
0,533340,-16.403898239135742,-6.779721736907959,-13.439332008361816,7.07146692276001
0,533340,23.94812774658203,-10.614602088928223,5.692771911621094,19.516098022460938
0,533340,13.574485778808594,1.3707612752914429,7.633702278137207,3.7847044467926025
0,533340,-16.843914031982422,-5.368393898010254,-7.694347381591797,-19.858869552612305
0,533340,-24.785547256469727,4.354186534881592,6.527251720428467,9.736592292785645
0,533341,10.121018409729004,18.804893493652344,15.121129989624023,11.817567825317383
0,533341,17.20364761352539,-2.4031951427459717,-12.03670597076416,-36.21226119995117
0,533341,-6.9772629737854,-28.545061111450195,-17.87422752380371,1.2941560745239258
0,533341,-6.050657749176025,-6.622704029083252,2.8229563236236572,44.37461471557617
0,533341,-3.266946315765381,9.777488708496094,3.429950475692749,-14.2821044921875
0,533342,8.189408302307129,10.01539134979248,-0.4565427005290985,-26.471893310546875
0,533342,-9.385379791259766,6.114186763763428,2.1562893390655518,20.04146957397461
0,533342,-0.49005648493766785,-9.609137535095215,-2.92336106300354,-3.984206199645996
0,533342,37.22305679321289,12.379130363464355,-12.395984649658203,-0.4532221555709839
0,533342,2.4694390296936035,11.411235809326172,13.84073543548584,27.47031593322754
0,533342,-26.007152557373047,-14.08477783203125,22.92906951904297,-12.10297679901123
0,533342,-4.473937511444092,8.95557689666748,-15.60066032409668,-13.31405258178711
0,533343,15.060742378234863,5.111597537994385,-15.48115348815918,1.894373893737793
0,533343,-7.859935283660889,-27.598012924194336,10.503376960754395,-6.473222732543945
0,533343,-16.634889602661133,0.9025547504425049,-0.1564655900001526,9.44374942779541
0,533343,14.071060180664062,49.71220779418945,-4.747071743011475,5.946503639221191
0,533343,5.777022838592529,5.527057647705078,4.049152374267578,-26.214786529541016
0,533343,-21.7219295501709,-23.28140640258789,14.356239318847656,-0.4603174924850464
0,533344,-0.05882340297102928,-6.5560479164123535,5.839100360870361,21.157312393188477
0,533344,9.49953842163086,-29.771873474121094,-23.559568405151367,-11.531159400939941
0,533344,-13.990216255187988,11.249894142150879,-2.7371373176574707,3.8552300930023193
0,533344,7.386497974395752,24.660972595214844,6.098747730255127,-1.6842910051345825
0,533344,26.68316650390625,-22.700244903564453,0.7592313885688782,-11.433185577392578
0,533345,-6.085558891296387,-13.307753562927246,7.3092942237854,16.171018600463867
0,533345,-16.02410125732422,7.034353256225586,3.0396950244903564,7.9822468757629395
0,533345,9.055866241455078,8.640960693359375,-7.9024152755737305,-17.74297332763672
0,533345,9.243734359741211,-8.035236358642578,-20.5777530670166,-20.789365768432617
0,533345,-5.0074663162231445,-20.872581481933594,13.986084938049316,26.039806365966797
0,533345,-26.072872161865234,7.105803489685059,28.539688110351562,18.746625900268555
0,533346,18.644033432006836,33.11396026611328,-31.393251419067383,-26.23504638671875
0,533346,35.492637634277344,2.1239845752716064,-20.398456573486328,-9.885453224182129
0,533346,-59.18880844116211,-21.52102279663086,39.902671813964844,18.814516067504883
0,533346,-1.1462599039077759,3.038020610809326,-13.881157875061035,10.292437553405762
0,533346,50.10813903808594,-2.8194351196289062,-37.37459182739258,-15.373494148254395
0,533346,-30.715049743652344,-0.24948467314243317,35.04721450805664,-1.51898992061615
0,533347,-1.5342857837677002,26.853355407714844,11.974669456481934,6.840882301330566
0,533347,11.312300682067871,-14.981612205505371,-22.237375259399414,1.4510893821716309
0,533347,-13.668333053588867,-8.439725875854492,20.067846298217773,-0.5501754283905029
0,533348,-0.06714155524969101,32.05558395385742,27.302135467529297,-7.617013931274414
0,533348,10.952033042907715,-12.671979904174805,-12.199772834777832,-0.9841758608818054
0,533349,9.346714973449707,-22.511648178100586,-27.365129470825195,12.982233047485352
0,533349,-24.801774978637695,15.647815704345703,9.447169303894043,13.738808631896973
0,533349,11.009271621704102,16.88941192626953,15.456808090209961,-2.432363748550415
0,533349,28.31319808959961,0.6835158467292786,-12.171868324279785,-6.850628852844238
0,533350,-29.901206970214844,-12.154717445373535,-18.986202239990234,-1.2515201568603516
0,533352,-5.704200744628906,-18.773563385009766,-6.6700849533081055,-0.37415120005607605
0,533354,19.80975341796875,-1.432450771331787,11.167859077453613,-11.491508483886719
0,533356,6.273784160614014,15.883268356323242,5.931683540344238,15.909305572509766
0,533358,7.10966157913208,-2.349289655685425,-8.59196949005127,14.34012222290039
0,533360,-2.541698694229126,-14.616011619567871,7.094177722930908,-33.47664260864258
0,533362,-20.235456466674805,3.4836478233337402,9.864544868469238,6.503868103027344
0,533364,-5.829000949859619,-6.9600019454956055,-12.995442390441895,5.1973466873168945
0,533366,4.267483234405518,-8.450799942016602,6.29605770111084,-21.200185775756836
0,533368,-26.570955276489258,27.866111755371094,8.198515892028809,29.760639190673828
0,533370,11.963642120361328,6.376280307769775,-9.817476272583008,4.5492424964904785
0,533372,30.405366897583008,-44.38285827636719,3.691215991973877,-22.706621170043945
0,533375,-15.809853553771973,2.1640384197235107,-6.774442195892334,-8.735631942749023
0,533376,-17.573808670043945,33.771644592285156,0.26527756452560425,-5.560824394226074
0,533379,10.473577499389648,0.4435097575187683,23.111431121826172,28.774871826171875
0,533380,16.000635147094727,6.8500213623046875,6.407996654510498,22.555923461914062
0,533383,-30.32491683959961,-1.1626977920532227,-14.403356552124023,-27.854665756225586
0,533384,1.7205123901367188,-6.735903739929199,-29.708824157714844,-25.102888107299805
0,533387,35.4885368347168,8.872342109680176,3.636390447616577,33.73155975341797
0,533388,3.5587289333343506,12.827556610107422,19.94639778137207,7.975190162658691
0,533391,5.368680000305176,-13.296126365661621,-32.21681594848633,-33.93033981323242
0,533392,-8.3966646194458,-11.266709327697754,13.58016300201416,0.19595418870449066
0,533532,-14.880529403686523,-11.299238204956055,31.05867576599121,18.43682289123535
0,533532,-8.709637641906738,-26.49297332763672,-20.85743522644043,17.106149673461914
0,533532,-0.002032870426774025,38.629310607910156,10.292801856994629,-14.978314399719238
0,533532,8.420122146606445,10.998103141784668,-10.67587661743164,-25.698530197143555
0,533532,6.947405815124512,-29.296850204467773,-17.57138442993164,24.80470848083496
0,533533,-18.578577041625977,8.517908096313477,33.56173324584961,20.825132369995117
0,533533,-10.614639282226562,3.534982681274414,6.861385345458984,-12.09084415435791
0,533533,12.450104713439941,5.19129753112793,-18.206010818481445,-19.277048110961914
0,533533,-7.229042053222656,16.62556266784668,13.636536598205566,-8.074457168579102
0,533533,11.7640380859375,0.7516459226608276,4.395044803619385,6.218314170837402
0,533533,5.6651740074157715,-18.393814086914062,-18.39185333251953,5.309877872467041
0,533534,-14.8945951461792,-1.573323130607605,-3.8437068462371826,8.899153709411621
0,533534,6.876949787139893,-0.9020036458969116,-10.776103019714355,-10.685433387756348
0,533534,29.17896270751953,15.36769962310791,-1.7054544687271118,-5.387847900390625
0,533534,7.179072380065918,10.678922653198242,22.953266143798828,-4.820471286773682
0,533534,-15.772211074829102,-30.59598159790039,-7.2788262367248535,-19.8247013092041
0,533534,0.4080847203731537,-13.999913215637207,-22.975509643554688,12.748662948608398
0,533535,-27.533538818359375,3.901679515838623,26.078256607055664,19.36840057373047
0,533535,11.390769958496094,20.324745178222656,16.553218841552734,-6.996809482574463
0,533535,42.28265380859375,-0.4091091454029083,-20.38637924194336,-4.107871055603027
0,533535,-36.77128601074219,-19.16560173034668,11.68730640411377,21.640697479248047
0,533535,-23.39490509033203,29.132375717163086,9.234037399291992,8.939311027526855
0,533535,32.368751525878906,6.46065092086792,-24.568822860717773,-23.517240524291992
0,533536,-5.5532660484313965,-19.482816696166992,-10.902229309082031,1.69078528881073
0,533536,-28.044485092163086,-0.5147243738174438,18.22135353088379,17.812036514282227
0,533536,17.945650100708008,-9.487651824951172,12.477197647094727,-5.405618190765381
0,533536,8.469742774963379,-2.6202826499938965,-14.585357666015625,5.518887519836426
0,533536,-7.152471542358398,3.307100534439087,-1.907196044921875,1.5995770692825317
0,533537,16.926834106445312,2.916534423828125,-4.670966148376465,-4.1661577224731445
0,533537,-3.5792720317840576,15.151695251464844,-15.217894554138184,22.71397590637207
0,533537,-19.86354637145996,-0.1971915364265442,16.5494441986084,-16.317049026489258
0,533537,2.1513383388519287,-19.65481948852539,8.740009307861328,-24.925552368164062
0,533537,7.697931289672852,9.045191764831543,-20.949220657348633,16.603952407836914
0,533537,-6.668160915374756,11.368997573852539,5.768225193023682,-5.813984394073486
0,533538,-3.7850992679595947,0.8124449849128723,31.280080795288086,-11.512022018432617
0,533538,8.388917922973633,-1.7679848670959473,-9.432269096374512,6.764103412628174
0,533538,1.014646291732788,-9.320178031921387,-19.9317684173584,-2.8504364490509033
0,533538,2.4465107917785645,13.573286056518555,19.922775268554688,-9.367476463317871
0,533538,7.125608444213867,-2.3552985191345215,5.2283220291137695,-9.819055557250977
0,533538,-2.5464258193969727,-24.628246307373047,-12.932145118713379,3.350954532623291
0,533539,-7.281458854675293,-0.5485069751739502,-6.199626445770264,20.247129440307617
0,533539,-18.35868263244629,12.491046905517578,-19.987699508666992,2.5748918056488037
0,533539,8.508540153503418,0.013322178274393082,-2.9395694732666016,-19.455455780029297
0,533539,29.27752685546875,-6.6726789474487305,19.12897491455078,-13.926366806030273
0,533539,-10.309247016906738,3.206157684326172,-6.224564075469971,17.23328399658203
0,533539,-24.032520294189453,20.112096786499023,0.11930087208747864,24.74465560913086
0,533540,13.769923210144043,-2.1215097904205322,21.133560180664062,-14.007735252380371
0,533540,22.01890754699707,-36.395145416259766,-8.222086906433105,-7.423354625701904
0,533540,-18.550039291381836,19.28325653076172,11.377878189086914,30.12420082092285
0,533540,-13.67632007598877,42.600791931152344,18.459726333618164,2.279148817062378
0,533540,18.68162727355957,-29.987422943115234,-16.930500030517578,-19.096044540405273
0,533540,14.232429504394531,-12.817865371704102,5.464971542358398,7.415319442749023
0,533541,-22.013246536254883,30.930143356323242,11.491128921508789,3.6045947074890137
0,533541,-8.447164535522461,-25.73060417175293,-14.339146614074707,-9.783111572265625
0,533541,26.09635353088379,-31.029518127441406,-7.317746162414551,10.602081298828125
0,533541,0.35300177335739136,23.542930603027344,-5.00604772567749,-3.502546787261963
0,533541,-7.1822733879089355,10.588385581970215,-9.547750473022461,-19.869686126708984
0,533541,-2.960758686065674,-5.69690465927124,6.2998046875,-3.0846166610717773
0,533542,-28.518966674804688,9.978042602539062,0.5073904991149902,-2.580519199371338
0,533542,-27.686525344848633,-20.804933547973633,-3.21321702003479,10.167349815368652
0,533542,40.60889434814453,-13.236695289611816,7.659608840942383,-12.717484474182129
0,533542,50.143985748291016,16.556777954101562,-10.97096061706543,-18.460046768188477
0,533542,-25.75718116760254,-7.005533218383789,-26.12240219116211,27.97047233581543
0,533542,-45.359642028808594,9.128236770629883,15.819045066833496,21.06271743774414
0,533543,3.643187999725342,15.724130630493164,29.28911018371582,9.593489646911621
0,533543,40.542335510253906,1.5980851650238037,-5.465703964233398,-1.7471063137054443
0,533543,7.629257678985596,7.488428115844727,-17.983585357666016,-20.11468505859375
0,533543,-22.076335906982422,-20.843366622924805,-0.6489406228065491,7.629177570343018
0,533543,-0.7166767716407776,-6.455595970153809,1.6405861377716064,13.376121520996094
0,533543,-1.9698703289031982,18.839033126831055,2.804471015930176,-17.504384994506836
0,533545,5.3002400398254395,-3.931354522705078,8.301262855529785,-20.597326278686523
0,533545,10.602494239807129,-6.7750139236450195,-8.212440490722656,-20.39533042907715
0,533545,-26.988727569580078,-5.219700336456299,-3.4264233112335205,17.88016700744629
0,533545,-14.403983116149902,11.530061721801758,11.293828010559082,12.94670581817627
0,533545,29.42226791381836,5.528960704803467,1.1251286268234253,-31.065963745117188
0,533546,6.682724475860596,-5.569507598876953,-11.843828201293945,16.665496826171875
0,533547,-24.136674880981445,-3.301623582839966,4.507380962371826,25.225595474243164
0,533548,5.288672924041748,11.21121883392334,10.47082805633545,-9.975249290466309
0,533549,21.544862747192383,20.47515106201172,2.7592453956604004,-10.759032249450684
0,533552,-4.214216232299805,-26.336280822753906,-3.5826330184936523,22.560571670532227
0,533553,-9.878792762756348,-18.580482482910156,10.494800567626953,13.87587833404541
0,533556,15.532876014709473,24.979013442993164,-0.4298870861530304,-32.20095443725586
0,533557,-1.8077540397644043,8.95588207244873,-6.08062219619751,1.729805588722229
0,533560,-0.6699656248092651,-10.2094087600708,-6.591857433319092,33.51860046386719
0,533561,6.998423099517822,-20.20451545715332,-3.0106608867645264,9.17749309539795
0,533564,-19.717071533203125,-6.10753870010376,23.77036476135254,-30.909927368164062
0,533565,-4.542354106903076,27.78540802001953,-16.314041137695312,-24.55207633972168
0,533568,-11.66925048828125,-5.717944622039795,-7.207667827606201,16.362815856933594
0,533569,3.5058393478393555,-14.710367202758789,5.811785697937012,-15.080323219299316
0,533572,23.507648468017578,15.195962905883789,-14.464376449584961,-6.248664379119873
0,533573,-3.8533499240875244,-17.285186767578125,-2.609575033187866,41.379886627197266
0,533576,-1.2311341762542725,-23.4051513671875,1.8967782258987427,9.035663604736328
0,533577,4.243851184844971,27.739065170288086,13.176705360412598,-20.154098510742188
0,533580,-0.5990439057350159,0.8557659387588501,-10.138023376464844,-11.379697799682617
0,533582,-2.5011322498321533,-25.65401840209961,-3.399807929992676,20.979639053344727
0,533584,9.217293739318848,37.321163177490234,1.0436056852340698,-8.85887336730957
0,533586,1.1161866188049316,12.541587829589844,-14.326127052307129,-28.159948348999023
0,533588,-18.058685302734375,-12.624900817871094,29.49259376525879,15.5575532913208
0,533590,-14.622575759887695,-5.226983070373535,2.265401601791382,6.771711826324463
1,535236,-1.8310493230819702,-13.93583869934082,-11.243143081665039,10.509003639221191
1,535237,26.529767990112305,31.013917922973633,15.8631591796875,-4.347089767456055
1,535240,2.101741313934326,-6.4151153564453125,-12.945221900939941,-3.2708020210266113
1,535241,-13.606002807617188,-7.535810947418213,19.32249641418457,15.171832084655762
1,535244,8.620345115661621,19.916187286376953,-4.716734409332275,-22.653343200683594
1,535245,-4.692887783050537,-12.673048973083496,-34.46931076049805,-13.30103874206543
1,535254,5.522732734680176,5.33270263671875,37.07215118408203,21.53673553466797
1,535254,9.983834266662598,-18.88393211364746,8.447279930114746,10.928753852844238
1,535254,-3.7719247341156006,-7.3581461906433105,-25.60664176940918,-15.209428787231445
1,535254,11.759918212890625,8.554508209228516,5.858567237854004,1.690659761428833
1,535256,-21.490520477294922,-10.459498405456543,2.604713201522827,6.489763259887695
1,535258,-24.68364906311035,19.15010643005371,-17.314512252807617,0.10816393792629242
1,535260,11.661934852600098,-6.936439037322998,-16.20834732055664,0.9411514401435852
1,535262,8.265259742736816,-1.3414366245269775,9.672447204589844,-24.461702346801758
1,535264,24.30923843383789,22.79201316833496,21.980640411376953,7.255730628967285
1,535266,-17.575410842895508,-12.875985145568848,0.8020819425582886,13.380996704101562
1,535268,-26.08115005493164,-24.614112854003906,-21.427310943603516,-20.37856674194336
1,535270,20.3802490234375,-9.397321701049805,12.299701690673828,4.1719207763671875
1,535272,0.08626557886600494,9.763725280761719,6.360474586486816,2.087259531021118
1,535274,-11.032849311828613,-5.1028666496276855,-38.38718032836914,15.980682373046875
1,535276,-2.5531153678894043,-13.9663724899292,15.834219932556152,27.8924560546875
1,535296,39.79038619995117,26.234560012817383,36.05997085571289,-25.197107315063477
1,535296,29.712074279785156,20.66122055053711,2.846226692199707,-12.73537540435791
1,535297,-58.80357360839844,-15.706831932067871,-0.6349447965621948,17.706071853637695
1,535297,-15.298319816589355,8.174009323120117,-14.000118255615234,-7.001412868499756
1,535297,27.712995529174805,11.501099586486816,-7.888327598571777,-22.045238494873047
1,535297,-8.297331809997559,-8.235126495361328,-3.4279165267944336,-0.9433237910270691
1,535297,22.852033615112305,-3.3481497764587402,10.062594413757324,34.904449462890625
1,535297,2.2101516723632812,-1.7422106266021729,26.899982452392578,11.388612747192383
1,535298,-31.14011001586914,20.09833526611328,-10.262921333312988,-33.10802459716797
1,535298,16.54056739807129,24.62652015686035,-24.68694496154785,-22.739940643310547
1,535299,-5.308688163757324,-36.85234832763672,-9.303464889526367,22.4594783782959
1,535300,-30.138368606567383,-35.16051483154297,7.4339375495910645,12.78037166595459
1,535302,6.962808132171631,22.822696685791016,2.131265878677368,-27.507953643798828
1,535304,2.971989393234253,-4.902440071105957,-0.6853212118148804,-8.978521347045898
1,535306,6.889123439788818,-22.687150955200195,26.436063766479492,15.459365844726562
1,535308,-28.23067283630371,-8.84092903137207,-27.11115837097168,2.8073782920837402
1,535310,24.853870391845703,11.152557373046875,-31.66117286682129,-11.429180145263672
1,535312,45.34750747680664,30.26690673828125,31.84000015258789,20.865938186645508
1,535314,-72.2423324584961,0.6075438857078552,7.69382381439209,15.243581771850586
1,535316,16.6217041015625,4.104227066040039,-8.49202823638916,-7.9188361167907715
1,535318,86.72480010986328,17.651498794555664,-45.77558517456055,-13.5958251953125
1,535321,-31.037256240844727,-13.627164840698242,45.19886779785156,14.297510147094727
1,535322,-95.23737335205078,-39.270572662353516,71.99713134765625,23.084585189819336
1,535356,35.092777252197266,-5.594275951385498,-87.531494140625,-37.443885803222656
1,535357,98.10179901123047,45.71064758300781,7.172374725341797,5.590987205505371
1,535357,-19.278474807739258,15.971360206604004,34.370723724365234,17.259950637817383
1,535357,-37.08516311645508,-9.409411430358887,-29.200891494750977,-27.494325637817383
1,535357,2.6752071380615234,-24.442272186279297,8.794906616210938,-4.402381896972656
1,535357,-11.4010591506958,-39.59413528442383,2.317840099334717,11.02645492553711
1,535357,-19.676395416259766,25.769184112548828,17.007457733154297,5.6545610427856445
1,535358,16.359102249145508,25.628496170043945,-9.49138355255127,-12.332098007202148
1,535358,17.84577178955078,-12.448967933654785,-35.0333251953125,-6.401549339294434
1,535358,-18.892780303955078,6.214863300323486,13.840032577514648,13.253129959106445
1,535358,-23.31209945678711,-0.2933727204799652,21.361087799072266,5.740174770355225
1,535358,12.281380653381348,7.246544361114502,-12.725336074829102,-1.2004495859146118
1,535358,24.87445068359375,17.999980926513672,-13.124822616577148,5.667633056640625
1,535359,-9.614431381225586,-9.611922264099121,22.854463577270508,5.129599571228027
1,535359,-17.299171447753906,-15.493094444274902,12.728631973266602,-6.925411701202393
1,535359,8.199553489685059,-0.8885468244552612,-30.031179428100586,-14.69952392578125
1,535359,2.3471555709838867,-3.4613003730773926,0.011400405317544937,6.684651851654053
1,535360,-12.235280990600586,2.16800594329834,21.41754722595215,4.6761932373046875
1,535361,0.925911545753479,5.675943851470947,5.494159698486328,-6.817808628082275
1,535362,-3.740581512451172,0.004183368757367134,-0.7944420576095581,22.4929256439209
1,535365,20.084718704223633,13.895885467529297,-6.255590438842773,-7.7514328956604
1,535366,20.15360450744629,-13.969884872436523,-7.169373989105225,-21.894575119018555
1,535369,-29.08802032470703,-34.33481216430664,-2.192193031311035,2.5489814281463623
1,535370,-20.739776611328125,13.200454711914062,-11.006386756896973,11.291158676147461
1,535373,18.540884017944336,20.775880813598633,3.1365108489990234,35.13969802856445
1,535374,16.800975799560547,-0.4872387647628784,10.64866828918457,-6.958345890045166
1,535375,-19.996950149536133,-19.49932289123535,1.7830085754394531,-33.557613372802734
1,535378,9.608682632446289,-14.758550643920898,4.046159744262695,-18.2181339263916
1,535379,28.473283767700195,28.702585220336914,-14.218311309814453,-5.739940166473389
1,535382,-15.256573677062988,22.422666549682617,-5.071836471557617,39.30976486206055
1,535383,1.6115728616714478,-1.9935617446899414,15.377842903137207,9.371732711791992
1,535386,8.065196990966797,-7.209932804107666,0.7343897819519043,-39.1779899597168
1,535433,-27.85820770263672,-29.35959243774414,-11.582219123840332,9.10677433013916
1,535433,-21.27169418334961,-7.035995006561279,2.3829612731933594,12.766361236572266
1,535433,-2.5050365924835205,11.425837516784668,9.459437370300293,-2.5415384769439697
1,535433,12.496956825256348,10.921927452087402,3.9463727474212646,11.571452140808105
1,535433,22.550987243652344,15.752145767211914,-12.716024398803711,-11.82308292388916
1,535433,3.311964511871338,-3.9169955253601074,-15.537093162536621,-11.175638198852539
1,535434,-8.280996322631836,-5.569456100463867,-1.3514161109924316,-2.1748154163360596
1,535434,-5.489920616149902,-7.453895568847656,15.065781593322754,5.735850811004639
1,535434,-6.6807756423950195,4.054243087768555,14.459968566894531,11.525731086730957
1,535434,0.8803583979606628,12.17386531829834,-2.765226125717163,-1.3477023839950562
1,535434,14.457808494567871,-8.949501037597656,7.662692546844482,9.207842826843262
1,535434,21.086740493774414,-2.7321152687072754,-7.121373176574707,-5.009443283081055
1,535435,-6.179721832275391,3.117525339126587,-14.973821640014648,-25.848865509033203
1,535435,-4.714584827423096,-1.1133275032043457,4.215742588043213,-1.4302294254302979
1,535435,17.912355422973633,0.45728397369384766,-4.421022415161133,4.35744571685791
1,535435,-10.885733604431152,-5.834536552429199,7.473389148712158,15.561869621276855
1,535435,-23.893102645874023,5.423547267913818,29.679128646850586,22.06959342956543
1,535436,14.173263549804688,7.503363609313965,-6.928674221038818,-5.506791591644287
1,535436,15.408148765563965,-10.200685501098633,-41.028907775878906,-7.801082611083984
1,535436,-35.45286178588867,-14.682172775268555,3.769205093383789,-6.868523597717285
1,535436,-11.701736450195312,12.957267761230469,28.101287841796875,-2.181516647338867
1,535436,25.548542022705078,15.721556663513184,-12.74937629699707,-1.4949760437011719
1,535436,-13.533294677734375,-23.647090911865234,-8.706337928771973,-2.4769372940063477
1,535438,-8.146333694458008,-13.308442115783691,6.25801420211792,18.678741455078125
1,535438,24.797399520874023,21.12513542175293,8.256591796875,4.820027828216553
1,535438,6.774628162384033,13.653450965881348,12.404425621032715,-19.25753402709961
1,535439,-21.75408363342285,-11.848176002502441,-25.205835342407227,-15.115978240966797
1,535442,-9.870637893676758,9.092000961303711,-9.065945625305176,9.13619613647461
1,535443,8.03161334991455,6.806662559509277,14.114004135131836,14.954795837402344
1,535446,-13.858929634094238,-36.78411865234375,-3.097100019454956,-18.817005157470703
1,535448,5.731811046600342,5.324997901916504,-6.5148749351501465,-8.592960357666016
1,535450,13.321544647216797,9.572795867919922,-1.956024169921875,21.72154426574707
1,535452,17.467010498046875,6.58007287979126,7.197858810424805,-1.2848446369171143
1,535454,29.494029998779297,16.764537811279297,-1.132968544960022,-1.5847669839859009
1,535456,-21.915985107421875,-19.58340072631836,30.216541290283203,16.2441349029541
1,535458,-26.458913803100586,7.60975980758667,4.140872955322266,-26.20280647277832
1,535460,-8.288612365722656,-4.098843574523926,-39.09310531616211,-26.827625274658203
1,535462,8.040780067443848,-40.5295524597168,23.378725051879883,48.91305160522461
1,535464,43.2596321105957,4.806943893432617,20.163095474243164,19.281709671020508
1,535466,5.319183826446533,54.48466873168945,-34.49747085571289,-54.91420364379883
1,535468,-48.300148010253906,-4.484923839569092,-29.870037078857422,2.2207839488983154
1,535528,-13.788450241088867,-18.6693172454834,24.90229606628418,36.884559631347656
1,535528,14.15776252746582,27.60478973388672,20.88673973083496,-20.841737747192383
1,535529,2.0215861797332764,-16.132516860961914,-12.603676795959473,-14.306522369384766
1,535529,-23.344999313354492,0.6773974299430847,5.155653953552246,8.487454414367676
1,535529,-1.5288214683532715,11.396167755126953,-12.451464653015137,-6.199440956115723
1,535529,37.92448806762695,-22.938974380493164,2.0943355560302734,13.339027404785156
1,535529,-17.684913635253906,-1.815779685974121,-10.277706146240234,4.72721004486084
1,535529,-13.429327011108398,-11.708235740661621,-7.4295454025268555,13.652464866638184
1,535530,23.117605209350586,28.205753326416016,49.87969207763672,8.981807708740234
1,535530,5.515561580657959,24.510419845581055,-18.91904640197754,-36.4571647644043
1,535530,18.968706130981445,-53.61430740356445,-27.556325912475586,-1.2338159084320068
1,535530,0.5205606818199158,-5.167971611022949,23.853422164916992,29.517547607421875
1,535530,-34.19689178466797,20.01058578491211,-10.540349960327148,5.736664772033691
1,535531,-23.36887550354004,-5.712525367736816,2.0430054664611816,-16.530696868896484
1,535531,35.83878707885742,2.611759901046753,14.88459587097168,-11.042427062988281
1,535531,35.50135040283203,7.6650567054748535,-28.609018325805664,2.038616895675659
1,535531,-45.07651901245117,-9.186397552490234,1.8163901567459106,22.576974868774414
1,535531,-15.797221183776855,-8.603623390197754,27.605907440185547,4.1777262687683105
1,535531,31.574329376220703,20.502105712890625,-6.764535903930664,-19.146615982055664
1,535531,9.261510848999023,-3.282278299331665,0.3777453899383545,3.070622682571411
1,535532,-9.55295467376709,-14.620893478393555,-1.0258742570877075,-18.908153533935547
1,535532,-17.092512130737305,2.658857583999634,-12.919164657592773,-37.48671340942383
1,535532,-18.91529655456543,-6.896056652069092,2.8206279277801514,30.3875732421875
1,535532,8.798127174377441,23.02696990966797,15.045255661010742,60.388916015625
1,535532,34.26692581176758,30.113143920898438,-0.6373485922813416,-21.996932983398438
1,535533,5.6312642097473145,-25.736942291259766,-7.669572830200195,-23.043983459472656
1,535533,-21.828569412231445,-17.417675018310547,6.432211875915527,11.929937362670898
1,535533,-25.952678680419922,-3.275418519973755,1.1093525886535645,-20.9361572265625
1,535533,15.435171127319336,-1.326767921447754,-7.6887969970703125,6.527472496032715
1,535533,36.59702682495117,21.867881774902344,-0.4236826002597809,30.422456741333008
1,535535,-2.6868064403533936,-18.3640079498291,1.828967809677124,-6.358104705810547
1,535535,-21.503557205200195,-14.828880310058594,-1.26078200340271,-18.30906105041504
1,535535,8.648226737976074,37.028072357177734,-1.8479996919631958,-7.806039333343506
1,535536,-2.6686594486236572,15.772564888000488,-9.928353309631348,-15.958806991577148
1,535538,-28.954288482666016,-12.93563175201416,16.027894973754883,9.054640769958496
1,535540,6.801947116851807,-15.676046371459961,16.227556228637695,4.745135307312012
1,535542,-13.985684394836426,-5.511611461639404,-37.46143341064453,-17.895038604736328
1,535544,-7.989458084106445,19.307870864868164,4.641179084777832,12.029596328735352
1,535546,41.2470588684082,23.284029006958008,40.13512420654297,3.71079158782959
1,535548,4.5794572830200195,-27.20908546447754,-14.036730766296387,5.559884071350098
1,535550,0.3718613386154175,-40.52239227294922,-10.857585906982422,28.566627502441406
1,535552,-21.12421417236328,18.059768676757812,2.853778839111328,26.288169860839844
1,535554,-21.48255157470703,-5.77315616607666,-25.08251190185547,-5.328863620758057
1,535556,35.33065414428711,-13.951416015625,4.704977989196777,-33.54228210449219
1,535621,1.665197491645813,49.7525520324707,36.3109245300293,-23.405332565307617
1,535621,7.1118388175964355,-0.5873781442642212,-11.770133018493652,5.731729030609131
1,535621,18.0589656829834,-25.663066864013672,-7.385884761810303,29.337371826171875
1,535621,-23.445959091186523,-6.101914882659912,15.975349426269531,-22.147079467773438
1,535621,-9.790042877197266,-10.327134132385254,-17.944042205810547,-37.83968734741211
1,535621,-1.3750483989715576,28.083276748657227,-20.82280158996582,31.860240936279297
1,535622,-27.907268524169922,6.118605613708496,21.07771873474121,15.885672569274902
1,535622,7.861451625823975,-13.324522972106934,28.151308059692383,-27.672588348388672
1,535622,38.29267501831055,3.4058780670166016,-40.56632614135742,0.4998181164264679
1,535622,-32.36051940917969,-18.32373809814453,-32.08241653442383,16.792659759521484
1,535622,-27.27582359313965,7.29090690612793,41.407920837402344,-0.5380635857582092
1,535623,59.468597412109375,27.73602294921875,9.638500213623047,-0.5266166925430298
1,535623,22.616811752319336,-15.645099639892578,-20.255306243896484,17.008451461791992
1,535623,-38.801692962646484,-25.135469436645508,8.273980140686035,-4.128445625305176
1,535623,-0.8526472449302673,17.3016414642334,1.59445059299469,-25.10645294189453
1,535623,-1.750076413154602,28.455244064331055,-10.011713027954102,3.623041868209839
1,535623,-13.254860877990723,-6.657379627227783,19.20863151550293,12.027983665466309
1,535624,26.614309310913086,-10.625847816467285,15.342915534973145,-17.010406494140625
1,535624,13.284676551818848,17.877029418945312,-21.257822036743164,-11.725467681884766
1,535624,-19.11043357849121,-22.059999465942383,-1.2271807193756104,28.232772827148438
1,535624,1.429884672164917,-20.548259735107422,8.998004913330078,19.403230667114258
1,535624,4.525317192077637,49.27275085449219,-6.532168388366699,-5.938922882080078
1,535624,-10.01962947845459,-8.817547798156738,-9.27722454071045,-7.636147975921631
1,535625,-0.4831824004650116,-47.95436477661133,-14.171954154968262,-2.7842459678649902
1,535625,-3.9166293144226074,2.2369818687438965,29.53350067138672,16.969655990600586
1,535625,-2.2215609550476074,31.48761749267578,11.69422435760498,-2.0754287242889404
1,535625,1.1090344190597534,18.17507553100586,-30.015411376953125,-31.015670776367188
1,535625,-0.07329787313938141,-8.6437349319458,16.788345336914062,-5.535401344299316
1,535625,5.0120530128479,-10.138246536254883,7.395190238952637,17.936494827270508
1,535626,-1.958272933959961,-5.524683952331543,-11.509331703186035,9.258152961730957
1,535626,7.170446872711182,-4.752799034118652,-7.489469528198242,0.18200857937335968
1,535626,9.103997230529785,-15.707595825195312,1.5904208421707153,4.11269474029541
1,535627,-19.311546325683594,4.963841438293457,15.81809139251709,-8.611234664916992
1,535627,6.873604774475098,27.129379272460938,-10.312640190124512,-2.010664701461792
1,535628,19.038427352905273,-17.304656982421875,-20.722780227661133,0.3024662733078003
1,535628,-30.334186553955078,-13.609946250915527,-1.4395772218704224,-9.329975128173828
1,535631,-6.571658611297607,39.88401412963867,-12.636500358581543,27.44243049621582
1,535632,39.10076141357422,-8.263510704040527,-17.632221221923828,5.633637428283691
1,535635,0.7631368041038513,-43.6051025390625,37.03801727294922,-15.959714889526367
1,535636,-38.24669647216797,14.894044876098633,41.93051528930664,8.332801818847656
1,535639,5.433095455169678,33.65108871459961,26.70125961303711,-22.644899368286133
1,535640,44.68882751464844,-16.01768684387207,-33.88977813720703,-6.002914905548096
1,535643,16.053638458251953,-20.68917465209961,-144.14273071289062,39.01227951049805
1,535644,-3.30902099609375,21.828815460205078,-42.8720703125,-16.556337356567383
1,535645,-35.27229690551758,4.910940170288086,103.93130493164062,-48.472843170166016
1,535648,-44.46937561035156,-3.1601762771606445,111.53347778320312,27.236831665039062
1,535649,33.001644134521484,-3.5501794815063477,43.6461067199707,37.716190338134766
1,535652,20.29046630859375,-14.04017448425293,-50.31003189086914,-22.310958862304688
1,535653,-44.940189361572266,-5.978107452392578,-22.99523162841797,-15.973572731018066
1,535726,30.557659149169922,22.13080596923828,-94.29059600830078,24.904539108276367
1,535726,53.70436096191406,20.62183380126953,-109.4439926147461,14.83138370513916
1,535727,-48.49858474731445,-24.00353240966797,120.33673095703125,-16.265121459960938
1,535727,-27.3513240814209,13.842630386352539,119.30679321289062,-5.8279314041137695
1,535727,29.275127410888672,13.874407768249512,-19.845731735229492,-5.412326812744141
1,535727,-14.6087007522583,-28.739540100097656,-21.96141242980957,0.016279730945825577
1,535727,-18.892541885375977,5.572391033172607,17.551223754882812,2.681602716445923
1,535727,14.823957443237305,8.942011833190918,17.584827423095703,-17.779144287109375
1,535728,4.056844711303711,-2.998575210571289,-11.2033109664917,-7.303989887237549
1,535728,6.648421287536621,6.248692512512207,-15.666549682617188,2.9786953926086426
1,535728,-18.07362174987793,-33.486114501953125,9.491995811462402,9.399256706237793
1,535728,-31.345338821411133,-23.51686668395996,33.156219482421875,1.8358262777328491
1,535728,24.770523071289062,33.42573165893555,-0.4866185188293457,-11.67196273803711
1,535728,13.236387252807617,7.910462856292725,-39.57498550415039,-7.213650226593018
1,535729,-0.1159830391407013,-15.416969299316406,-0.7628780007362366,-4.5710368156433105
1,535729,12.036188125610352,5.79819393157959,-5.42523193359375,13.286680221557617
1,535729,-1.256665587425232,13.652315139770508,-23.117055892944336,31.432262420654297
1,535729,-2.62199330329895,-6.755720615386963,4.3319091796875,11.816503524780273
1,535729,-3.5932388305664062,-0.35558274388313293,-23.958887100219727,-22.531511306762695
1,535730,10.78210735321045,21.614091873168945,-18.7303524017334,-13.109719276428223
1,535730,4.066737174987793,-21.242700576782227,21.792390823364258,11.54434585571289
1,535730,-22.518091201782227,-10.841593742370605,26.490455627441406,6.254332542419434
1,535730,-2.8352789878845215,17.477598190307617,3.5679874420166016,-10.639657020568848
1,535730,7.141714096069336,-18.51143455505371,-15.38371467590332,8.233431816101074
1,535730,-24.21795082092285,-4.9542155265808105,8.561168670654297,22.73247718811035
1,535730,10.231864929199219,2.517756938934326,-16.18800163269043,-8.727354049682617
1,535731,47.38015365600586,1.3445500135421753,-34.82557678222656,-15.918715476989746
1,535731,-10.010162353515625,12.635472297668457,33.299137115478516,-1.2946884632110596
1,535731,-14.127548217773438,15.325677871704102,16.45985221862793,-3.72829008102417
1,535731,5.448460578918457,-1.6235512495040894,-31.678815841674805,8.414971351623535
1,535731,-15.652713775634766,-13.968017578125,11.832915306091309,10.519157409667969
1,535732,13.190711975097656,21.358762741088867,21.559038162231445,-27.226160049438477
1,535732,-0.9703823924064636,-3.351106643676758,4.474794864654541,-5.991202354431152
1,535732,-40.75376892089844,-24.45949935913086,22.119070053100586,41.942054748535156
1,535732,15.042617797851562,9.052119255065918,3.5126466751098633,-5.695104598999023
1,535732,33.096866607666016,3.480039119720459,-36.721458435058594,-37.397762298583984
1,535734,-5.954702854156494,1.072065830230713,-14.582341194152832,14.886808395385742
1,535734,-0.7082672715187073,-2.3013644218444824,25.124616622924805,25.684097290039062
1,535734,-20.803895950317383,-8.07752799987793,10.638845443725586,-10.025032043457031
1,535734,3.2432825565338135,21.985567092895508,-16.77228546142578,-26.99521255493164
1,535735,6.54612922668457,6.735784530639648,65.39082336425781,-39.18238067626953
1,535738,-18.429405212402344,-19.58222770690918,28.31684112548828,-29.408493041992188
1,535739,34.835121154785156,-6.7071709632873535,-140.84735107421875,40.51851272583008
1,535742,6.163853168487549,3.542989730834961,-22.574708938598633,37.395057678222656
1,535743,-28.56551742553711,15.631621360778809,15.278019905090332,-16.706226348876953
1,535746,-10.2744779586792,-2.201788902282715,62.36153030395508,-28.59334945678711
1,535747,1.3079426288604736,-30.132671356201172,114.23464965820312,-1.5546691417694092
1,535750,16.865768432617188,-15.251195907592773,-144.3791961669922,66.77169036865234
1,535752,14.963987350463867,23.043846130371094,-97.14325714111328,36.34286117553711
1,535754,13.199289321899414,23.163166046142578,64.83364868164062,-33.985225677490234
1,535756,-5.04755973815918,-11.881562232971191,40.8386116027832,-14.352734565734863
1,535758,-27.638996124267578,-14.706182479858398,46.08029556274414,29.18330955505371
1,535760,3.949166774749756,3.5488739013671875,7.946168422698975,-9.970063209533691
1,535762,-0.9989888072013855,2.073042154312134,-34.09373092651367,-32.59156799316406
1,535764,-11.695002555847168,-0.5818050503730774,7.697048664093018,-11.44006061553955
1,535766,14.95604419708252,11.987028121948242,6.987576484680176,2.0838425159454346
1,535768,-29.557353973388672,20.313499450683594,43.50007247924805,31.16613006591797
1,535853,49.871700286865234,-4.453390121459961,-70.46624755859375,8.397287368774414
1,535853,93.42182159423828,-17.1666316986084,-177.41732788085938,-12.47562026977539
1,535853,-69.36370849609375,-4.220226287841797,94.46621704101562,-5.1564459800720215
1,535853,-44.61233901977539,-9.803056716918945,118.63607025146484,14.011377334594727
1,535853,22.27613067626953,15.308341026306152,-21.612276077270508,7.714756965637207
1,535853,-7.519867897033691,23.72670555114746,15.300809860229492,-13.508563995361328
1,535854,11.9811429977417,-30.611244201660156,7.902127265930176,8.676695823669434
1,535854,1.2521893978118896,-3.2158031463623047,-23.776826858520508,13.429261207580566
1,535854,-4.84131383895874,23.639551162719727,-16.266246795654297,-12.306473731994629
1,535854,-26.676101684570312,-35.23571014404297,18.86748504638672,-14.339360237121582
1,535854,-11.790323257446289,-0.468140572309494,26.076946258544922,-20.863168716430664
1,535854,31.2309513092041,28.42375946044922,0.4378786087036133,-25.524572372436523
1,535855,-27.867076873779297,-24.31389045715332,-9.15742301940918,28.75872039794922
1,535855,-34.52005386352539,-14.808566093444824,-10.483500480651855,25.864660263061523
1,535855,34.4113655090332,16.426382064819336,-5.240431785583496,-11.396573066711426
1,535855,18.02550506591797,17.496065139770508,-17.03346824645996,-16.615806579589844
1,535855,-6.557572364807129,3.020521879196167,-24.458154678344727,-4.987553119659424
1,535855,3.7130792140960693,-23.43977165222168,-6.510591983795166,24.64080238342285
1,535856,-23.785852432250977,-0.0036585237830877304,-1.4518927335739136,1.8157296180725098
1,535856,-15.9474458694458,17.819168090820312,20.7820987701416,-5.44908332824707
1,535856,16.33226776123047,-8.447213172912598,20.93143081665039,-7.035149574279785
1,535856,-3.0343263149261475,13.97026252746582,-1.0905309915542603,-28.254451751708984
1,535856,-12.004842758178711,2.5577409267425537,1.5995277166366577,2.9781525135040283
1,535857,4.500077724456787,-26.356536865234375,-12.635893821716309,28.890748977661133
1,535857,7.55237340927124,4.305637836456299,-2.968770980834961,-6.247210502624512
1,535857,18.82071876525879,-3.6385769844055176,10.603570938110352,-19.076623916625977
1,535857,13.300289154052734,0.021706026047468185,-12.32930850982666,11.23431396484375
1,535857,-9.308966636657715,19.13224983215332,1.3265432119369507,2.348409414291382
1,535857,-12.243791580200195,-6.700634956359863,18.29686737060547,-8.055789947509766
1,535858,1.1352804899215698,6.673829555511475,-0.3132625222206116,10.501912117004395
1,535858,25.594188690185547,6.383538722991943,-5.413495063781738,4.272875785827637
1,535858,-2.879303216934204,-28.946866989135742,20.301923751831055,0.5829617381095886
1,535858,-24.769859313964844,-1.1756356954574585,11.033676147460938,1.5411773920059204
1,535858,15.768196105957031,28.218923568725586,-7.803220272064209,-15.139740943908691
1,535858,3.227180242538452,-4.234745502471924,-3.720022678375244,10.842361450195312
1,535859,-3.880255937576294,-8.378168106079102,-14.317605972290039,5.9659743309021
1,535859,8.897107124328613,16.354211807250977,-7.241170883178711,-10.123014450073242
1,535859,-12.498103141784668,-17.86223793029785,-1.152828335762024,23.015369415283203
1,535859,3.416572093963623,-7.117726802825928,18.34255027770996,21.311166763305664
1,535859,12.913843154907227,50.55015182495117,17.04856300354004,-9.200933456420898
1,535859,-9.249783515930176,9.032025337219238,-22.67428207397461,-24.75792121887207
1,535860,-1.221191167831421,-10.562512397766113,-0.745214581489563,-2.2470970153808594
1,535861,19.805973052978516,-9.872754096984863,0.16466990113258362,-15.288432121276855
1,535861,-10.598794937133789,-43.940975189208984,-23.343021392822266,-11.198274612426758
1,535861,-22.51194190979004,2.335049629211426,4.168909549713135,27.7431697845459
1,535861,14.934444427490234,30.39837646484375,7.652138710021973,-2.3756964206695557
1,535863,-3.085866928100586,8.843304634094238,-9.96208381652832,-11.083917617797852
1,535864,-37.06584167480469,-39.49555587768555,-11.771526336669922,21.181554794311523
1,535865,4.447299957275391,-35.64634323120117,1.1046733856201172,-0.8823099136352539
1,535868,18.883655548095703,32.530357360839844,95.36051940917969,-24.185335159301758
1,535869,-21.853012084960938,8.089139938354492,36.169029235839844,5.242700576782227
1,535872,5.57764196395874,15.528511047363281,-91.22602081298828,12.672100067138672
1,535873,35.056114196777344,2.989469289779663,-71.62645721435547,5.450127601623535
1,535876,39.32155990600586,-24.771530151367188,-88.05960845947266,20.601093292236328
1,535877,6.868927001953125,37.73824691772461,-5.496535301208496,-1.8075644969940186
1,535880,-25.537309646606445,-6.732256889343262,147.53585815429688,-35.121891021728516
1,535881,15.935667991638184,-23.771230697631836,74.07427978515625,13.808907508850098
1,535884,-7.987685203552246,19.475582122802734,-216.4464111328125,49.15540313720703
1,535885,-19.83428955078125,-13.243456840515137,-95.84098052978516,-22.047941207885742
1,535888,-14.404823303222656,-12.76824951171875,240.99720764160156,-45.8911018371582
1,535889,-24.802734375,11.339908599853516,151.18637084960938,-27.728002548217773
1,535892,-4.996908664703369,-12.180512428283691,-66.95818328857422,-1.511468768119812
1,535894,-7.937460422515869,-19.088382720947266,-89.109619140625,62.382057189941406
1,535896,12.036022186279297,16.37422752380371,42.11945724487305,5.290271282196045
1,535992,27.271963119506836,32.16582107543945,34.203102111816406,8.060731887817383
1,535992,20.304729461669922,17.845218658447266,-28.8375301361084,34.67352294921875
1,535993,2.1897013187408447,-17.79955291748047,-13.162900924682617,-53.683597564697266
1,535993,-11.889959335327148,-19.305599212646484,-10.165398597717285,-4.215262413024902
1,535993,-20.02943229675293,5.791855812072754,-26.646554946899414,28.068971633911133
1,535993,26.209556579589844,1.776073932647705,-22.890737533569336,-37.39297103881836
1,535993,28.788753509521484,7.267802715301514,-9.701436996459961,0.22581064701080322
1,535994,-34.63667297363281,20.883731842041016,-6.473697185516357,19.169992446899414
1,535994,-8.330187797546387,-10.471378326416016,22.099876403808594,-33.223995208740234
1,535994,-9.968786239624023,-34.66578674316406,8.659943580627441,-8.596503257751465
1,535994,-36.29867935180664,4.8016676902771,2.5735244750976562,13.20229434967041
1,535994,12.021551132202148,22.735857009887695,25.858591079711914,-13.781396865844727
1,535994,20.56109046936035,-19.89639663696289,-5.401078701019287,-0.885044515132904
1,535994,-4.354878902435303,-5.418859004974365,-5.691694259643555,19.498777389526367
1,535995,6.504446029663086,9.391512870788574,8.311750411987305,3.3292977809906006
1,535995,-0.6862603425979614,-8.409575462341309,-20.719696044921875,-12.358555793762207
1,535995,1.5850752592086792,3.859102964401245,-4.176304817199707,2.0790867805480957
1,535995,17.513635635375977,-10.13726806640625,20.957931518554688,10.962905883789062
1,535995,2.8370211124420166,1.2463533878326416,5.551242828369141,-2.881381034851074
1,535996,-18.311084747314453,12.688688278198242,5.251875400543213,-20.998764038085938
1,535996,-12.450338363647461,-14.168058395385742,14.02745532989502,-9.215700149536133
1,535996,1.7970855236053467,-4.138607501983643,-1.6446893215179443,26.053936004638672
1,535996,-10.342899322509766,19.51605796813965,-5.615040302276611,2.161665439605713
1,535996,-0.3257119059562683,-4.457279205322266,-17.259458541870117,-29.693443298339844
1,535996,26.607820510864258,-16.323266983032227,-27.682077407836914,19.434154510498047
1,535997,8.232097625732422,12.208334922790527,9.502866744995117,34.168212890625
1,535997,-7.3839263916015625,21.406879425048828,4.735937118530273,-6.187521934509277
1,535997,-1.540223479270935,6.824259281158447,-7.34337043762207,-6.121934413909912
1,535997,-0.6814079880714417,-1.6408780813217163,8.784825325012207,-3.8799169063568115
1,535997,-2.7491261959075928,-2.5355944633483887,-13.593650817871094,-5.505128383636475
1,535997,-14.70272445678711,5.460096836090088,5.8799004554748535,8.883453369140625
1,535998,-5.412027835845947,7.250041484832764,28.65019416809082,4.974151134490967
1,535998,25.333826065063477,-31.03619384765625,-0.26382821798324585,-9.921706199645996
1,535998,14.181792259216309,2.0205776691436768,-3.037377119064331,-14.302339553833008
1,535998,-13.48401927947998,43.32799530029297,-2.688412666320801,6.899013996124268
1,535998,0.8221771121025085,-13.69729232788086,-21.44068145751953,18.338586807250977
1,535999,14.133450508117676,-36.48529815673828,-8.811491966247559,-14.728398323059082
1,535999,-1.528630256652832,4.420594692230225,-8.810680389404297,-1.2939156293869019
1,535999,-18.95572853088379,11.364952087402344,10.431243896484375,25.65877342224121
1,535999,4.396420478820801,-2.7424113750457764,26.14345359802246,-8.335112571716309
1,535999,4.406271934509277,12.865265846252441,-22.31972885131836,-11.751791954040527
1,535999,-11.71953296661377,-1.5499780178070068,-9.862702369689941,-8.393310546875
1,536000,12.650883674621582,-4.721783638000488,18.85652732849121,-10.388810157775879
1,536000,-15.266140937805176,-5.647634506225586,6.82027530670166,15.3077392578125
1,536000,-24.574331283569336,-20.616540908813477,-1.315208077430725,22.44859504699707
1,536000,21.10787010192871,11.506654739379883,-13.449787139892578,-5.659210681915283
1,536000,2.8948171138763428,8.799942016601562,-8.200315475463867,-23.086578369140625
1,536000,-8.861120223999023,-15.805187225341797,9.414580345153809,-1.0817265510559082
1,536002,7.052213191986084,12.696818351745605,4.077216625213623,6.7642340660095215
1,536002,11.069220542907715,16.121036529541016,-6.763033866882324,1.9046447277069092
1,536002,22.697383880615234,-19.25666046142578,1.4098551273345947,-1.9521714448928833
1,536002,-17.516738891601562,-16.495088577270508,11.431873321533203,2.6740260124206543
1,536002,-25.870271682739258,8.558740615844727,9.608345985412598,10.159444808959961
1,536004,20.021100997924805,19.901628494262695,-36.685062408447266,-7.3434271812438965
1,536006,39.06998825073242,1.0761568546295166,-17.856788635253906,-21.667278289794922
1,536008,8.47768497467041,-12.08798599243164,67.37200927734375,26.880287170410156
1,536010,-34.73406982421875,-7.773163795471191,-19.635305404663086,40.895137786865234
1,536012,-39.1734733581543,-4.333375453948975,36.73816680908203,-6.73012638092041
1,536014,10.04804801940918,14.934393882751465,39.9023551940918,-8.5842924118042
1,536016,55.09328842163086,6.909714698791504,-200.758544921875,-32.83576965332031
1,536018,-3.286471128463745,-23.779205322265625,-102.83966064453125,-13.109265327453613
1,536020,-15.660841941833496,19.585752487182617,154.9907989501953,50.97161102294922
1,536022,-0.0643305703997612,45.088829040527344,154.6160125732422,2.08415150642395
1,536024,-32.62797546386719,-23.041807174682617,-23.244312286376953,-43.7235221862793
1,536027,-15.095884323120117,-14.981766700744629,-49.854217529296875,-41.704593658447266
1,536028,5.003577709197998,4.401844501495361,-19.224809646606445,-24.65567970275879
1,536031,-0.16622325778007507,-15.116272926330566,120.73414611816406,58.84196853637695
1,536032,8.630824089050293,11.321453094482422,72.33055877685547,43.15299987792969
1,536035,33.188018798828125,-5.886966705322266,-260.17608642578125,-30.882204055786133
1,536036,-22.191205978393555,-32.19417953491211,-87.26238250732422,-12.85897159576416
1,536039,-29.80782127380371,13.911892890930176,218.61863708496094,17.957103729248047
1,536040,41.26607131958008,19.946020126342773,43.305397033691406,32.73046112060547
1,536147,12.814720153808594,-27.294652938842773,-219.81008911132812,-14.264336585998535
1,536148,0.35080450773239136,-23.652118682861328,-86.59090423583984,-29.557327270507812
1,536148,-1.7198436260223389,27.161378860473633,95.83597564697266,30.401906967163086
1,536148,5.447084903717041,35.82564163208008,36.044124603271484,6.117791652679443
1,536148,20.016263961791992,-11.109068870544434,9.613354682922363,-36.90484619140625
1,536148,-18.073152542114258,-17.073007583618164,39.29740524291992,-4.295791149139404
1,536148,-28.136634826660156,-0.8017798066139221,35.92201614379883,5.528883457183838
1,536149,-18.884963989257812,0.6873835325241089,31.725568771362305,4.159261226654053
1,536149,13.798367500305176,19.660730361938477,54.22038269042969,2.117745876312256
1,536149,23.433176040649414,-0.10924295336008072,16.10860252380371,-25.670679092407227
1,536149,-10.324191093444824,-13.44439697265625,-43.002689361572266,-3.7278892993927
1,536149,-24.0623836517334,23.33649253845215,-14.50650691986084,25.37738609313965
1,536149,24.80351448059082,0.7696177363395691,-5.910369396209717,15.350493431091309
1,536150,21.44590187072754,-22.00653839111328,-34.3428840637207,-3.4507193565368652
1,536150,-33.85560607910156,5.749248027801514,-13.795158386230469,-6.284254550933838
1,536150,15.096447944641113,-7.22419548034668,-18.70599937438965,-7.920754909515381
1,536150,16.80289649963379,-19.239154815673828,-20.472370147705078,0.054120875895023346
1,536150,-35.840213775634766,3.9036450386047363,21.867353439331055,16.779327392578125
1,536151,-17.921064376831055,11.379307746887207,21.454797744750977,-5.254332542419434
1,536151,17.546937942504883,10.074028968811035,-4.00324010848999,1.150793433189392
1,536151,7.961637020111084,-8.705595970153809,-5.910958290100098,20.602752685546875
1,536151,-15.243277549743652,6.527226448059082,6.229878902435303,-8.94384765625
1,536151,-1.8225288391113281,11.863292694091797,-20.130168914794922,-29.130651473999023
1,536151,-12.54475212097168,-36.38715744018555,-15.195905685424805,8.640674591064453
1,536152,5.172896385192871,11.105393409729004,24.916494369506836,13.757328033447266
1,536152,30.94818687438965,40.69641876220703,-3.4288086891174316,-13.992085456848145
1,536152,-19.79963493347168,-32.142234802246094,-3.394416332244873,11.198338508605957
1,536152,-24.01123046875,-17.153242111206055,22.14326286315918,7.730590343475342
1,536152,13.815189361572266,29.3572998046875,1.8520326614379883,-11.949782371520996
1,536152,9.048698425292969,6.050583839416504,8.511673927307129,-3.2732672691345215
1,536153,16.52845001220703,-9.179203987121582,14.744428634643555,3.184445858001709
1,536153,20.033615112304688,-0.29127708077430725,-22.160465240478516,0.6980684995651245
1,536153,-23.362926483154297,12.87305736541748,-3.399564027786255,0.7619886994361877
1,536153,-13.026912689208984,-0.1667177528142929,13.540919303894043,-2.581590414047241
1,536153,18.613794326782227,-20.910776138305664,-13.352252006530762,-7.859726428985596
1,536154,-0.7172037959098816,17.014497756958008,3.683178663253784,-7.179426193237305
1,536154,-2.699636936187744,20.825334548950195,-0.4750966429710388,1.5018088817596436
1,536154,8.05037784576416,-30.478511810302734,0.5197625756263733,8.64080810546875
1,536154,1.0690040588378906,-22.66407585144043,9.058379173278809,-15.997118949890137
1,536154,-26.159515380859375,-3.2582685947418213,-13.346953392028809,-7.748025894165039
1,536154,-15.785405158996582,6.687651634216309,-7.558042526245117,19.583553314208984
1,536155,10.425580024719238,1.5176724195480347,5.241127014160156,-12.1268949508667
1,536155,19.878360748291016,-3.10707688331604,-19.463600158691406,-4.891793251037598
1,536155,6.23530387878418,21.383073806762695,-9.686247825622559,35.15934371948242
1,536155,-12.25841236114502,14.82961654663086,26.45111083984375,-12.349447250366211
1,536155,22.563190460205078,-1.2151850461959839,-1.9425815343856812,-13.184891700744629
1,536155,15.07898235321045,-21.539608001708984,-3.6897459030151367,16.77728843688965
1,536156,-24.16991424560547,-11.58923053741455,-8.540376663208008,-8.892939567565918
1,536156,-18.64784049987793,11.576077461242676,2.490992307662964,14.961871147155762
1,536156,7.7262492179870605,16.411571502685547,22.828821182250977,6.700655937194824
1,536156,8.033028602600098,-3.457685708999634,-6.326042652130127,-29.92438507080078
1,536156,-3.9330496788024902,-29.6484432220459,-6.895928382873535,-6.678776264190674
1,536156,-2.94973087310791,5.43527889251709,-14.698704719543457,18.879446029663086
1,536157,6.058197975158691,18.98585319519043,1.4329897165298462,5.204983234405518
1,536158,22.778766632080078,-5.1816253662109375,25.301115036010742,-33.42554473876953
1,536158,11.897845268249512,-6.128743648529053,0.40908190608024597,-2.3025081157684326
1,536158,-17.781631469726562,23.688417434692383,-17.138959884643555,33.83761215209961
1,536158,-7.108416557312012,18.613256454467773,9.048727035522461,-15.960854530334473
1,536159,3.967690944671631,-9.761235237121582,-2.834681272506714,-20.2808837890625
1,536160,-21.58633804321289,-20.975481033325195,-12.244434356689453,9.206175804138184
1,536163,1.2712035179138184,-18.209074020385742,16.384654998779297,12.900323867797852
1,536164,23.601106643676758,14.173240661621094,-12.43458080291748,28.180004119873047
1,536167,-6.361284255981445,5.861959934234619,-12.574132919311523,34.70995330810547
1,536168,-21.839065551757812,-10.614870071411133,6.498103618621826,-20.866361618041992
1,536171,-4.153088092803955,-16.519428253173828,-19.1389102935791,-49.78616714477539
1,536172,-5.715941429138184,-1.4881877899169922,10.649803161621094,15.986593246459961
1,536175,-9.876748085021973,16.250944137573242,25.153337478637695,35.72299575805664
1,536176,24.992055892944336,2.626286745071411,-24.703733444213867,10.826748847961426
1,536179,24.36117172241211,2.0208780765533447,2.572721481323242,-11.247786521911621
1,536180,-11.317575454711914,-6.964642524719238,31.864643096923828,-38.87662887573242
1,536183,-6.195952892303467,13.074713706970215,-16.021642684936523,-32.67912292480469
1,536184,16.295469284057617,13.304091453552246,-22.821836471557617,10.155949592590332
1,536185,-5.352149963378906,-11.17576789855957,28.89832305908203,41.09544372558594
1,536188,-9.908873558044434,9.7836332321167,11.84082317352295,19.898345947265625
1,536189,-6.908145427703857,1.9150733947753906,-15.177298545837402,-7.785222053527832
1,536192,-2.410505771636963,-25.190387725830078,13.725046157836914,-25.94842529296875
1,536193,11.104387283325195,-5.131467819213867,-0.5341684222221375,-21.845556259155273
1,536196,-22.070608139038086,-0.845241129398346,-14.185890197753906,12.12997817993164
1,536197,-6.309733867645264,-17.0505313873291,-20.659671783447266,16.041889190673828
1,536316,21.28623390197754,14.77992057800293,3.1409270763397217,14.822834014892578
1,536316,4.562463760375977,35.99752426147461,37.096771240234375,10.588397979736328
1,536317,3.865461587905884,-10.160916328430176,-15.882796287536621,-35.341217041015625
1,536317,-3.5989420413970947,-33.06656265258789,-23.93583869934082,-15.97790813446045
1,536317,-0.12310261279344559,2.29896879196167,12.959187507629395,23.275529861450195
1,536317,13.73676872253418,10.203858375549316,11.903735160827637,5.833379745483398
1,536317,-12.861441612243652,10.976680755615234,-0.12270398437976837,-5.891242027282715
1,536318,-12.740129470825195,17.063644409179688,-21.67061424255371,-8.51392650604248
1,536318,17.407615661621094,-7.533235549926758,13.308426856994629,12.975553512573242
1,536318,-0.6876834630966187,-9.522900581359863,31.47332191467285,10.851364135742188
1,536318,-4.851956367492676,16.555755615234375,-18.90199089050293,-12.147383689880371
1,536318,11.359906196594238,12.451424598693848,-8.280867576599121,-20.44755744934082
1,536318,-5.585643768310547,-19.229127883911133,2.9728097915649414,-9.674946784973145
1,536319,-21.094017028808594,-19.915664672851562,-3.3065428733825684,18.4547119140625
1,536319,8.522703170776367,17.809804916381836,16.186267852783203,18.049135208129883
1,536319,17.810121536254883,1.7547401189804077,-6.946147918701172,-15.350218772888184
1,536319,-14.966161727905273,-33.11389923095703,-12.691278457641602,-22.195697784423828
1,536319,-5.5177764892578125,4.9270453453063965,-4.077853202819824,8.708601951599121
1,536319,-4.067073822021484,32.193336486816406,12.58832836151123,8.948739051818848
1,536320,4.11400032043457,-4.5382256507873535,16.47004508972168,-5.894656658172607
1,536320,16.926509857177734,-18.41838264465332,-20.6554012298584,-2.984245777130127
1,536320,-19.274372100830078,-1.0062967538833618,18.86064910888672,7.087635040283203
1,536320,-8.945643424987793,12.194985389709473,36.92177200317383,10.267668724060059
1,536320,14.260871887207031,10.688617706298828,-17.767518997192383,-4.261935710906982
1,536320,1.5386180877685547,-2.8823413848876953,-24.305814743041992,-7.531796932220459
1,536321,-9.732257843017578,-22.132747650146484,-23.196191787719727,12.282519340515137
1,536321,-1.8599857091903687,-7.010707855224609,-3.6700592041015625,5.061321258544922
1,536321,20.120342254638672,31.95265769958496,23.416898727416992,-15.470004081726074
1,536321,13.478528022766113,8.255736351013184,-7.972452163696289,-2.6250383853912354
1,536321,3.6538076400756836,-19.932661056518555,-13.723395347595215,4.456957817077637
1,536321,-10.645100593566895,-21.63582992553711,-1.4696869850158691,4.605430603027344
1,536322,-13.57259750366211,23.533061981201172,-3.353085994720459,3.1318647861480713
1,536322,2.0538933277130127,16.50889778137207,10.857320785522461,-0.3719174265861511
1,536322,5.053227424621582,-37.28616714477539,-0.12753373384475708,12.33289909362793
1,536322,0.41596078872680664,9.890678405761719,-23.25429344177246,1.2907607555389404
1,536322,-12.840332984924316,13.95231819152832,-11.285107612609863,-23.834064483642578
1,536323,2.0639278888702393,-28.75940704345703,25.213390350341797,2.4324982166290283
1,536323,-3.5463039875030518,6.632174491882324,21.13344383239746,17.189794540405273
1,536323,2.914597272872925,23.464170455932617,-14.170612335205078,0.07701965421438217
1,536323,22.836103439331055,3.4226837158203125,-6.516784191131592,6.878015995025635
1,536323,-10.641387939453125,2.9771766662597656,1.6758214235305786,-6.346024513244629
1,536323,-20.159198760986328,-17.199995040893555,-2.9922776222229004,-1.4261590242385864
1,536324,-0.41369548439979553,-7.244630336761475,1.7058879137039185,-1.0673978328704834
1,536324,12.600790977478027,-0.6344037055969238,-4.743198394775391,-14.259162902832031
1,536324,3.29374623298645,11.827173233032227,10.51086711883545,18.89436912536621
1,536324,-4.84901762008667,11.23641586303711,11.746679306030273,2.9741344451904297
1,536324,-10.331941604614258,-36.74285125732422,-7.451815605163574,-6.8067145347595215
1,536324,5.58306884765625,9.69285774230957,6.312046051025391,17.968461990356445
1,536325,19.487390518188477,24.363948822021484,3.1820309162139893,-15.028524398803711
1,536325,-20.42594337463379,-29.109169006347656,-20.666332244873047,-5.856118202209473
1,536325,-12.36584758758545,5.13264799118042,-11.696499824523926,29.641084671020508
1,536325,28.690053939819336,25.1328067779541,29.013673782348633,-4.76810884475708
1,536325,4.429732799530029,-15.518254280090332,15.258782386779785,-21.190731048583984
1,536325,-27.167478561401367,0.05037814751267433,-21.77798843383789,0.46496137976646423
1,536326,14.211615562438965,15.582064628601074,2.196441888809204,-6.409101486206055
1,536326,31.68134880065918,-8.313103675842285,-2.5461013317108154,-9.69610595703125
1,536326,-19.941545486450195,-18.654438018798828,-8.718050956726074,30.076433181762695
1,536326,-18.28516960144043,22.500839233398438,18.57315444946289,6.811855316162109
1,536326,17.73443603515625,23.81257438659668,-0.5046201348304749,-51.817386627197266
1,536328,-14.024368286132812,-22.24172592163086,-11.433882713317871,-2.1544101238250732
1,536328,-10.031014442443848,-15.201251029968262,17.498680114746094,36.5288200378418
1,536328,31.588193893432617,2.714401960372925,13.049717903137207,-8.045528411865234
1,536328,-4.589206695556641,13.575329780578613,-36.4490852355957,-21.88372802734375
1,536328,-30.7125244140625,-15.646581649780273,-14.333016395568848,-7.202460289001465
1,536328,9.270454406738281,-11.115836143493652,42.742252349853516,6.447235107421875
1,536330,20.517410278320312,28.842708587646484,18.142839431762695,4.412664413452148
1,536332,-26.411691665649414,-3.8636724948883057,-14.855232238769531,-24.699827194213867
1,536334,3.510633945465088,-26.977867126464844,-9.241231918334961,2.366881847381592
1,536336,16.585433959960938,6.89804220199585,8.182551383972168,31.660017013549805
1,536338,-21.679771423339844,23.771703720092773,-13.205753326416016,11.172297477722168
1,536340,9.929131507873535,-3.0114216804504395,-15.176544189453125,6.7461466789245605
1,536342,7.946658134460449,-18.008224487304688,9.38454818725586,-20.86996078491211
1,536344,1.081121802330017,13.069153785705566,-4.461352825164795,-18.582334518432617
1,536346,10.16556167602539,9.282625198364258,-0.4920732378959656,14.066458702087402
1,536348,-13.184097290039062,-23.122182846069336,-3.159406900405884,7.303683280944824
1,536350,-3.5907249450683594,8.273896217346191,0.37824293971061707,51.97562026977539
1,536352,9.645630836486816,22.854337692260742,8.578755378723145,-3.9927525520324707
1,536354,0.0829445943236351,-23.643062591552734,-6.698684215545654,-75.54447174072266
1,536356,-14.690574645996094,-23.407413482666016,9.461732864379883,15.77338981628418
1,536358,-19.793638229370117,5.993500232696533,-9.926872253417969,17.66830825805664
1,536360,20.49161720275879,24.177265167236328,-12.674269676208496,8.828542709350586
1,536362,23.575332641601562,8.036279678344727,15.253070831298828,13.36385440826416
1,536364,-25.21701431274414,-15.20604133605957,-3.469233751296997,-25.527904510498047
1,536366,-7.155562400817871,2.3316118717193604,2.840968132019043,-2.8396708965301514
1,536368,21.325946807861328,2.775455951690674,27.19154930114746,2.1021900177001953
1,536370,8.800646781921387,8.83591079711914,4.231506824493408,14.435568809509277
1,536500,4.977911949157715,22.967609405517578,-25.341209411621094,7.397715091705322
1,536501,-16.510147094726562,-8.777434349060059,-11.318549156188965,-6.197573184967041
1,536501,-25.406309127807617,-38.42368698120117,3.890377998352051,7.680691719055176
1,536501,11.70543098449707,17.629491806030273,16.525428771972656,-13.526217460632324
1,536501,26.7010498046875,19.66961097717285,-5.079015254974365,-20.90673065185547
1,536501,-11.168956756591797,-39.06771469116211,-4.234261989593506,-10.670699119567871
1,536501,-13.819860458374023,-5.120172500610352,14.931876182556152,15.869864463806152
1,536502,-4.559605121612549,13.356654167175293,-13.46954345703125,12.296496391296387
