Aktueller Finger,timestamp_ms,sensor_0,sensor_1,sensor_2,sensor_3
0,156527,-69.32532501220703,-9.598828315734863,88.531005859375,-27.535511016845703
0,156528,-18.235212326049805,68.16368103027344,-1.2086267471313477,1.8254822492599487
0,156531,71.25211334228516,96.3496322631836,-3.404717445373535,62.00920104980469
0,156532,-14.897274017333984,34.35792541503906,18.530799865722656,65.97880554199219
0,156535,-77.47848510742188,-144.1356201171875,-34.25212478637695,-37.14933395385742
0,156536,-21.637113571166992,-140.66482543945312,-52.60514831542969,-92.55903625488281
0,156539,117.73698425292969,58.601078033447266,-34.735836029052734,-67.92347717285156
0,156540,68.77220153808594,103.79197692871094,-5.647331714630127,-21.175750732421875
0,156542,-129.61167907714844,-9.22364616394043,65.68330383300781,108.42601776123047
0,156545,-40.672264099121094,-48.695091247558594,7.400808811187744,140.71246337890625
0,156546,49.24873733520508,18.19104766845703,-11.336301803588867,10.84895133972168
0,156549,52.42098617553711,9.949548721313477,72.87297821044922,-81.1947021484375
0,156550,-5.035404205322266,-6.32110071182251,-32.007652282714844,-67.38516998291016
0,156553,-69.70528411865234,-6.417585849761963,-73.42479705810547,53.79861068725586
0,156554,17.80531883239746,-2.1042025089263916,31.40531349182129,-4.525893211364746
0,156557,43.22477340698242,20.505985260009766,35.05720901489258,-48.19701385498047
0,156558,-17.083250045776367,11.374282836914062,3.2869467735290527,36.68198776245117
0,156561,-26.97329330444336,17.283418655395508,-6.11609411239624,-33.62185287475586
0,156562,71.01114654541016,-13.348880767822266,-35.52778625488281,-49.851768493652344
0,156565,18.972373962402344,-63.42668151855469,-5.42125940322876,77.5066146850586
0,156567,-106.43550109863281,-15.045343399047852,36.816585540771484,49.23770523071289
0,156569,5.212884426116943,56.413063049316406,0.7696171998977661,-64.94074249267578
0,156571,57.21536636352539,28.076560974121094,-25.902864456176758,29.9003849029541
0,156573,-22.727916717529297,-10.623616218566895,0.6305863857269287,23.376399993896484
0,156575,-10.047197341918945,-18.77363395690918,17.43990135192871,-96.0682144165039
0,156576,24.781429290771484,-14.180599212646484,-31.448471069335938,-22.60146713256836
0,156579,-25.464759826660156,39.26301956176758,1.1306278705596924,30.44537925720215
0,156580,-26.946266174316406,9.052170753479004,44.435081481933594,-2.3278841972351074
0,156583,60.88132858276367,-41.480709075927734,-33.00114440917969,52.21099090576172
0,156584,23.13374900817871,13.963995933532715,-8.661737442016602,72.72767639160156
0,156587,-70.87242126464844,-10.550251960754395,40.25801467895508,-80.60596466064453
0,156588,-36.450416564941406,-19.92858123779297,-25.99207305908203,-108.74629974365234
0,156591,123.77655029296875,55.35069274902344,-15.871232032775879,139.89764404296875
0,156592,57.75521469116211,15.247325897216797,23.736331939697266,108.63577270507812
0,156595,-203.2425079345703,-61.237518310546875,19.460792541503906,-149.82260131835938
0,156596,0.8178291320800781,-21.971782684326172,3.738022804260254,-21.107398986816406
0,156599,180.4970245361328,40.233245849609375,-36.607948303222656,98.5965805053711
0,156600,-89.80511474609375,1.918996810913086,-23.43206214904785,-35.486785888671875
0,156603,-94.95048522949219,-19.64943504333496,11.834315299987793,-47.210636138916016
0,156604,71.4528579711914,13.062905311584473,47.34030532836914,22.415935516357422
0,156607,41.721771240234375,-8.349143028259277,8.061003684997559,-31.962888717651367
0,156608,-27.510530471801758,-25.300073623657227,-68.36710357666016,-97.49652862548828
0,156611,-16.978910446166992,21.001630783081055,40.072608947753906,114.97543334960938
0,156612,13.437886238098145,6.557658672332764,45.66236877441406,158.6407012939453
0,156615,-6.914245128631592,0.8862452507019043,-79.22853088378906,-116.99079895019531
0,156616,5.470537185668945,46.35160446166992,-3.0794906616210938,-75.112548828125
0,156619,50.766761779785156,-48.53614807128906,43.839839935302734,30.281770706176758
0,156621,9.297422409057617,-51.972328186035156,-1.2763363122940063,-13.4760103225708
0,156690,-5.876256465911865,16.341049194335938,39.35164260864258,143.59371948242188
0,156691,-25.746295928955078,14.887407302856445,7.88417911529541,99.45671081542969
0,156694,-29.028993606567383,-19.55780601501465,-22.11894416809082,-360.3622741699219
0,156695,1.742721676826477,-26.65119743347168,-9.850591659545898,-135.0070037841797
0,156698,60.55440139770508,-11.440505981445312,-15.65279769897461,419.7947998046875
0,156699,23.240314483642578,32.25442886352539,23.525251388549805,76.10108947753906
0,156702,-83.31837463378906,-7.657449722290039,-13.450950622558594,-308.4455261230469
0,156703,-39.33317565917969,-12.947790145874023,-7.081227779388428,-2.8389697074890137
0,156706,77.58799743652344,91.18574523925781,76.5300521850586,151.5897979736328
0,156707,53.7475700378418,10.254992485046387,-7.910384178161621,-55.247947692871094
0,156710,-74.27317810058594,-60.54848861694336,-59.97895431518555,-9.839601516723633
0,156711,-48.194480895996094,46.842933654785156,7.83729887008667,127.71501159667969
0,156714,78.22889709472656,5.836418151855469,11.197786331176758,-137.97044372558594
0,156715,-13.03136157989502,-76.35596466064453,-16.650598526000977,-169.76673889160156
0,156718,-20.415842056274414,-45.22098922729492,24.638158798217773,129.38726806640625
0,156719,16.572696685791016,3.5637409687042236,14.414327621459961,76.6282958984375
0,156722,-27.40496063232422,26.442514419555664,-47.12930679321289,-77.27973937988281
0,156723,8.939525604248047,22.544841766357422,-0.5485069751739502,58.72800827026367
0,156726,31.15323257446289,28.8333740234375,46.11498260498047,115.52783203125
0,156727,-34.57720184326172,-8.055135726928711,11.626264572143555,-79.02411651611328
0,156730,-47.259559631347656,-53.980567932128906,-40.90283203125,-28.973371505737305
0,156731,43.388519287109375,-18.755556106567383,-67.7938461303711,-11.177776336669922
0,156734,140.65176391601562,56.588531494140625,56.34235382080078,-32.712406158447266
0,156735,5.350803375244141,25.8381404876709,59.89469528198242,72.8895263671875
0,156738,-181.53858947753906,-39.25251007080078,-58.8072509765625,-61.144004821777344
0,156739,3.4606800079345703,20.549793243408203,21.56190299987793,-0.5936939716339111
0,156742,51.87080383300781,27.013036727905273,3.1094744205474854,42.76581573486328
0,156743,-47.079627990722656,-11.923929214477539,-27.895347595214844,16.532329559326172
0,156746,29.7629337310791,6.29044246673584,22.650115966796875,16.563884735107422
0,156747,46.493106842041016,-3.917820930480957,22.242097854614258,-167.448486328125
0,156748,-38.01874923706055,-38.956504821777344,-2.302278518676758,-67.70597839355469
0,156751,-25.11093521118164,-28.781858444213867,-23.0869083404541,200.2454833984375
0,156752,51.298179626464844,-6.105258941650391,-35.24094772338867,155.3973388671875
0,156755,15.464280128479004,27.099058151245117,-25.768404006958008,-91.37103271484375
0,156756,-57.62641143798828,51.48097610473633,75.52993774414062,-145.35601806640625
0,156759,-8.732951164245605,0.2141638547182083,39.95012664794922,-9.350586891174316
0,156760,53.175636291503906,-31.13040542602539,-54.72634506225586,41.14564895629883
0,156763,26.125837326049805,-2.1766529083251953,-27.003164291381836,24.212778091430664
0,156764,25.339738845825195,57.07533645629883,19.399871826171875,-3.6697068214416504
0,156768,-54.954769134521484,3.0380704402923584,18.791263580322266,-7.478386402130127
0,156769,-73.45066833496094,-39.75067138671875,-10.018301010131836,75.1930160522461
0,156772,64.42759704589844,21.804981231689453,-8.135891914367676,-6.066514015197754
0,156773,7.32155179977417,-19.64505386352539,36.262474060058594,-41.67291259765625
0,156776,-112.50645446777344,-76.79026794433594,-37.436641693115234,-59.49849319458008
0,156777,54.88942337036133,-26.148723602294922,-89.39852905273438,-17.39179039001465
0,156780,104.32691955566406,58.83951187133789,103.58685302734375,116.50790405273438
0,156781,-106.75941467285156,22.007944107055664,82.99369812011719,-30.529855728149414
0,156784,0.02832319587469101,0.5710148215293884,-98.9783935546875,-18.346086502075195
0,156785,177.76637268066406,57.280967712402344,-8.305072784423828,74.92589569091797
0,156788,-19.796566009521484,-45.965980529785156,50.9691047668457,-66.53341674804688
0,156789,-172.93115234375,-79.46137237548828,-27.70294189453125,-66.5619888305664
0,156792,-50.63090515136719,11.548653602600098,-18.440895080566406,36.04204177856445
0,156793,99.9830322265625,29.643835067749023,0.9766119718551636,9.173555374145508
0,156796,34.685569763183594,64.0709228515625,-22.842504501342773,20.92949676513672
0,156797,-47.48554611206055,12.597390174865723,3.54589581489563,66.77001953125
0,156800,16.4016056060791,-39.96463394165039,81.41175079345703,-38.610206604003906
0,156801,20.319730758666992,0.08454947173595428,-0.9976112842559814,-121.13790130615234
0,156804,-1.769054889678955,-12.729033470153809,-90.94869232177734,3.0575013160705566
0,156805,13.53878402709961,-53.54517364501953,-21.51639747619629,120.1415786743164
0,156808,-21.34882164001465,49.987667083740234,48.28546142578125,133.4718475341797
0,156809,-42.74271774291992,96.30870056152344,61.19444274902344,3.84582257270813
0,156812,18.604095458984375,-70.66616821289062,17.962942123413086,-292.5044860839844
0,156813,9.95162582397461,-78.392578125,-4.245316982269287,-175.02267456054688
0,156816,-18.983978271484375,50.1112174987793,-111.3017807006836,177.1507568359375
0,156817,106.12944030761719,146.06158447265625,-40.47061538696289,164.0208740234375
0,156820,59.62799835205078,-3.302114725112915,144.85305786132812,32.76071548461914
0,156821,-156.0026397705078,-156.76443481445312,4.508133888244629,-76.99381256103516
0,156824,-63.67518997192383,-35.879966735839844,-92.55641174316406,-9.043128967285156
0,156825,64.86241912841797,-15.619016647338867,0.3954150974750519,90.03181457519531
0,156828,-18.04743194580078,-11.135564804077148,18.563745498657227,-102.09864044189453
0,156829,-27.34965705871582,38.46656799316406,2.1796531677246094,-66.06256103515625
0,156832,124.10628509521484,53.342979431152344,48.78257751464844,52.90311050415039
0,156833,61.307823181152344,25.879451751708984,1.380492925643921,-14.52190113067627
0,156834,-130.2879638671875,-47.876922607421875,-74.19547271728516,104.78707122802734
0,156837,4.646838665008545,27.967365264892578,69.61611938476562,294.8725280761719
0,156838,67.97017669677734,24.421419143676758,16.26459312438965,0.19576513767242432
0,156841,-81.94532775878906,-52.13751220703125,-156.1890411376953,-620.52099609375
0,156842,-39.086700439453125,58.60110092163086,58.141597747802734,-71.71670532226562
0,156845,73.96489715576172,2.228653907775879,113.39785766601562,517.7682495117188
0,156846,40.85348892211914,-78.8034439086914,-51.59272766113281,-15.081154823303223
0,156849,-62.07612228393555,55.673179626464844,-16.417133331298828,-310.6614990234375
0,156850,-59.95957946777344,44.34647750854492,18.995548248291016,-153.35232543945312
0,156853,24.843799591064453,-71.94911193847656,-39.816688537597656,331.3407287597656
0,156854,39.00890350341797,-38.756412506103516,-3.828442335128784,492.3778991699219
0,156857,23.32781219482422,5.335186958312988,45.446136474609375,-330.18475341796875
0,156860,-42.06608581542969,-10.263556480407715,-41.0294189453125,-712.6409301757812
0,156861,-18.855812072753906,60.27042770385742,0.8611389398574829,79.40951538085938
0,156862,78.55939483642578,39.92180633544922,59.15789794921875,403.99420166015625
0,156865,-51.398475646972656,-57.58123779296875,-39.389774322509766,155.12322998046875
0,156866,-16.40566635131836,-24.192073822021484,-1.3198484182357788,98.7270278930664
0,156869,44.440189361572266,37.623207092285156,36.32868576049805,-158.8879852294922
0,156870,-78.82080078125,80.9715576171875,-31.796451568603516,-177.1658477783203
0,156873,51.381858825683594,8.132108688354492,-13.426581382751465,119.89424896240234
0,156874,58.5990104675293,-96.5121078491211,3.022543430328369,35.486270904541016
0,156877,-14.127750396728516,-49.68141174316406,7.280879020690918,-71.92078399658203
0,156878,32.57535934448242,19.806640625,13.144289016723633,50.54816436767578
0,156881,-89.73283386230469,35.51938247680664,-2.8877601623535156,116.24476623535156
0,156882,-62.49111557006836,-15.091021537780762,4.571139335632324,-25.201444625854492
0,156885,183.92269897460938,-50.72584533691406,1.6973851919174194,-141.46263122558594
0,156886,3.3502585887908936,21.897275924682617,-63.7445068359375,-82.69610595703125
0,156889,-229.78079223632812,57.03905487060547,10.217561721801758,43.49299621582031
0,156890,37.518585205078125,-2.433854818344116,119.9084243774414,135.48739624023438
0,156893,216.7835693359375,10.078250885009766,-20.733638763427734,57.63259506225586
0,156894,81.2681655883789,91.60218811035156,-62.55767059326172,-104.22712707519531
0,156897,-185.39007568359375,79.38843536376953,28.615985870361328,-146.2518310546875
0,156898,-183.12062072753906,-89.6405029296875,-8.145164489746094,122.2896499633789
0,156901,37.837425231933594,-300.3537292480469,-44.599822998046875,-183.5386962890625
0,156902,109.43505096435547,-120.27727508544922,-45.00469970703125,-114.12796783447266
0,156905,65.61116027832031,283.0938415527344,8.38582706451416,654.0670776367188
0,156906,-113.66072845458984,84.18058013916016,32.70128631591797,38.447689056396484
0,156909,-46.40934371948242,-114.44012451171875,5.771605014801025,-508.5788879394531
0,156910,151.93658447265625,209.3516387939453,75.85332489013672,-75.5518798828125
0,156913,67.64105987548828,21.505258560180664,7.348873138427734,154.97378540039062
0,156914,-98.2025375366211,-319.2967224121094,-105.1069107055664,58.718902587890625
0,156917,-87.63351440429688,5.693026065826416,30.86931037902832,-55.65650177001953
0,156918,78.3126449584961,185.8922119140625,98.33953857421875,119.05767822265625
0,156921,-15.087811470031738,-22.675798416137695,-36.51585388183594,159.5150909423828
0,156922,-77.52079772949219,-36.94591522216797,-22.382352828979492,-66.55313110351562
0,156925,81.30891418457031,169.5142822265625,13.848550796508789,-380.4798889160156
0,156926,95.58489990234375,168.01071166992188,-2.4887075424194336,-155.652099609375
0,156929,30.620323181152344,-234.1884307861328,-7.018044948577881,408.81817626953125
0,156930,-105.51911163330078,-330.9847717285156,-106.95391845703125,399.9676208496094
0,156933,-93.930419921875,-55.26374435424805,-73.29360961914062,-261.1258850097656
0,156934,60.01095962524414,134.80062866210938,79.43980407714844,-566.8898315429688
0,156937,67.95108795166016,206.9327392578125,104.04865264892578,91.88179779052734
0,156938,-32.287471771240234,112.60320281982422,45.490386962890625,250.48153686523438
0,156941,-43.248905181884766,82.26226043701172,37.78588104248047,62.145790100097656
0,156942,15.869823455810547,-59.051971435546875,-43.54172897338867,182.31765747070312
0,156945,53.55274200439453,-261.1519775390625,-85.06422424316406,-163.51856994628906
0,156946,31.538209915161133,-30.69087791442871,-19.406339645385742,-340.28668212890625
0,156949,-68.9767074584961,151.03179931640625,10.50810432434082,395.8855285644531
0,156950,-46.17635726928711,-23.054506301879883,26.877864837646484,191.44419860839844
0,156953,13.71027946472168,-56.43973922729492,20.711416244506836,-401.2634582519531
0,156954,22.861482620239258,-24.910964965820312,10.20529556274414,62.70092010498047
0,156957,-28.06622886657715,25.46052360534668,-80.68956756591797,60.6463508605957
0,156958,4.662820816040039,17.37291717529297,-48.532325744628906,-27.75954246520996
0,156961,54.772918701171875,-62.76011657714844,127.92769622802734,110.85844421386719
0,156962,9.523804664611816,7.2151360511779785,-11.193297386169434,-56.24514389038086
0,156965,14.063324928283691,233.65359497070312,-73.46391296386719,-166.7144775390625
0,156967,-102.3809814453125,361.7281799316406,86.91041564941406,-31.796579360961914
0,156969,-43.79877853393555,63.221343994140625,7.292882442474365,124.02838897705078
0,156971,63.617034912109375,-636.4671020507812,-36.54897689819336,420.6878356933594
0,156973,-6.203124046325684,-738.8980102539062,24.57752799987793,109.82693481445312
0,156975,96.17705535888672,116.25843048095703,-23.950986862182617,-916.4549560546875
0,156977,77.90238189697266,309.4359436035156,-66.36468505859375,-85.67135620117188
0,156979,-58.65564727783203,423.6107177734375,-10.849199295043945,796.7120971679688
0,156981,-96.17481231689453,463.23138427734375,6.749007225036621,-216.30062866210938
0,156983,54.93549728393555,-213.10623168945312,107.93413543701172,-202.10633850097656
0,156985,191.0390167236328,-253.2352752685547,87.95709228515625,228.46070861816406
0,156987,-163.96084594726562,-112.46401977539062,-161.44378662109375,-87.15149688720703
0,156989,-243.83023071289062,-49.06742858886719,-56.77668380737305,-77.20787048339844
0,156991,109.80821990966797,112.34654998779297,105.63939666748047,-83.37643432617188
0,156993,18.75496482849121,142.05406188964844,0.279000461101532,-58.019832611083984
0,156995,-20.86797332763672,188.9772186279297,-10.301033020019531,359.0693359375
0,156997,98.47875213623047,-34.678043365478516,61.57331466674805,334.2425231933594
0,156999,-46.60451126098633,-242.0742645263672,34.3575325012207,-358.5516052246094
0,157001,-60.965980529785156,-165.27870178222656,-101.9467544555664,-437.1234436035156
0,157003,20.474740982055664,-244.88816833496094,-200.683349609375,69.01994323730469
0,157005,91.04918670654297,-155.1400909423828,65.20220947265625,328.7652893066406
0,157007,79.98531341552734,351.4798583984375,276.96697998046875,43.96361541748047
0,157009,-116.18627166748047,386.0431823730469,-62.37849426269531,-291.06622314453125
0,157011,-32.970577239990234,63.97401428222656,-170.2692108154297,100.8753662109375
0,157013,103.93912506103516,-88.95541381835938,106.9887466430664,187.36045837402344
0,157015,-73.79723358154297,-238.3772430419922,9.38418960571289,-180.79037475585938
0,157017,-49.17380142211914,-17.720834732055664,-35.676944732666016,10.83725643157959
0,157019,87.49340057373047,163.24169921875,59.40734100341797,68.84149932861328
0,157021,-4.322687149047852,-72.86949157714844,-76.75794219970703,-63.163917541503906
0,157023,-76.27599334716797,-67.88741302490234,-17.37367820739746,146.30548095703125
0,157025,-17.98636817932129,36.983238220214844,52.092437744140625,-71.67794036865234
0,157027,54.7473258972168,-197.949951171875,-4.668057441711426,-198.27532958984375
0,157029,105.53227233886719,-188.9257049560547,-43.95538330078125,121.39152526855469
0,157031,24.18109130859375,336.7660827636719,23.7857666015625,116.6806869506836
0,157033,-103.4691390991211,328.1985778808594,73.29918670654297,-69.5765151977539
0,157035,-43.559043884277344,-131.88302612304688,-140.7779541015625,-113.13306427001953
0,157037,-17.459728240966797,-129.87814331054688,-70.56336212158203,124.31536102294922
0,157039,-47.98609161376953,51.435646057128906,169.56040954589844,41.816253662109375
0,157041,14.387358665466309,53.37726593017578,129.84063720703125,-159.88290405273438
0,157043,57.22816467285156,94.83695220947266,14.712113380432129,190.18145751953125
0,157045,50.96298599243164,348.76092529296875,-61.86015701293945,144.9661865234375
0,157047,-113.51487731933594,-76.85627746582031,-156.03468322753906,-433.394775390625
0,157049,-86.22125244140625,-969.1168823242188,-93.5206069946289,-98.21458435058594
0,157051,306.78961181640625,-769.9152221679688,140.03468322753906,670.6447143554688
0,157053,264.1869812011719,292.5653076171875,75.97743225097656,43.126678466796875
0,157055,-82.19097137451172,973.9459228515625,-38.56787109375,-677.9512939453125
0,157057,-286.65716552734375,445.10992431640625,-105.41028594970703,-73.71390533447266
0,157059,-357.1062927246094,-354.49072265625,-85.30109405517578,419.059814453125
0,157061,288.3105163574219,-67.26184844970703,152.65281677246094,111.57917022705078
0,157063,390.8658752441406,208.55746459960938,102.10112762451172,-175.98440551757812
0,157065,-298.4425354003906,-109.03312683105469,-49.777164459228516,-28.685871124267578
0,157067,-223.59535217285156,-61.413150787353516,-27.054595947265625,-80.79248809814453
0,157069,-253.9081268310547,708.1492919921875,12.406393051147461,-54.028160095214844
0,157071,238.63873291015625,104.03392028808594,50.4251708984375,160.79270935058594
0,157073,640.5826416015625,-1152.8515625,-4.141181468963623,-49.90018081665039
0,157075,-330.87408447265625,-371.2839050292969,-97.98307800292969,-14.835200309753418
0,157077,-328.06732177734375,348.658447265625,23.147109985351562,134.8013153076172
0,157079,229.89825439453125,184.7434539794922,81.1581802368164,-79.37973022460938
0,157081,83.128173828125,-187.87596130371094,-72.66522979736328,-3.240004539489746
0,157083,-35.47182083129883,-184.71697998046875,-173.04385375976562,126.56517028808594
0,157085,-20.703285217285156,173.557373046875,-54.97700500488281,-44.96436309814453
0,157089,-96.81472778320312,146.47486877441406,154.41847229003906,-71.96492004394531
0,157089,-126.83930206298828,149.7548370361328,79.77880096435547,-102.71759033203125
0,157091,90.4923324584961,535.6128540039062,123.19384002685547,-44.678348541259766
0,157094,201.9153594970703,245.8048858642578,51.56745910644531,132.84532165527344
0,157095,-102.08075714111328,-401.14068603515625,-186.9601593017578,98.34618377685547
0,157098,-217.2210235595703,-360.65435791015625,3.011359453201294,-135.6956329345703
0,157099,119.56757354736328,-528.8677368164062,-7.497057914733887,-199.5489959716797
0,157102,199.76141357421875,-101.3847885131836,-24.564189910888672,185.38551330566406
0,157103,37.50515365600586,363.0315856933594,79.83055114746094,187.2603302001953
0,157106,-54.156742095947266,327.2918701171875,-106.61832427978516,-42.55360794067383
0,157107,-46.477169036865234,158.68048095703125,-71.83867645263672,-97.0561752319336
0,157110,-55.227142333984375,-321.5137023925781,98.94087982177734,-144.9715576171875
0,157111,-60.33955383300781,-6.056837558746338,76.79024505615234,-11.441817283630371
0,157114,-5.595147132873535,253.38461303710938,-55.12010192871094,67.6008071899414
0,157115,-8.008630752563477,16.05158805847168,-84.49335479736328,221.8655548095703
0,157118,35.4687385559082,88.25438690185547,73.04911804199219,38.554786682128906
0,157119,91.7331771850586,40.10915756225586,77.27339935302734,-31.271644592285156
0,157122,-33.74203109741211,-191.0562744140625,40.82524490356445,72.2992172241211
0,157123,-114.48332214355469,-177.4808349609375,-20.72084617614746,-300.5587158203125
0,157126,91.55863189697266,-71.69071197509766,-55.87961959838867,-77.89859771728516
0,157127,86.9007339477539,-73.33070373535156,33.5135498046875,190.4999237060547
0,157130,-78.39643096923828,-17.124996185302734,-59.04524230957031,-162.02383422851562
0,157131,36.837093353271484,92.52857971191406,-86.60736083984375,-75.00713348388672
0,157134,-8.349991798400879,251.2911376953125,65.11869812011719,286.89837646484375
0,157135,-198.0430145263672,324.13262939453125,88.9464340209961,38.169490814208984
0,157138,-71.10710906982422,281.14605712890625,-7.932008743286133,-215.1979522705078
0,157139,79.06562805175781,-260.9922180175781,-56.34218215942383,194.5580291748047
0,157142,255.88668823242188,-1092.1600341796875,-25.583942413330078,106.24576568603516
0,157143,281.2542724609375,-491.5337829589844,24.385618209838867,-418.5207824707031
0,157146,-164.62367248535156,470.92236328125,45.07599639892578,243.89712524414062
0,157147,-225.9219207763672,343.0144348144531,-73.71846008300781,435.45526123046875
0,157150,121.9183120727539,434.3329162597656,-226.07571411132812,-656.9154663085938
0,157151,235.97718811035156,226.7570343017578,81.11406707763672,-131.7763671875
0,157154,-347.2904968261719,-97.94943237304688,327.5657043457031,502.3505554199219
0,157155,-449.3638610839844,20.660335540771484,-8.56330394744873,-202.79843139648438
0,157158,341.48382568359375,-201.91201782226562,-118.79307556152344,-10.189889907836914
0,157159,164.97653198242188,126.73246002197266,29.79685401916504,136.06942749023438
0,157162,-155.49533081054688,213.9093017578125,-25.485313415527344,-169.0863800048828
0,157163,-34.477439880371094,-270.0232849121094,-63.793399810791016,10.87984848022461
0,157166,31.472957611083984,-103.44303131103516,21.090160369873047,142.10609436035156
0,157167,10.274575233459473,-0.48504406213760376,22.06671142578125,23.233186721801758
0,157170,51.407772064208984,-120.55908966064453,19.615047454833984,-97.75792694091797
0,157171,128.71482849121094,-157.16754150390625,14.067365646362305,31.57133674621582
0,157174,-120.14702606201172,-174.1861572265625,-99.84030151367188,9.605264663696289
0,157175,-151.94219970703125,28.39775848388672,-20.50611114501953,-54.06362533569336
0,157178,106.16096496582031,111.47815704345703,-44.862220764160156,2.058104991912842
0,157179,492.53961181640625,180.28611755371094,-26.414283752441406,-80.81635284423828
0,157182,110.04097747802734,501.0312194824219,273.1983337402344,-111.3742446899414
0,157183,-564.1135864257812,94.58612060546875,26.805686950683594,106.81295013427734
0,157186,-216.1984405517578,-433.8714294433594,-244.54139709472656,232.49639892578125
0,157187,87.2408676147461,-81.2951431274414,54.027706146240234,-85.27749633789062
0,157190,153.27232360839844,29.044677734375,119.15546417236328,-106.20379638671875
0,157191,98.29090118408203,-129.02508544921875,-70.98441314697266,84.33255767822266
0,157194,-137.24740600585938,18.194543838500977,18.239675521850586,73.02303314208984
0,157195,-24.85514259338379,-8.82119369506836,110.5470199584961,1.9338058233261108
0,157198,123.51625061035156,-125.42644500732422,-195.907958984375,-457.8037109375
0,157199,38.4035758972168,42.91167449951172,-186.86160278320312,-229.5041961669922
0,157200,-74.78219604492188,201.24368286132812,261.02911376953125,763.6277465820312
0,157203,-48.11497497558594,207.961181640625,102.90521240234375,263.7862854003906
0,157204,-27.56385040283203,68.23735809326172,-88.91262817382812,-304.9040832519531
0,157208,53.62429428100586,-329.637451171875,25.714006423950195,-106.12721252441406
0,157208,117.92182922363281,-248.17689514160156,-68.23375701904297,-287.2867736816406
0,157211,54.771385192871094,304.3453063964844,19.24017906188965,164.00048828125
0,157212,-14.77340030670166,121.04637908935547,22.270692825317383,268.0938415527344
0,157215,-165.05575561523438,-115.52779388427734,-51.56892395019531,-121.31492614746094
0,157216,-132.0173797607422,26.02099609375,25.64446449279785,-27.915775299072266
0,157219,49.01122283935547,-93.86671447753906,-21.049158096313477,7.616062164306641
0,157220,66.08432006835938,28.889026641845703,33.25102996826172,-35.089847564697266
0,157223,40.60631561279297,89.22386169433594,-36.421913146972656,51.067138671875
0,157224,-3.1394143104553223,-48.1177978515625,-114.64754486083984,-88.01514434814453
0,157227,-40.97829818725586,16.014616012573242,94.20381164550781,-117.28949737548828
0,157228,-15.11220932006836,-4.48729133605957,116.04418182373047,179.63955688476562
0,157231,19.064456939697266,-64.7159652709961,22.278165817260742,63.551124572753906
0,157232,63.587364196777344,-31.037261962890625,-56.0330696105957,-30.781885147094727
0,157235,-21.163785934448242,-65.73748779296875,-107.59757995605469,-92.7755355834961
0,157236,-4.818089008331299,-46.74843215942383,-40.719879150390625,-158.2628173828125
0,157239,218.88650512695312,208.57992553710938,95.06591796875,108.10456848144531
0,157240,-30.159423828125,128.7321014404297,132.55047607421875,116.45287322998047
0,157243,-335.2612609863281,-164.83749389648438,-28.42683982849121,-9.085906982421875
0,157244,-10.559178352355957,-34.10371398925781,-51.814720153808594,30.809642791748047
0,157247,136.26504516601562,107.19091796875,10.4512300491333,1.5712263584136963
0,157248,-75.0510025024414,-5.075287818908691,-164.79039001464844,-71.11123657226562
0,157251,41.86330032348633,-209.16677856445312,-77.78168487548828,-41.31004333496094
0,157252,186.38165283203125,-50.44632339477539,245.54800415039062,102.34857940673828
0,157255,-119.48827362060547,359.4947204589844,6.829629421234131,54.70757293701172
0,157256,-158.34861755371094,123.86277770996094,-93.38069915771484,-66.79434204101562
0,157259,134.63929748535156,-367.2707214355469,112.52825164794922,-59.89105987548828
0,157260,70.51055908203125,-345.11346435546875,-89.638916015625,-49.86009979248047
0,157263,26.23801040649414,422.4239196777344,-87.29501342773438,64.56641387939453
0,157264,-27.8443660736084,807.36669921875,141.74563598632812,24.73506736755371
0,157267,-163.75885009765625,-317.08984375,63.06080627441406,-26.552976608276367
0,157268,-4.058396339416504,-1056.7149658203125,-79.98800659179688,-44.57866668701172
0,157271,268.6797790527344,-706.8079833984375,-95.39042663574219,-92.07246398925781
0,157272,197.94630432128906,147.5201416015625,-47.96527862548828,72.22550964355469
0,157275,-157.34268188476562,1398.279052734375,69.05978393554688,133.50210571289062
0,157276,-158.3042755126953,679.574462890625,51.146514892578125,60.59507369995117
0,157279,-185.03536987304688,-799.5149536132812,-36.54861068725586,-50.005008697509766
0,157280,-239.2549591064453,-231.36932373046875,45.864662170410156,-92.63646697998047
0,157283,80.65393829345703,189.77914428710938,4.1795549392700195,-33.00332260131836
0,157284,380.4612121582031,-18.96587562561035,5.208799362182617,-31.59544563293457
0,157287,112.31372833251953,232.66455078125,88.2645034790039,87.43265533447266
0,157288,-311.6575927734375,72.01528930664062,-44.55088806152344,84.375244140625
0,157291,-32.00242233276367,-252.56393432617188,-69.41084289550781,-136.4256134033203
0,157292,142.68740844726562,-105.3391342163086,3.079512119293213,-33.92085647583008
0,157295,16.99985122680664,-64.0414810180664,-88.58767700195312,80.95701599121094
0,157296,125.97062683105469,-110.4090576171875,35.383338928222656,144.73207092285156
0,157299,-75.2367935180664,-86.97333526611328,36.66179656982422,-17.28270149230957
0,157300,-173.43629455566406,-112.65534973144531,-101.9894027709961,-317.7245178222656
0,157303,83.0718994140625,64.09940338134766,130.2278289794922,117.36334991455078
0,157304,-84.4929428100586,171.8784942626953,62.463172912597656,193.0611114501953
0,157307,87.86843872070312,193.36724853515625,-55.782386779785156,-192.33444213867188
0,157308,204.8970184326172,98.08414459228516,46.06757354736328,41.73102951049805
0,157311,-131.36668395996094,80.88760375976562,38.875511169433594,194.51536560058594
0,157312,-35.74924850463867,-20.62083625793457,-31.991416931152344,-68.04228973388672
0,157315,-11.421795845031738,-344.3748474121094,-3.704902172088623,-139.9317169189453
0,157316,-26.20180320739746,-58.04472732543945,56.08642578125,95.5523910522461
0,157319,48.29770278930664,117.20619201660156,-162.237060546875,69.26102447509766
0,157320,-3.4022216796875,-30.687705993652344,-165.021728515625,-224.7572784423828
0,157323,53.16630172729492,-161.32553100585938,67.82833862304688,-140.7864990234375
0,157325,97.86975860595703,-76.88822174072266,86.71466064453125,201.68629455566406
0,157327,-76.73635864257812,347.99212646484375,73.27941131591797,202.39474487304688
0,157329,-163.81256103515625,71.77143096923828,-19.382034301757812,-36.14064407348633
0,157331,4.323582172393799,-70.23999786376953,3.3388328552246094,-155.6253204345703
0,157333,50.47767639160156,141.46263122558594,67.88313293457031,-158.7893829345703
0,157335,30.239791870117188,-112.89070892333984,-43.13323211669922,164.67669677734375
0,157338,-10.51703929901123,-75.562744140625,0.4789416491985321,151.2554473876953
0,157339,-90.88973999023438,32.760986328125,9.496795654296875,-150.39793395996094
0,157341,68.64402770996094,-61.901123046875,-8.967402458190918,-14.183375358581543
0,157343,90.99816131591797,-46.444305419921875,28.355268478393555,91.24051666259766
0,157345,-108.8357162475586,-25.703197479248047,-148.53411865234375,-117.16387939453125
0,157347,-38.776065826416016,14.165839195251465,-179.01467895507812,-367.3585510253906
0,157349,61.61760330200195,132.3344268798828,172.5384063720703,380.7123718261719
0,157351,-42.846946716308594,97.8675308227539,197.2882537841797,613.8051147460938
0,157353,98.87088775634766,-166.09375,-61.15021896362305,-389.0994873046875
0,157355,29.52582550048828,-154.73785400390625,-32.05023956298828,-285.4670715332031
0,157357,-69.71060180664062,142.87765502929688,-54.25763702392578,188.10659790039062
0,157359,104.65817260742188,138.12860107421875,-21.846071243286133,-73.57202911376953
0,157361,-113.29679870605469,-80.51937103271484,137.79190063476562,-286.8031311035156
0,157363,17.326276779174805,-72.31957244873047,55.11753463745117,267.7610168457031
0,157365,114.82139587402344,20.613618850708008,-93.12300872802734,301.7206726074219
0,157367,-139.35484313964844,40.18281936645508,-112.6156997680664,-381.9911193847656
0,157369,-135.6151580810547,397.4848937988281,62.13225555419922,28.3813419342041
0,157371,-37.048744201660156,65.24254608154297,101.32382202148438,249.5020751953125
0,157373,92.08927154541016,-792.0496215820312,-114.90293884277344,-200.6996612548828
0,157375,-36.649688720703125,-162.89930725097656,-40.64318084716797,-128.73329162597656
0,157377,173.52215576171875,121.26709747314453,93.3430404663086,7.66561222076416
0,157379,332.2912902832031,-306.3312072753906,-102.83865356445312,-49.366783142089844
0,157381,-87.78877258300781,259.2813415527344,-41.3322639465332,314.4718933105469
0,157383,-152.9691619873047,578.7218627929688,123.63179779052734,275.2849426269531
0,157385,-201.1895751953125,292.9083251953125,84.2152099609375,-309.2773742675781
0,157387,-50.09390640258789,-71.84098815917969,31.67947006225586,-181.95870971679688
0,157389,178.84422302246094,-358.86785888671875,-133.8979034423828,38.42974090576172
0,157391,-92.49938201904297,86.69608306884766,-22.26923942565918,65.72290802001953
0,157393,-65.08818054199219,191.8193817138672,143.8506622314453,-12.322219848632812
0,157395,37.39412307739258,-256.506591796875,-57.498443603515625,-58.60887145996094
0,157397,-61.307552337646484,40.70360565185547,-112.43578338623047,66.30863952636719
0,157399,-29.306440353393555,118.9483871459961,65.9508285522461,-5.372026443481445
0,157401,38.682003021240234,-182.42591857910156,61.55238723754883,-15.957925796508789
0,157403,30.447940826416016,-196.99644470214844,-112.18226623535156,-2.2997565269470215
0,157405,102.52466583251953,-17.686166763305664,3.7408969402313232,53.440757751464844
0,157407,53.94495391845703,36.43446350097656,6.727149486541748,5.188835144042969
0,157409,68.71118927001953,-80.824462890625,-63.73249053955078,-40.71713638305664
0,157411,89.53854370117188,47.867347717285156,138.917724609375,36.924339294433594
0,157413,-234.2812957763672,144.78271484375,40.71330642700195,11.981080055236816
0,157415,-120.66876220703125,121.33940124511719,-44.22166442871094,29.444700241088867
0,157417,223.1700439453125,91.13220977783203,1.7252899408340454,-44.73225402832031
0,157419,86.03032684326172,-2.4961130619049072,-41.814170837402344,-80.89958953857422
0,157421,-235.7228240966797,-135.59506225585938,-48.161949157714844,36.1990966796875
0,157423,-115.08041381835938,-119.45069885253906,9.230013847351074,78.21337890625
0,157425,135.0190887451172,-63.97782516479492,65.55858612060547,-134.61399841308594
0,157427,-10.723618507385254,-46.338993072509766,-13.62876033782959,-150.26585388183594
0,157429,28.030569076538086,108.88956451416016,71.23685455322266,200.11866760253906
0,157431,75.21454620361328,116.72845458984375,57.478981018066406,265.0570373535156
0,157433,-129.26177978515625,-24.73971939086914,-246.82603454589844,-209.7774658203125
0,157435,-8.323986053466797,-40.32294845581055,-139.9423828125,-322.5341796875
0,157437,132.05661010742188,117.22175598144531,241.0664520263672,261.1650695800781
0,157439,92.82766723632812,56.16021728515625,169.5824737548828,217.5733642578125
0,157441,-103.67927551269531,-132.3386993408203,-94.79725646972656,-197.17877197265625
0,157443,-195.89675903320312,-60.59061813354492,-72.57830047607422,-63.18415451049805
0,157445,90.17151641845703,18.48386001586914,-4.633557319641113,156.58045959472656
0,157447,71.06878662109375,-49.60558319091797,-27.556245803833008,2.20855450630188
0,157449,-21.175872802734375,-163.53518676757812,34.95805740356445,-91.51622772216797
0,157451,50.77735900878906,54.68161392211914,55.99403381347656,-38.876399993896484
0,157453,-5.295828819274902,373.51641845703125,-83.87339782714844,-98.84986114501953
0,157455,2.0154101848602295,73.38191986083984,-61.35914611816406,79.51217651367188
0,157457,-82.32591247558594,-276.0962829589844,106.6577377319336,121.04645538330078
0,157459,-101.95274353027344,-64.25973510742188,60.7058219909668,-17.698516845703125
0,157461,97.89440155029297,139.62074279785156,-51.2342643737793,-21.803268432617188
0,157463,61.421958923339844,32.06950759887695,-17.358715057373047,11.159652709960938
0,157465,23.224666595458984,-117.57662963867188,-20.266925811767578,-35.16725540161133
0,157467,66.95855712890625,-69.04574584960938,-26.97296905517578,-94.65846252441406
0,157470,-58.36091232299805,38.79641342163086,62.07435989379883,-0.1374826282262802
0,157471,-28.997394561767578,27.165613174438477,14.250480651855469,127.15402221679688
0,157474,-17.121084213256836,-1.8052570819854736,-68.3989028930664,153.10084533691406
0,157475,-44.6965217590332,-33.07316589355469,-26.902624130249023,-90.17460632324219
0,157478,31.070938110351562,37.23772048950195,21.386470794677734,-178.27725219726562
0,157479,-19.136144638061523,84.5472412109375,40.02196502685547,20.081558227539062
0,157483,-23.973262786865234,-32.39836502075195,33.753684997558594,72.91584777832031
0,157483,51.08074188232422,-52.201168060302734,11.46269416809082,-6.354316711425781
0,157486,19.354040145874023,17.311508178710938,-49.076480865478516,-28.236312866210938
0,157487,6.196069240570068,-11.206927299499512,-38.38943099975586,-34.20661926269531
0,157490,27.781936645507812,-8.510099411010742,15.115528106689453,3.2871735095977783
0,157491,77.42417907714844,89.22679901123047,36.25715255737305,81.26410675048828
0,157494,-67.99295806884766,24.598417282104492,42.36066818237305,15.6731595993042
0,157495,-223.7071990966797,-33.76665115356445,-5.049269199371338,-82.23033905029297
0,157498,90.3349609375,-24.24190330505371,-38.58662414550781,-5.033997058868408
0,157499,104.93025207519531,-92.41661834716797,-28.18918228149414,113.70575714111328
0,157502,-37.36580276489258,22.30983543395996,42.7662353515625,-6.101548194885254
0,157503,72.25691986083984,79.57828521728516,45.646575927734375,-47.14410400390625
0,157506,-95.24420166015625,-68.37840270996094,-59.16639709472656,12.175055503845215
0,157507,-68.84351348876953,-56.65034103393555,-49.31645202636719,-30.220834732055664
0,157510,181.11642456054688,47.5835075378418,-15.857900619506836,38.82413864135742
0,157511,87.57111358642578,64.60509490966797,-0.11018596589565277,2.6950466632843018
0,157514,-168.85581970214844,8.25062084197998,62.18156814575195,-107.4925765991211
0,157515,-154.85987854003906,-36.86848449707031,21.69401741027832,-12.65438175201416
0,157518,123.73204803466797,-5.578553676605225,-21.07102394104004,76.95126342773438
0,157519,121.94456481933594,20.707103729248047,-3.1914117336273193,41.04426574707031
0,157522,-103.49724578857422,1.36935293674469,-17.761106491088867,-35.488311767578125
0,157523,-40.040069580078125,12.313578605651855,7.373102188110352,-1.9961837530136108
0,157526,62.404544830322266,-40.25377655029297,6.034975051879883,30.818689346313477
0,157527,0.0562158077955246,-20.28167724609375,3.9816548824310303,-91.32609558105469
0,157530,5.733328342437744,33.73260498046875,-5.661047458648682,16.2675838470459
0,157531,-9.16969108581543,-68.0258560180664,-4.313830852508545,121.54376220703125
0,157534,-43.88543701171875,-18.89082908630371,36.02549362182617,-76.89884185791016
0,157535,-12.96290397644043,68.62251281738281,-73.71465301513672,-172.56275939941406
0,157538,86.30953979492188,73.65208435058594,17.479116439819336,189.71604919433594
0,157539,29.768789291381836,-9.535601615905762,133.2373504638672,212.4324188232422
0,157542,-109.36453247070312,-79.56700134277344,-185.87464904785156,-229.6208953857422
0,157543,80.92240142822266,52.723106384277344,-95.61581420898438,-55.91657257080078
0,157546,20.68242073059082,39.04890441894531,300.4931640625,74.57305908203125
0,157547,-207.31629943847656,-111.18900299072266,-39.71285629272461,-96.8335952758789
0,157550,161.92208862304688,18.63160514831543,-182.06578063964844,84.9485092163086
0,157551,159.04258728027344,76.16576385498047,111.54664611816406,74.33851623535156
0,157554,-214.68057250976562,-91.24716186523438,29.589996337890625,-139.00900268554688
0,157555,-61.2761344909668,-59.774070739746094,-31.794254302978516,61.4512825012207
0,157558,75.0295181274414,57.34556579589844,-42.03152084350586,68.85183715820312
0,157559,59.618064880371094,87.85980987548828,-10.785874366760254,-98.91069030761719
0,157562,-25.482620239257812,124.35637664794922,85.23987579345703,-26.121051788330078
0,157563,129.3632049560547,44.525787353515625,54.58607864379883,86.0663070678711
0,157566,45.76411056518555,-221.6812744140625,-37.903404235839844,54.97615051269531
0,157567,-317.92376708984375,-85.54605102539062,-105.27910614013672,-110.73405456542969
0,157570,6.41934871673584,134.0955810546875,12.515297889709473,27.136138916015625
0,157571,163.00086975097656,-49.567649841308594,63.45023727416992,97.01376342773438
0,157574,-45.39883041381836,-49.4793701171875,-62.55118942260742,-97.25520324707031
0,157575,-34.33164596557617,34.719688415527344,-33.355316162109375,-70.7072525024414
0,157578,33.30389404296875,-13.439958572387695,60.693695068359375,19.697843551635742
0,157579,29.314918518066406,-13.232772827148438,36.42318344116211,7.549600124359131
0,157582,-31.15374183654785,33.8592529296875,-48.32520294189453,5.336353778839111
0,157583,-13.409750938415527,-58.66506576538086,-17.189970016479492,-38.73027801513672
0,157586,45.15679931640625,42.780189514160156,37.58295440673828,-37.716739654541016
0,157587,12.259058952331543,182.2920379638672,-45.18566131591797,179.14173889160156
0,157588,-55.7483024597168,-101.53291320800781,4.793447017669678,248.55612182617188
0,157591,69.45771789550781,-61.36605453491211,77.8646469116211,-165.8969268798828
0,157592,67.92689514160156,83.63250732421875,-13.920686721801758,-413.019287109375
0,157595,-96.88202667236328,-36.3177490234375,-22.863300323486328,331.412841796875
0,157596,-12.482284545898438,-23.700275421142578,15.535904884338379,489.47900390625
0,157599,-11.940019607543945,4.405475616455078,-9.114867210388184,-598.2960815429688
0,157600,-74.93128204345703,-40.61104202270508,2.279526710510254,-418.5138244628906
0,157603,65.17169952392578,1.437178134918213,52.25432586669922,376.2445983886719
0,157604,90.8812026977539,23.229095458984375,-74.73377227783203,192.0529327392578
0,157607,-43.0601921081543,-15.585959434509277,-149.7989044189453,-55.223880767822266
0,157608,-75.19175720214844,12.548236846923828,67.9993896484375,-243.6920166015625
0,157611,9.653347969055176,-12.825366020202637,144.5863494873047,-95.56731414794922
0,157612,57.0704460144043,24.36693572998047,27.663381576538086,262.804443359375
0,157615,21.277095794677734,65.61643981933594,-36.20356369018555,84.96168518066406
0,157616,1.8557913303375244,-67.22640228271484,-61.55752182006836,135.7882843017578
0,157619,-38.72431564331055,-20.407453536987305,17.140621185302734,-43.694679260253906
0,157620,-40.81867599487305,67.91075134277344,27.37443733215332,-358.43756103515625
0,157623,31.330209732055664,-84.61432647705078,-55.26334762573242,185.85438537597656
0,157624,24.693065643310547,-31.2270565032959,43.36266326904297,215.3873291015625
0,157627,-35.203643798828125,93.53060913085938,55.67473602294922,-185.70062255859375
0,157628,3.65905499458313,29.583961486816406,-75.69583129882812,-71.51697540283203
0,157631,51.90990447998047,-9.011980056762695,-22.07533073425293,60.663116455078125
0,157633,-20.213058471679688,-21.11119270324707,65.62025451660156,37.81438446044922
0,157635,-81.8854751586914,-70.3873519897461,-84.97408294677734,-88.25567626953125
0,157637,46.14820861816406,-9.94486141204834,-101.6478271484375,-6.761204242706299
0,157641,94.62317657470703,76.23623657226562,103.1868667602539,109.59201049804688
0,157641,-55.221031188964844,-13.401334762573242,76.03878021240234,-6.481823921203613
0,157642,50.45983123779297,-28.776762008666992,-27.017715454101562,8.756976127624512
0,157645,36.03366470336914,7.72403621673584,23.603225708007812,-41.764984130859375
0,157646,-91.31907653808594,-29.90156364440918,-23.25172996520996,-14.479787826538086
0,157649,-47.24631118774414,73.30170440673828,-38.97509002685547,45.887508392333984
0,157650,-15.763642311096191,73.71937561035156,65.58689880371094,-114.9659423828125
0,157653,36.29616165161133,-132.90013122558594,4.449263095855713,-49.671329498291016
0,157654,-89.4307632446289,-65.01475524902344,-22.95558738708496,83.46404266357422
0,157657,31.68484115600586,46.523921966552734,-45.32073211669922,7.532508850097656
0,157658,145.79568481445312,36.25865173339844,-35.923927307128906,-12.290057182312012
0,157661,-109.6916275024414,126.02857208251953,76.30979919433594,101.42876434326172
0,157662,-155.4673614501953,7.106987476348877,49.782432556152344,8.64016342163086
0,157665,141.65687561035156,-98.41123962402344,-14.450231552124023,-65.59210205078125
0,157666,182.75230407714844,6.410128593444824,-32.905670166015625,46.79070281982422
0,157669,-149.77606201171875,-141.71441650390625,-66.21437072753906,-30.53244400024414
0,157670,-45.444000244140625,-125.1271743774414,-93.068603515625,-57.6518669128418
0,157673,141.49180603027344,230.67623901367188,109.80525970458984,-21.63686180114746
0,157674,-4.370280742645264,142.11192321777344,162.78036499023438,33.30298614501953
0,157677,-72.0123519897461,-72.3725814819336,-91.18386840820312,208.67445373535156
0,157678,21.983476638793945,-44.53826904296875,-96.80772399902344,-137.31707763671875
0,157681,-2.190572500228882,-77.45230102539062,27.89769744873047,-368.88214111328125
0,157682,-51.27887725830078,-1.4248123168945312,67.12666320800781,173.21273803710938
0,157685,5.86891508102417,66.6456069946289,8.975460052490234,267.2286682128906
0,157686,-94.29019165039062,-44.3074836730957,-84.16047668457031,-22.65079116821289
0,157689,36.599578857421875,8.431405067443848,16.77620506286621,-28.346996307373047
0,157690,169.73095703125,120.9271469116211,102.86202239990234,45.08600616455078
0,157693,-89.50276947021484,-7.007770538330078,20.054092407226562,-122.5971450805664
0,157694,-57.40860366821289,-78.90879821777344,-73.87318420410156,-225.16969299316406
0,157697,126.85999298095703,-33.981178283691406,-124.69818115234375,288.1410217285156
0,157698,95.0869140625,12.291569709777832,20.171916961669922,138.78099060058594
0,157701,-103.74894714355469,31.0509033203125,156.5388641357422,-312.3568420410156
0,157702,-183.6715545654297,-14.101251602172852,1.2849771976470947,62.57119369506836
0,157705,80.89552307128906,16.606525421142578,-84.4744873046875,113.7592544555664
0,157706,78.8401107788086,17.594600677490234,-4.399062156677246,-97.68257904052734
0,157709,-39.5989990234375,-28.428373336791992,4.567406177520752,-9.56921672821045
0,157710,13.755627632141113,-17.22667121887207,-18.015378952026367,75.38764953613281
0,157713,-16.509489059448242,-2.6979715824127197,1.2602754831314087,69.9783935546875
0,157714,-31.197229385375977,10.645136833190918,27.185014724731445,-8.492339134216309
0,157717,13.84642505645752,-8.754522323608398,12.159689903259277,-96.27953338623047
0,157718,19.24076271057129,-6.864259243011475,28.96893310546875,-63.18989181518555
0,157721,-20.90674591064453,49.4776611328125,-36.634883880615234,-57.718204498291016
0,157722,45.1451301574707,-2.445195436477661,-108.07628631591797,231.6055450439453
0,157725,22.787357330322266,-87.82347869873047,13.61434555053711,306.85693359375
0,157726,-63.615150451660156,-4.752314567565918,73.80255126953125,-343.2067565917969
0,157729,17.666282653808594,89.35938262939453,55.217376708984375,-364.52947998046875
0,157730,5.7532782554626465,-6.660815238952637,2.0346145629882812,197.41122436523438
0,157733,-19.056291580200195,-27.976518630981445,-41.43631362915039,113.62689971923828
0,157734,25.23653793334961,34.91999435424805,31.11786460876465,-107.336181640625
0,157737,-15.421268463134766,-12.092743873596191,15.910233497619629,116.12755584716797
0,157738,-26.599132537841797,-1.831493854522705,-18.32648468017578,83.72665405273438
0,157741,-17.205419540405273,6.343443870544434,-1.9387145042419434,-181.32113647460938
0,157742,14.85605525970459,-26.799102783203125,-6.480737209320068,7.896834850311279
0,157745,66.10395812988281,-46.122413635253906,-96.41315460205078,144.93368530273438
0,157746,33.653587341308594,-2.3732783794403076,-129.00152587890625,-81.43791961669922
0,157749,-18.49052619934082,52.16376495361328,133.7552490234375,-37.62936019897461
0,157750,-89.33167266845703,-5.360974311828613,146.455810546875,160.01588439941406
0,157753,-28.12497329711914,33.39490509033203,-53.29924011230469,-25.901412963867188
0,157754,131.61337280273438,89.24596405029297,11.242095947265625,-168.3501434326172
0,157757,-34.37622833251953,-56.526641845703125,4.23842716217041,104.24606323242188
0,157758,-101.88947296142578,-117.63349914550781,-38.999813079833984,23.44738006591797
0,157761,101.92681884765625,41.25202941894531,26.131603240966797,-186.17926025390625
0,157762,19.608076095581055,52.25570297241211,29.99199104309082,125.28319549560547
0,157765,-103.8519515991211,-49.325016021728516,-55.81681823730469,276.6580810546875
0,157766,-61.542423248291016,-26.336456298828125,-67.18679809570312,-283.35333251953125
0,157769,100.32569885253906,9.854471206665039,57.914398193359375,-278.6249084472656
0,157770,159.2875213623047,43.61374282836914,52.26518630981445,346.3939514160156
0,157773,-104.05604553222656,17.2650089263916,-31.25590705871582,68.56536102294922
0,157774,-125.60960388183594,-55.85492706298828,-52.33365249633789,-212.69447326660156
0,157777,85.3873519897461,9.95910930633545,-11.873817443847656,81.2210922241211
0,157778,30.285417556762695,39.968753814697266,60.694114685058594,72.56763458251953
0,157781,-51.40917205810547,-31.53879737854004,-22.491897583007812,-77.78073120117188
0,157783,21.86701011657715,-11.683560371398926,-28.040712356567383,8.8004789352417
0,157785,37.22697830200195,51.294410705566406,94.8538589477539,37.33867263793945
0,157787,-47.02639389038086,-18.871828079223633,2.466008424758911,-50.35468292236328
0,157789,15.271883010864258,5.596385478973389,-70.80411529541016,31.174671173095703
0,157791,76.60563659667969,70.20868682861328,-7.627434253692627,81.52611541748047
0,157793,-77.24724578857422,-110.23114013671875,-1.2281643152236938,-37.55847930908203
0,157795,-64.4212646484375,-39.252506256103516,-9.452898979187012,-43.53794860839844
0,157797,34.055519104003906,53.28171157836914,14.887639045715332,10.737102508544922
0,157799,9.31714916229248,-40.72593307495117,23.632095336914062,-25.022613525390625
0,157801,19.379812240600586,54.944488525390625,4.981461524963379,-18.296016693115234
0,157803,12.757369995117188,64.79412078857422,15.200835227966309,33.09941101074219
0,157805,-40.67319869995117,-59.285606384277344,20.281660079956055,-18.504640579223633
0,157807,-50.078250885009766,-16.1307430267334,75.16134643554688,-23.965436935424805
0,157809,27.232948303222656,-41.33721160888672,-125.1059799194336,-12.018111228942871
0,157812,223.02113342285156,-40.26991271972656,-170.7162628173828,-17.279687881469727
0,157813,54.061920166015625,145.11984252929688,179.8020782470703,107.60762786865234
0,157815,-275.0068664550781,31.737592697143555,46.2695426940918,-2.9603958129882812
0,157817,-79.18003845214844,-96.59486389160156,-69.72819519042969,-72.85118103027344
0,157819,65.2270736694336,49.30859375,47.42741775512695,47.26719665527344
0,157821,68.99519348144531,41.73605728149414,12.70482063293457,9.846181869506836
0,157823,42.1063232421875,-126.82569885253906,-77.74821472167969,-0.03433363512158394
0,157825,-104.68415832519531,-37.799110412597656,-65.17955780029297,-52.73755645751953
0,157827,-40.25033187866211,91.55215454101562,100.6801986694336,-69.7977066040039
0,157829,106.88938903808594,20.320730209350586,62.35165023803711,110.95906066894531
0,157831,27.020532608032227,-37.38676071166992,-60.92181396484375,168.5126190185547
0,157833,-85.92137145996094,-33.310428619384766,-51.065269470214844,-106.7553482055664
0,157835,12.611187934875488,-15.934226036071777,7.052954196929932,-163.94229125976562
0,157837,50.956356048583984,-16.830474853515625,36.276519775390625,139.1262664794922
0,157839,-5.833111763000488,31.362226486206055,22.832765579223633,8.823019027709961
0,157841,14.076116561889648,97.66702270507812,-14.124673843383789,-149.54283142089844
0,157843,19.350069046020508,6.83949613571167,1.3204292058944702,89.16765594482422
0,157845,-37.77210235595703,-35.45610427856445,56.43505096435547,31.054046630859375
0,157847,-10.38123607635498,37.47584533691406,-13.673884391784668,-132.5362548828125
0,157849,41.42007827758789,-30.009719848632812,-42.06110382080078,44.11524963378906
0,157851,-40.272891998291016,-36.824214935302734,-0.4004780054092407,101.26869201660156
0,157853,-69.20362091064453,-17.133769989013672,-23.527421951293945,-96.10282135009766
0,157855,39.441287994384766,-21.36618423461914,2.2302236557006836,12.700276374816895
0,157857,78.21865844726562,40.522708892822266,5.323085784912109,93.28350830078125
0,157859,-11.542949676513672,0.8498024940490723,15.611855506896973,-82.001708984375
0,157861,-33.99848556518555,-30.739072799682617,-18.38254737854004,41.79771041870117
0,157863,7.821860313415527,18.80852508544922,-35.09755325317383,106.2867431640625
0,157865,-21.848817825317383,40.07815933227539,100.23834991455078,-68.98047637939453
0,157867,-43.21199035644531,-15.984243392944336,43.319313049316406,-109.95024871826172
0,157869,41.496952056884766,-54.72079849243164,-162.847412109375,-30.98137092590332
0,157871,100.83226776123047,36.861183166503906,-44.08466339111328,91.47698974609375
0,157873,-74.15071868896484,62.672855377197266,140.4972381591797,69.60259246826172
0,157875,-85.63423919677734,-40.06559753417969,-21.889751434326172,19.45932388305664
0,157877,75.61109924316406,-50.36839294433594,-39.071781158447266,-40.6558952331543
0,157879,2.2362592220306396,15.795342445373535,89.17503356933594,-134.83572387695312
0,157881,11.271649360656738,26.140796661376953,-16.22271728515625,22.089929580688477
0,157883,43.191307067871094,-12.690885543823242,-68.86064910888672,128.42205810546875
0,157885,-64.01473236083984,10.69304084777832,2.594770908355713,-21.493398666381836
0,157887,-52.74646759033203,7.51237678527832,33.901634216308594,-105.1277084350586
0,157889,37.74027633666992,-9.020723342895508,44.77388000488281,47.25798797607422
0,157891,41.58246994018555,25.08382225036621,7.8185296058654785,64.02970123291016
0,157893,-27.589256286621094,-59.46354675292969,-44.9327507019043,-81.48641967773438
0,157895,-24.176727294921875,-35.532657623291016,-12.943931579589844,-28.192598342895508
0,157897,33.51890182495117,48.25290298461914,42.24016189575195,172.39471435546875
0,157899,-12.862661361694336,-19.936525344848633,-123.09687805175781,48.58484649658203
0,157901,55.29886245727539,129.52801513671875,-57.12178421020508,-255.22842407226562
0,157903,2.174504280090332,147.66896057128906,209.98495483398438,-14.398269653320312
0,157905,-158.4108123779297,-262.05450439453125,-36.185020446777344,146.491455078125
0,157907,123.66878509521484,-162.079833984375,-85.38619995117188,-27.255855560302734
0,157909,185.5346221923828,163.39276123046875,51.42866897583008,33.305267333984375
0,157911,-155.97096252441406,29.57126235961914,-30.003625869750977,-35.25673294067383
0,157913,-188.15354919433594,-5.156942367553711,55.37247848510742,-105.210693359375
0,157915,49.032840728759766,12.190458297729492,15.664518356323242,77.74166107177734
0,157917,116.4955062866211,-38.453609466552734,-67.70069885253906,14.660719871520996
0,157919,12.102157592773438,-1.453626275062561,0.8966588377952576,-87.20549774169922
0,157921,-18.381729125976562,-22.31905746459961,-1.6760172843933105,82.09632110595703
0,157923,5.723850727081299,-21.00402069091797,9.593235969543457,111.8278579711914
0,157925,-38.3198356628418,45.338844299316406,36.07255554199219,-7.426816940307617
0,157927,-35.25246047973633,22.683063507080078,6.441066265106201,-29.32152557373047
0,157929,39.89624786376953,7.776861190795898,-21.282499313354492,-15.343555450439453
0,157931,30.101835250854492,51.76390838623047,-16.827991485595703,-16.58312225341797
0,157933,-3.449237585067749,35.47393798828125,25.849111557006836,-137.9465789794922
0,157935,-0.7398427724838257,-51.65391159057617,-4.799508571624756,-29.953475952148438
0,157937,22.38422393798828,-65.07054901123047,-13.602325439453125,153.1492156982422
0,157939,-22.214588165283203,6.384881019592285,26.286800384521484,-14.182178497314453
0,157941,-19.30396842956543,-31.076997756958008,-25.028831481933594,26.526798248291016
0,157943,54.1810188293457,1.196230411529541,-15.38943099975586,38.58212661743164
0,157946,-12.5565767288208,79.93297576904297,20.369606018066406,-134.63558959960938
0,157947,-71.65501403808594,-2.7876222133636475,-10.301124572753906,-38.357086181640625
0,157950,32.02925109863281,-59.2632942199707,-14.303048133850098,145.45101928710938
0,157951,37.294437408447266,2.4813930988311768,29.645750045776367,54.473106384277344
0,157954,-55.833187103271484,63.602481842041016,36.28816223144531,-148.07867431640625
0,157955,-37.97072219848633,10.14587116241455,-16.0903263092041,-7.971590995788574
0,157958,51.16331481933594,-87.36537170410156,-62.563987731933594,152.8905792236328
0,157959,68.97286987304688,-17.684965133666992,-49.859405517578125,-79.1566390991211
0,157960,-47.077999114990234,82.79357147216797,60.81414794921875,-122.62379455566406
0,157963,-36.85251235961914,1.276840329170227,32.492027282714844,163.11309814453125
0,157964,67.18589782714844,-39.71565246582031,-28.20471954345703,35.89394760131836
0,157967,-33.696712493896484,14.416415214538574,44.01394271850586,-108.62232971191406
0,157968,-81.99915313720703,-9.195332527160645,-2.1028082370758057,9.638801574707031
0,157971,71.82950592041016,-15.341983795166016,-36.78875732421875,-53.248817443847656
0,157972,47.08526611328125,27.269468307495117,7.039101600646973,31.032114028930664
0,157975,-41.94837188720703,-8.712688446044922,4.348394393920898,93.14376068115234
0,157976,9.366430282592773,-22.7591552734375,11.478261947631836,-22.03886604309082
0,157979,-7.962095737457275,-27.053646087646484,8.305758476257324,-61.78542709350586
0,157980,-51.919525146484375,7.62871789932251,-6.8875250816345215,-31.723114013671875
0,157983,4.130853176116943,101.9017562866211,1.5245983600616455,100.47737121582031
0,157984,52.42549133300781,18.24410629272461,-7.178908348083496,10.545222282409668
0,157987,13.362922668457031,-67.07562255859375,-27.653711318969727,-81.28994750976562
0,157988,-13.271353721618652,-31.223243713378906,9.946117401123047,31.776348114013672
0,157991,6.685601711273193,10.594399452209473,29.4937801361084,22.851394653320312
0,157992,-21.890933990478516,36.62474060058594,-24.643291473388672,8.306899070739746
0,157998,-65.02591705322266,-9.870650291442871,-17.785348892211914,-170.29541015625
0,157998,-5.304956436157227,-50.097564697265625,20.071247100830078,-180.18959045410156
0,157999,71.28536224365234,-18.594970703125,-11.301599502563477,199.41770935058594
0,158000,66.10362243652344,19.58910369873047,19.28891372680664,264.35516357421875
0,158003,6.820459842681885,34.04220962524414,13.373497009277344,42.280452728271484
0,158004,-88.86234283447266,27.12577247619629,-16.89018440246582,-117.755126953125
0,158007,68.86788940429688,90.11984252929688,40.99191665649414,-143.43101501464844
0,158008,249.9155731201172,48.30481719970703,42.61491394042969,13.736618995666504
0,158011,-152.8228759765625,-232.1608428955078,-104.509765625,213.43447875976562
0,158012,-264.64007568359375,-197.70814514160156,-148.39695739746094,75.5302734375
0,158015,73.41825866699219,210.2941436767578,152.05728149414062,-184.5496063232422
0,158016,-57.25455856323242,237.78912353515625,167.01353454589844,-154.49923706054688
0,158019,-28.394039154052734,-97.17247009277344,-94.74166870117188,0.4446757435798645
0,158020,152.51681518554688,-130.6666259765625,-78.71183013916016,72.35794830322266
0,158023,-10.44699764251709,8.622196197509766,-2.33600115776062,46.0523796081543
0,158024,-82.41851806640625,-4.547881603240967,4.34450101852417,-39.72121810913086
0,158027,-15.409523963928223,-2.87821888923645,20.026376724243164,-55.622215270996094
0,158028,28.49506187438965,30.374500274658203,9.233006477355957,50.830284118652344
0,158031,22.90340805053711,50.05762481689453,14.028614044189453,54.716758728027344
0,158032,43.23458480834961,9.76153564453125,-5.632606029510498,-27.12994384765625
0,158035,66.09918212890625,-56.60015869140625,-39.76097869873047,42.54414749145508
0,158036,5.316210746765137,-1.9237885475158691,7.394225120544434,53.011863708496094
0,158039,-29.82052230834961,29.46420669555664,20.67650604248047,-79.26988983154297
0,158040,-28.505916595458984,-23.2967586517334,-2.71659517288208,-53.148380279541016
0,158043,-11.618603706359863,-15.71729564666748,-0.22597265243530273,33.31159973144531
0,158044,-14.216964721679688,12.988617897033691,-5.390473365783691,-20.261343002319336
0,158047,-50.246337890625,-20.886445999145508,7.023271083831787,-22.21074867248535
0,158048,-15.385565757751465,-29.44525718688965,-3.3011069297790527,87.60350799560547
0,158051,36.523868560791016,56.67082977294922,-41.16907501220703,-26.593626022338867
0,158052,67.02522277832031,52.39579772949219,-9.874162673950195,-126.89965057373047
0,158055,58.62452697753906,-43.27836990356445,48.5073127746582,93.73375701904297
0,158056,-37.4322395324707,-30.809871673583984,57.03120422363281,116.73432159423828
0,158059,-103.3394546508789,-25.318828582763672,-58.5788459777832,-66.64021301269531
0,158060,-40.342010498046875,7.854221343994141,-76.53318786621094,2.294563055038452
0,158063,47.39959716796875,188.02352905273438,91.8895034790039,9.015421867370605
0,158064,100.88157653808594,32.901695251464844,44.77690124511719,-89.66078186035156
0,158067,140.71714782714844,-211.32608032226562,-58.002784729003906,-22.20802116394043
0,158068,-66.50439453125,-27.02495765686035,30.089906692504883,49.748695373535156
0,158071,-251.5124969482422,56.90631866455078,29.70334243774414,63.30601501464844
0,158072,-12.031744956970215,-24.4374942779541,-43.561988830566406,-41.286014556884766
0,158075,126.44456481933594,9.387842178344727,-26.556943893432617,-23.0056095123291
0,158076,21.409894943237305,26.233423233032227,10.872367858886719,78.328125
0,158079,-14.997050285339355,-34.43636703491211,10.523488998413086,-58.88043212890625
0,158080,6.301898956298828,-29.689619064331055,-3.0085630416870117,-45.61918640136719
0,158083,-3.163069486618042,14.965492248535156,-9.640235900878906,75.50782012939453
0,158084,-45.32199478149414,9.638378143310547,-15.468554496765137,-33.86827087402344
0,158087,-30.888526916503906,5.78746223449707,0.09187623113393784,-35.76169204711914
0,158088,46.557167053222656,12.729097366333008,22.213237762451172,59.39204406738281
0,158091,53.90376663208008,25.754234313964844,10.770066261291504,-12.252328872680664
0,158092,-37.57691192626953,27.63351821899414,-10.964749336242676,-12.903046607971191
0,158095,9.526127815246582,-2.7666547298431396,-0.29156404733657837,45.40023422241211
0,158096,82.66761016845703,-21.344079971313477,-1.7940232753753662,19.931917190551758
0,158099,-24.464263916015625,-1.1429389715194702,1.8324164152145386,-76.04271697998047
0,158100,-70.70445251464844,-10.173090934753418,5.396908283233643,-56.12132263183594
0,158103,2.6124424934387207,-27.09135627746582,-12.464279174804688,92.5584945678711
0,158104,4.536337375640869,-18.52789306640625,-5.969635963439941,-13.512585639953613
0,158107,-19.017580032348633,15.474698066711426,-3.720367431640625,-61.87744903564453
0,158108,29.824098587036133,45.688350677490234,12.95044231414795,111.91514587402344
0,158111,9.2488374710083,-13.389689445495605,-20.065738677978516,-34.075706481933594
0,158112,-39.62971496582031,-7.041282653808594,11.612586975097656,-166.11033630371094
0,158115,34.87174987792969,46.52405548095703,77.29241943359375,189.09591674804688
0,158116,42.67634963989258,-20.504457473754883,-19.7756290435791,248.58177185058594
0,158119,-102.0156021118164,-80.7210922241211,-77.22081756591797,-331.7153015136719
0,158120,-0.07280111312866211,-3.39685320854187,-82.92117309570312,-309.254150390625
0,158123,96.060546875,32.6278076171875,21.656496047973633,322.04168701171875
0,158124,-80.98902130126953,-2.739278554916382,143.1286163330078,199.6685028076172
0,158127,-18.837289810180664,47.355716705322266,-20.605846405029297,-155.32183837890625
0,158128,86.94058990478516,14.758212089538574,-45.79881286621094,-82.08527374267578
0,158131,-15.25527286529541,-35.279205322265625,87.9487075805664,17.878507614135742
0,158132,-70.4261245727539,-10.993217468261719,-20.161550521850586,37.17118453979492
0,158135,56.76863479614258,29.314363479614258,-76.89950561523438,46.622772216796875
0,158136,87.85306549072266,61.01713943481445,40.66196060180664,40.689056396484375
0,158139,-58.89738845825195,-33.532779693603516,36.45846176147461,-82.80521392822266
0,158140,-57.78489685058594,-83.57164764404297,-43.255435943603516,-4.212235927581787
0,158143,26.308847427368164,26.68927574157715,-18.044540405273438,78.38200378417969
0,158145,0.6048327684402466,-0.14914937317371368,1.169956922531128,-85.06304168701172
0,158147,-29.288890838623047,-39.50257110595703,-24.51314926147461,-23.66790771484375
0,158149,8.168597221374512,39.38991165161133,2.8161745071411133,93.00935363769531
0,158151,6.206873893737793,0.8095613121986389,12.135457038879395,-33.34971618652344
0,158153,-0.0003063245676457882,-15.768028259277344,-30.410839080810547,-76.80686950683594
0,158155,17.72182273864746,48.01024627685547,25.22930335998535,31.37872886657715
0,158157,-1.6632906198501587,-5.216032981872559,86.22381591796875,36.391422271728516
0,158159,0.18304495513439178,-20.14554786682129,-43.684417724609375,-40.79924774169922
0,158161,27.938255310058594,30.522069931030273,-51.982181549072266,57.70037078857422
0,158163,-20.264522552490234,-48.46150207519531,57.46635437011719,23.08917236328125
0,158165,-57.840431213378906,-13.192176818847656,-5.549638271331787,-175.39649963378906
0,158167,13.98061466217041,27.979528427124023,-22.269126892089844,91.32818603515625
0,158169,67.31826782226562,-21.271738052368164,-4.439698696136475,171.03318786621094
0,158171,7.286388397216797,63.83385467529297,-12.721054077148438,-104.1716537475586
0,158173,-69.04364013671875,22.033023834228516,-11.265546798706055,0.12895794212818146
0,158175,-41.7562255859375,-77.56602478027344,20.21637535095215,-24.80510902404785
0,158177,56.24770736694336,-31.50830841064453,39.60626983642578,-145.76771545410156
0,158180,82.71285247802734,25.583511352539062,-61.18110275268555,80.99677276611328
0,158181,10.625776290893555,71.59378051757812,-21.217985153198242,123.31580352783203
0,158184,-104.95320129394531,-15.561105728149414,96.37461853027344,-15.605175018310547
0,158185,-64.73662567138672,-64.90963745117188,12.640142440795898,-56.17926788330078
0,158188,67.29497528076172,38.381134033203125,-82.73473358154297,-23.40755844116211
0,158189,29.816068649291992,5.2976274490356445,-3.0714430809020996,61.23963165283203
0,158192,-14.82551383972168,-18.53520965576172,57.98795700073242,-26.41706085205078
0,158195,12.10897445678711,-4.293429851531982,-14.588531494140625,-59.31266784667969
0,158195,12.618368148803711,-27.10005760192871,-18.001100540161133,57.4448356628418
0,158197,-17.622909545898438,40.421817779541016,8.456560134887695,19.84952163696289
0,158199,-9.512957572937012,34.03074264526367,-8.217720031738281,-38.22264862060547
0,158201,10.045379638671875,-24.003650665283203,-14.151801109313965,1.6522568464279175
0,158203,-9.70681381225586,10.800630569458008,9.490589141845703,34.29317092895508
0,158205,-2.0649940967559814,6.100096225738525,40.17900085449219,-24.575559616088867
0,158207,23.825481414794922,-45.77043151855469,-2.007693290710449,-16.771575927734375
0,158209,18.008604049682617,-8.891502380371094,-49.505455017089844,53.342891693115234
0,158211,-11.737188339233398,40.52040100097656,9.779251098632812,-31.444589614868164
0,158213,-26.73331069946289,21.11658477783203,45.91655349731445,-54.60612869262695
0,158215,-12.138511657714844,-36.17538070678711,-72.18143463134766,37.6995735168457
0,158217,38.46150207519531,-35.70533752441406,-32.17665100097656,47.678035736083984
0,158219,-23.59156036376953,18.194047927856445,79.211669921875,-54.14813995361328
0,158221,-47.48065185546875,-16.726896286010742,-24.453975677490234,-86.06168365478516
0,158223,43.29283142089844,21.94525909423828,-38.77149200439453,129.8292999267578
0,158225,-1.4767448902130127,89.59016418457031,69.12387084960938,47.89116287231445
0,158227,23.03247833251953,0.8377241492271423,49.06515121459961,-141.76828002929688
0,158229,59.426998138427734,-92.70169067382812,-45.948150634765625,106.56561279296875
0,158231,-97.27079010009766,-60.99678039550781,-70.59354400634766,33.92356491088867
0,158233,-81.94090270996094,56.15330505371094,14.129507064819336,-132.4653778076172
0,158235,136.4803009033203,80.21544647216797,56.85457229614258,123.18230438232422
0,158237,67.5379867553711,1.4270693063735962,4.380843639373779,26.111217498779297
0,158239,-108.1681137084961,-88.40384674072266,-15.224261283874512,-214.15704345703125
0,158241,-20.86830711364746,-24.547510147094727,15.368077278137207,40.30922317504883
0,158243,58.328243255615234,63.679420471191406,6.619289398193359,189.4150390625
0,158245,-6.750888824462891,-30.128257751464844,-46.12203598022461,-24.826871871948242
0,158247,-22.29866600036621,0.4941592812538147,7.4657416343688965,-67.17073059082031
0,158249,-0.9974069595336914,52.44145965576172,43.40279006958008,79.09246063232422
0,158251,-27.45516014099121,-34.88311004638672,-27.858993530273438,-103.1415786743164
0,158253,17.642993927001953,0.9093171954154968,-12.286643981933594,-153.92970275878906
0,158255,2.822538137435913,-16.49818992614746,-1.578912615776062,138.82752990722656
0,158257,-28.30604362487793,-6.714589595794678,-15.002639770507812,83.51760864257812
0,158259,21.091598510742188,77.23565673828125,24.188596725463867,-44.947547912597656
0,158261,54.208072662353516,-58.30411148071289,-17.089365005493164,5.694706439971924
0,158263,13.041548728942871,-39.747154235839844,4.314425945281982,13.859659194946289
0,158265,-100.65692901611328,35.11385726928711,1.5936312675476074,-123.97270202636719
0,158267,-15.078597068786621,9.528772354125977,-32.1171875,-0.4559018313884735
0,158269,80.66905212402344,51.04618453979492,75.87935638427734,161.75094604492188
0,158271,-5.451587200164795,-68.5141372680664,2.253032922744751,-68.30757141113281
0,158273,-14.298417091369629,-77.3021240234375,-104.01444244384766,-21.503652572631836
0,158275,27.3349552154541,100.47986602783203,22.50425910949707,101.13044738769531
0,158277,-9.33590030670166,75.48953247070312,74.44603729248047,-64.43018341064453
0,158279,-14.816193580627441,-66.73975372314453,-24.000341415405273,-44.01799774169922
0,158281,5.508691310882568,-63.607391357421875,-15.577555656433105,74.2414779663086
0,158283,8.787590980529785,36.9823112487793,17.971614837646484,-38.59764862060547
0,158285,9.629542350769043,44.19221496582031,12.356780052185059,-62.600746154785156
0,158287,-34.83091354370117,-22.003738403320312,-1.426052451133728,106.51821899414062
0,158289,-4.009737968444824,-35.502628326416016,-38.91044235229492,27.786670684814453
0,158291,81.66986083984375,4.520725250244141,-9.757044792175293,-153.8007049560547
0,158293,9.902239799499512,48.58094024658203,26.597246170043945,-13.890623092651367
0,158295,-81.91715240478516,18.245805740356445,34.93986511230469,154.37037658691406
0,158297,-38.670814514160156,-55.386024475097656,-8.023131370544434,8.495969772338867
0,158299,-19.37085723876953,-28.715051651000977,-32.85462951660156,-149.19764709472656
0,158301,3.0952773094177246,36.21142578125,-0.220598042011261,25.094575881958008
0,158303,52.332332611083984,30.053281784057617,4.970024108886719,134.0717315673828
0,158305,29.7885799407959,-4.32863187789917,-1.3958523273468018,-78.27925109863281
0,158307,-6.719062805175781,-11.12414836883545,-2.6949265003204346,-32.777915954589844
0,158309,-31.50655174255371,3.0896661281585693,14.674195289611816,109.88763427734375
0,158311,-20.0477294921875,-57.93114471435547,-37.49566650390625,-144.44651794433594
0,158313,37.04831314086914,-54.873756408691406,-24.775930404663086,-111.24907684326172
0,158315,29.121217727661133,53.53330612182617,42.1206169128418,210.47500610351562
0,158317,5.064786434173584,102.00270080566406,17.909595489501953,57.91595458984375
0,158319,76.34073638916016,34.705810546875,26.658283233642578,-98.29530334472656
0,158321,-10.835594177246094,-94.55901336669922,-2.6875741481781006,2.1230411529541016
0,158323,-149.64398193359375,-48.341495513916016,-14.717188835144043,17.79310417175293
0,158325,-21.077783584594727,33.30177307128906,-3.4231197834014893,-13.040446281433105
0,158327,80.66517639160156,29.243953704833984,-9.419553756713867,11.188337326049805
0,158329,1.9349015951156616,-3.6802895069122314,-8.804439544677734,49.5853385925293
0,158331,-45.74945068359375,-21.58232307434082,0.6525660753250122,-74.93264770507812
0,158333,-17.177194595336914,9.875225067138672,-1.6701204776763916,-89.30952453613281
0,158335,18.60099983215332,9.684064865112305,11.407430648803711,87.8001708984375
0,158337,24.015134811401367,-12.082942962646484,51.29549789428711,72.30960845947266
0,158339,-19.998735427856445,-9.831116676330566,-39.22978591918945,-80.04791259765625
0,158341,11.91594409942627,7.571746349334717,-65.2685546875,-22.581680297851562
0,158343,49.16496658325195,4.7960920333862305,25.329790115356445,72.54536437988281
0,158345,-23.423315048217773,7.192527770996094,27.62354278564453,-43.241355895996094
0,158347,-22.229162216186523,-7.0806989669799805,-14.415338516235352,-14.4817533493042
0,158349,40.68838882446289,-1.4154789447784424,-3.2088258266448975,56.086708068847656
0,158351,-3.394951581954956,13.03282356262207,30.75704002380371,-36.72720718383789
0,158353,-40.81000518798828,19.26333236694336,2.9246113300323486,-13.544106483459473
0,158355,17.76407814025879,4.610759258270264,-4.785856246948242,64.77598571777344
0,158357,20.53898048400879,-33.84885787963867,-4.0311808586120605,-13.299816131591797
0,158359,-42.933963775634766,-9.401168823242188,-30.227075576782227,-61.817691802978516
0,158361,-19.289241790771484,3.735191583633423,-15.59736156463623,43.969993591308594
0,158363,53.490257263183594,49.12189483642578,41.62664031982422,29.204788208007812
0,158365,2.607628107070923,-17.44009017944336,43.42190170288086,-128.595947265625
0,158367,-23.304153442382812,-177.1099853515625,-124.67430877685547,7.22431755065918
0,158369,47.59919738769531,-70.75792694091797,-86.22942352294922,195.9215087890625
0,158371,10.444092750549316,248.96206665039062,157.8238983154297,-58.92818832397461
0,158373,-23.06713104248047,176.62652587890625,77.44054412841797,-109.72508239746094
0,158375,-48.02857971191406,-140.75201416015625,-30.89849853515625,3.7887327671051025
0,158377,-44.16769790649414,-78.54411315917969,12.381912231445312,-20.18124771118164
0,158379,41.21357727050781,18.613618850708008,-30.313135147094727,65.90000915527344
0,158381,0.3562515079975128,21.734817504882812,-62.42251968383789,74.64828491210938
0,158383,47.01234436035156,-44.653656005859375,-8.237320899963379,8.600326538085938
0,158385,41.62399673461914,-1.0120387077331543,72.36979675292969,-84.18757629394531
0,158388,-107.1481704711914,67.9958724975586,30.290760040283203,-14.733321189880371
0,158389,-3.4947423934936523,-16.472280502319336,-23.725004196166992,52.86101150512695
0,158392,38.06865310668945,-14.55618953704834,-12.345511436462402,-42.558860778808594
0,158393,-27.62616729736328,-50.2459602355957,-43.81984329223633,-20.22491455078125
0,158396,47.485084533691406,-40.74748611450195,-12.800741195678711,60.00103759765625
0,158397,25.323444366455078,38.42903518676758,36.939151763916016,2.7206313610076904
0,158400,-41.750492095947266,26.401365280151367,-16.775360107421875,-72.72272491455078
0,158401,6.418774127960205,-3.3526344299316406,-29.86581039428711,42.4711799621582
1,158404,-5.736046314239502,26.773231506347656,41.68537139892578,23.915164947509766
1,158404,-22.72964096069336,37.670631408691406,38.53462600708008,-95.3926010131836
1,158407,44.33103942871094,14.205436706542969,-16.381349563598633,45.08353805541992
1,158408,16.164630889892578,-31.46623420715332,-10.173903465270996,70.10993194580078
1,158411,-15.015992164611816,-54.179779052734375,-14.646777153015137,-72.80239868164062
1,158412,-12.285162925720215,3.5394763946533203,-9.154523849487305,-14.631176948547363
1,158415,-6.906548500061035,-4.437049865722656,24.92042350769043,92.6366195678711
1,158416,9.765434265136719,4.603812217712402,1.7229012250900269,18.1917781829834
1,158419,-26.646869659423828,16.62340545654297,-28.875835418701172,-77.93696594238281
1,158420,-0.9309077858924866,-20.368024826049805,-8.2189359664917,-14.128692626953125
1,158423,40.60868453979492,26.070650100708008,22.21053695678711,32.77225875854492
1,158424,-25.81878089904785,17.98196029663086,2.48926043510437,-39.509334564208984
1,158427,-17.18737030029297,-27.83267593383789,5.09904670715332,8.379822731018066
1,158428,38.064212799072266,-10.873041152954102,31.967750549316406,84.3722915649414
1,158431,-4.091117858886719,12.55949878692627,-18.81898307800293,-40.978370666503906
1,158432,-53.874149322509766,5.061113357543945,-50.84013366699219,-73.88720703125
1,158435,14.866908073425293,3.5500736236572266,-4.022456645965576,-36.88259506225586
1,158436,48.572750091552734,21.587360382080078,59.837127685546875,14.143558502197266
1,158439,66.50501251220703,-71.40104675292969,-55.458927154541016,109.14617919921875
1,158440,51.29387283325195,-30.09310531616211,-42.3494987487793,-24.97015953063965
1,158443,-158.84341430664062,180.396484375,139.6519775390625,-18.716459274291992
1,158444,-62.768924713134766,26.366228103637695,10.497082710266113,95.18693542480469
1,158447,65.33318328857422,-168.979248046875,-34.27747344970703,-22.084365844726562
1,158448,10.274447441101074,-21.361854553222656,-7.340892314910889,-64.90879821777344
1,158451,10.854598045349121,44.10683822631836,-62.67915725708008,-21.33843994140625
1,158452,-63.373985290527344,-17.915773391723633,-26.812658309936523,-36.23006820678711
1,158455,14.72380256652832,7.526355743408203,41.267738342285156,64.75088500976562
1,158456,63.567527770996094,22.443206787109375,33.78086471557617,111.23890686035156
1,158459,-45.816097259521484,-11.56554889678955,-30.263151168823242,-97.98055267333984
1,158460,-21.686941146850586,-4.76807165145874,13.582795143127441,-78.41577911376953
1,158463,45.166893005371094,-4.334977626800537,12.426197052001953,77.67052459716797
1,158464,4.243474006652832,6.005533695220947,-32.706398010253906,-39.26608657836914
1,158467,-1.8686214685440063,32.91899108886719,-20.296419143676758,-39.16846466064453
1,158468,38.26218795776367,7.946056842803955,16.007726669311523,81.15872955322266
1,158471,-18.172687530517578,41.59146499633789,37.079917907714844,-40.37568664550781
1,158472,-50.853023529052734,-13.766595840454102,2.51939058303833,-42.91307067871094
1,158475,6.9008402824401855,-111.40885925292969,-0.33994656801223755,121.15986633300781
1,158476,12.042266845703125,-13.498976707458496,16.7528076171875,56.74155044555664
1,158479,21.391843795776367,68.85963439941406,-44.734901428222656,-173.25413513183594
1,158480,85.95870971679688,42.0875129699707,-37.121192932128906,-112.7832260131836
1,158483,-3.4797091484069824,-3.6053903102874756,52.667686462402344,218.69131469726562
1,158484,-127.457763671875,-1.0763609409332275,28.728992462158203,59.187496185302734
1,158487,-30.975221633911133,-30.645584106445312,-28.406963348388672,-149.73965454101562
1,158488,60.06678771972656,-41.55705642700195,-28.52220916748047,70.70061492919922
1,158491,3.160355567932129,30.87193489074707,21.512714385986328,-16.794445037841797
1,158492,-28.118518829345703,4.198404312133789,10.500353813171387,-68.74073791503906
1,158495,13.344381332397461,-30.704378128051758,11.733389854431152,88.20568084716797
1,158496,36.328392028808594,25.95649528503418,-24.199050903320312,-25.092426300048828
1,158499,-6.444264888763428,32.631710052490234,-73.519287109375,-41.59599685668945
1,158500,-26.05669403076172,-18.171005249023438,82.2408676147461,58.40016174316406
1,158503,-16.838727951049805,-35.22434616088867,48.6036491394043,7.494476795196533
1,158504,-14.77851676940918,-3.498290777206421,-75.7750015258789,-71.18275451660156
1,158507,62.448612213134766,30.400650024414062,2.365666389465332,0.18221415579319
1,158508,33.32052230834961,3.8193302154541016,27.322593688964844,54.086429595947266
1,158511,-41.18735885620117,-5.107619285583496,-3.35843825340271,-35.429100036621094
1,158512,4.307086944580078,30.735872268676758,1.2343528270721436,21.773849487304688
1,158515,-1.3959892988204956,-14.351655960083008,-6.491026878356934,78.63737487792969
1,158516,-30.429115295410156,-30.672462463378906,-13.355058670043945,-69.9935531616211
1,158519,-8.195073127746582,22.19719696044922,23.844961166381836,-114.2081298828125
1,158520,10.537808418273926,4.700809955596924,32.230979919433594,47.1303596496582
1,158523,-2.0472583770751953,1.4852960109710693,-18.246084213256836,121.61917114257812
1,158524,-13.881771087646484,38.96248245239258,-8.688632011413574,-42.86205291748047
1,158527,34.51719665527344,-58.47844696044922,-13.471253395080566,-58.65457534790039
1,158528,27.296594619750977,-92.49748229980469,-38.38705062866211,6.790051460266113
1,158531,-3.1739540100097656,87.7929458618164,-8.142434120178223,-37.70436096191406
1,158532,57.849754333496094,61.262054443359375,4.003019332885742,131.8506622314453
1,158535,-44.581886291503906,-65.97828674316406,50.137386322021484,45.429901123046875
1,158536,-110.72113037109375,22.80800437927246,65.18006896972656,-137.33328247070312
1,158539,13.616437911987305,5.332242965698242,-43.333709716796875,19.163148880004883
1,158540,12.44490909576416,-51.841670989990234,-45.88395690917969,52.22978591918945
1,158543,2.8017852306365967,83.7251968383789,38.559940338134766,-21.444002151489258
1,158544,22.02604103088379,69.81986999511719,-22.973299026489258,-79.92295837402344
1,158547,39.11073303222656,-110.4636001586914,-22.80699348449707,19.035457611083984
1,158548,53.356727600097656,-91.07906341552734,25.251710891723633,116.3891372680664
1,158551,-51.503173828125,39.35643768310547,-20.326711654663086,-54.460086822509766
1,158552,-75.56909942626953,80.63699340820312,16.91535758972168,-54.78623962402344
1,158555,28.248151779174805,23.992258071899414,20.4852294921875,65.6493911743164
1,158556,14.424761772155762,-49.694091796875,-28.998342514038086,-37.377296447753906
1,158559,48.01951217651367,-6.049336910247803,-14.21069622039795,-68.5195541381836
1,158560,49.477203369140625,-28.498477935791016,10.306979179382324,52.406036376953125
1,158563,-77.93170166015625,-2.62799334526062,14.679003715515137,62.22578048706055
1,158564,-42.9024543762207,76.00016021728516,9.70466136932373,-38.96685791015625
1,158567,-12.796130180358887,-51.537967681884766,2.9565324783325195,-36.94573211669922
1,158568,40.00517654418945,-37.483795166015625,-19.599822998046875,48.483070373535156
1,158571,41.891502380371094,68.57219696044922,-16.538217544555664,-11.41939926147461
1,158572,-39.32893371582031,19.296602249145508,29.154762268066406,-55.08726119995117
1,158575,-11.07731819152832,-30.333036422729492,21.095584869384766,66.7870864868164
1,158576,10.454204559326172,-20.275421142578125,-49.31873321533203,44.433597564697266
1,158579,23.75393295288086,-6.731084823608398,2.309957265853882,-53.85682678222656
1,158580,18.379854202270508,-7.547677993774414,45.281341552734375,-7.25345516204834
1,158583,-34.31000900268555,20.61943817138672,-13.2183256149292,-9.45116901397705
1,158584,-46.429847717285156,-18.186864852905273,-37.368412017822266,-35.17938995361328
1,158587,28.14702033996582,-14.013665199279785,-4.468760967254639,46.81093978881836
1,158588,48.87370300292969,63.82476806640625,60.47726058959961,45.533447265625
1,158843,-59.323890686035156,-3.214308977127075,-13.80873966217041,-106.38822174072266
1,158845,-55.819129943847656,-31.568403244018555,-74.7444839477539,-59.097007751464844
1,158848,17.968517303466797,22.065319061279297,47.0986213684082,61.494632720947266
1,158849,51.00484085083008,5.692737102508545,57.1892204284668,62.794158935546875
1,158852,87.07874298095703,-17.3808536529541,-31.782176971435547,128.2122039794922
1,158853,32.95882797241211,-6.187291622161865,-15.748841285705566,75.94894409179688
1,158856,25.513957977294922,47.984375,12.501669883728027,-64.008056640625
1,158857,-77.49483489990234,-24.92795181274414,5.223145008087158,-91.89364624023438
1,159896,-158.8170166015625,-135.76808166503906,-27.542089462280273,-140.86949157714844
1,159897,24.167207717895508,-22.02945899963379,-31.974090576171875,-96.04039001464844
1,159899,86.73809814453125,118.0739974975586,17.954357147216797,102.6624984741211
1,159901,1.3751037120819092,71.0335693359375,22.742834091186523,54.693016052246094
1,159903,-58.03394317626953,-42.860984802246094,12.701295852661133,-29.617406845092773
1,159905,3.6275126934051514,-25.049348831176758,7.209682941436768,96.042724609375
1,159907,77.15789031982422,9.566164016723633,-26.998863220214844,67.0110092163086
1,159909,-14.199854850769043,7.392205715179443,-15.456056594848633,-69.87434387207031
1,159911,-49.0020637512207,15.008853912353516,29.514577865600586,-21.436182022094727
1,159913,35.1264762878418,26.24649429321289,32.290828704833984,46.264076232910156
1,159915,75.85663604736328,37.38483810424805,-12.443177223205566,-77.41450500488281
1,159917,-39.19197463989258,-50.72005081176758,-35.37596130371094,-85.91875457763672
1,159919,-105.6261215209961,-61.664527893066406,0.8011173009872437,59.845375061035156
1,159921,50.68998336791992,51.760921478271484,10.267743110656738,62.866947174072266
1,159923,45.560279846191406,19.986204147338867,3.6880033016204834,-79.84479522705078
1,159925,-42.85710906982422,-49.768489837646484,12.851244926452637,-10.219443321228027
1,159927,-7.754532814025879,26.858083724975586,-7.053877353668213,170.91969299316406
1,159929,1.8124394416809082,17.765113830566406,-16.74020004272461,-16.70867156982422
1,159931,46.648250579833984,-90.6205825805664,-12.63681411743164,-83.2430648803711
1,159933,10.696331024169922,-25.584701538085938,1.5191762447357178,29.3200626373291
1,159935,-61.57252502441406,49.850704193115234,29.277650833129883,-71.5185546875
1,159937,-7.2242207527160645,16.06079864501953,-4.5572991371154785,-46.098594665527344
1,159939,31.9520206451416,34.489017486572266,-43.6638298034668,65.19731140136719
1,159941,6.57363224029541,13.84057903289795,-0.1549655795097351,27.7534236907959
1,159943,-27.801591873168945,-31.341793060302734,67.83531951904297,-31.66157341003418
1,159945,39.278560638427734,-29.36699867248535,5.93118953704834,36.141258239746094
1,159947,3.7437243461608887,-15.497099876403809,-54.192440032958984,50.494667053222656
1,159949,-84.5134506225586,53.72633361816406,8.702641487121582,-31.183467864990234
1,159951,59.348785400390625,14.20083236694336,7.473506450653076,-19.40341567993164
1,159953,51.094093322753906,-44.87669372558594,25.118167877197266,-3.54264497756958
1,159955,-14.561169624328613,36.62221145629883,14.294828414916992,-11.205368041992188
1,159957,-5.617045879364014,18.0017032623291,-68.57076263427734,-16.822662353515625
1,159959,-61.972965240478516,-20.81892204284668,-3.970170021057129,7.152372360229492
1,159961,4.6893205642700195,-4.214798927307129,51.78558349609375,-15.216668128967285
1,159963,30.084800720214844,-31.90796661376953,-9.919240951538086,-17.0855770111084
1,159965,-29.516834259033203,-1.7895381450653076,-17.155853271484375,86.00521087646484
1,159967,19.405424118041992,10.128840446472168,-6.458099365234375,43.317806243896484
1,159969,9.513243675231934,-15.0117769241333,-11.638647079467773,-89.0687026977539
1,159971,-5.987893104553223,38.69770812988281,38.58306121826172,-43.28761672973633
1,159973,46.088623046875,47.81978988647461,6.003213405609131,15.846273422241211
1,159975,-41.08721160888672,-38.58859634399414,-25.946155548095703,-62.97046661376953
1,159977,-70.86717224121094,-13.137602806091309,33.960750579833984,64.93319702148438
1,159979,10.640661239624023,-14.549214363098145,-30.826404571533203,134.73695373535156
1,159981,39.428749084472656,-71.04891204833984,-54.45586013793945,-79.10248565673828
1,159983,84.76847839355469,50.020042419433594,47.02776336669922,-97.3606948852539
1,159985,6.962893009185791,86.32024383544922,43.778560638427734,55.19590377807617
1,159987,-79.8492660522461,7.502744674682617,-12.615320205688477,58.02861022949219
1,159989,1.7709672451019287,-66.61660766601562,-20.177932739257812,-54.88233184814453
1,159991,28.819839477539062,-122.5946044921875,-21.506454467773438,43.83959197998047
1,159993,-5.191338539123535,33.839385986328125,25.97168731689453,100.51476287841797
1,159995,7.337665557861328,161.42601013183594,29.680858612060547,-146.14859008789062
1,159997,-8.222270011901855,8.412942886352539,-33.28217315673828,-111.86176300048828
1,159999,-66.11310577392578,-64.62114715576172,0.7661178112030029,118.81041717529297
1,160001,4.671482563018799,-13.434115409851074,23.45697021484375,10.199810981750488
1,160003,41.02220153808594,-15.110125541687012,-37.67311477661133,-38.68412399291992
1,160005,9.68985652923584,12.602632522583008,-44.3875846862793,103.92315673828125
1,160007,-1.2775468826293945,14.924806594848633,48.3679084777832,3.867457389831543
1,160009,-38.615562438964844,38.43113327026367,70.20053100585938,-110.65258026123047
1,160011,-3.125488042831421,-52.42670440673828,-53.354679107666016,10.546137809753418
1,160013,59.842369079589844,-109.31880950927734,-68.79664611816406,66.86902618408203
1,160015,1.3601497411727905,80.43063354492188,36.77717208862305,1.6646814346313477
1,160017,-42.45646667480469,87.7190933227539,45.99552536010742,14.655272483825684
1,160019,48.86586380004883,-13.625651359558105,13.819795608520508,-51.6778450012207
1,160021,6.18695068359375,-38.479007720947266,-5.056524753570557,-111.10729217529297
1,160023,-83.05169677734375,16.46586036682129,-13.724665641784668,81.73107147216797
1,160025,-13.374128341674805,82.29227447509766,1.4397482872009277,130.3107147216797
1,160027,49.4422721862793,-114.21234130859375,-45.914302825927734,-104.71827697753906
1,160029,30.895936965942383,-175.36700439453125,-2.466627359390259,-161.042724609375
1,160031,23.080883026123047,29.371150970458984,92.17288208007812,105.13445281982422
1,160033,1.1621843576431274,86.74745178222656,-44.10202407836914,172.700927734375
1,160035,-34.66094207763672,139.68951416015625,-81.0210952758789,-87.77220916748047
1,160037,23.434593200683594,72.62069702148438,59.444061279296875,-118.33981323242188
1,160039,-19.669111251831055,-133.62213134765625,26.247127532958984,105.56890869140625
1,160041,-105.65205383300781,-79.55071258544922,-29.141637802124023,64.30891418457031
1,160043,20.831525802612305,102.58025360107422,9.288549423217773,-82.77958679199219
1,160045,184.1107177734375,73.32363891601562,-8.578898429870605,-10.666272163391113
1,160047,-4.412665843963623,-82.1361083984375,12.850656509399414,22.149274826049805
1,160049,-253.7685546875,-61.40491485595703,24.118562698364258,-19.033035278320312
1,160051,51.70319747924805,56.24574661254883,-59.031131744384766,35.299049377441406
1,160053,138.33209228515625,58.2265510559082,-3.6828184127807617,30.59025764465332
1,160055,-59.108116149902344,-46.599449157714844,60.711402893066406,-80.12196350097656
1,160057,22.298110961914062,-66.54934692382812,-17.796695709228516,-32.09332275390625
1,160060,-0.764739453792572,-35.823360443115234,-22.095741271972656,51.26587677001953
1,160061,-15.749378204345703,-8.382333755493164,-3.166921377182007,42.236053466796875
1,160064,25.848817825317383,40.71666717529297,-18.497844696044922,23.620025634765625
1,160065,-15.010391235351562,8.758257865905762,13.016031265258789,-61.317012786865234
1,160068,-4.318538188934326,35.35903549194336,24.23426628112793,-72.46627807617188
1,160069,0.6609301567077637,48.699581146240234,0.5826826691627502,39.695152282714844
1,160072,7.960660934448242,-18.71466827392578,-9.900279998779297,68.26097106933594
1,160073,21.24840545654297,-9.750282287597656,23.541576385498047,2.4541616439819336
1,160074,-35.566524505615234,17.50131607055664,14.278081893920898,-76.08324432373047
1,160077,-19.977882385253906,-14.161077499389648,-29.47974395751953,-21.941307067871094
1,160078,29.774625778198242,-54.4734001159668,1.4632378816604614,91.19227600097656
1,160081,20.619220733642578,-38.25927734375,1.2613577842712402,23.758398056030273
1,160082,8.427725791931152,-13.770895957946777,-42.40512466430664,-62.976566314697266
1,160085,0.3820890784263611,60.21427917480469,26.74054527282715,6.076542377471924
1,160086,-18.628538131713867,89.56977844238281,45.73316192626953,46.008399963378906
1,160089,-47.38124465942383,-19.729721069335938,-20.81193733215332,-60.945804595947266
1,160090,-28.26528549194336,-37.069053649902344,-2.4004344940185547,-47.71120071411133
1,160093,33.71398162841797,0.7671524882316589,-13.324763298034668,55.48957061767578
1,160094,28.49365997314453,-11.312949180603027,-23.90003204345703,9.953856468200684
1,160097,-21.113197326660156,-33.06782150268555,14.52609634399414,-9.026984214782715
1,160098,31.059541702270508,-17.295141220092773,13.001585006713867,25.04787826538086
1,160101,30.004159927368164,42.81767654418945,2.990030288696289,4.900173187255859
1,160102,-39.2582893371582,81.59404754638672,18.01175308227539,-54.24239730834961
1,160105,-11.302543640136719,-44.84463882446289,-27.480087280273438,26.070192337036133
1,160106,13.673995971679688,-137.7903594970703,-33.76979064941406,82.32084655761719
1,160109,3.009364128112793,56.47782516479492,30.04292869567871,-116.42218017578125
1,160113,-52.117652893066406,114.04167938232422,10.663496971130371,41.06866455078125
1,160113,-38.64045333862305,-27.844104766845703,-7.467473030090332,198.89730834960938
1,160114,74.63333892822266,-73.45680236816406,-3.852219581604004,-179.90792846679688
1,160117,109.34297180175781,28.34410285949707,18.87054443359375,-176.25714111328125
1,160118,48.28900146484375,103.36656188964844,29.345016479492188,137.93374633789062
1,160121,-130.05873107910156,-63.66866683959961,-39.190494537353516,55.01545333862305
1,160122,-151.12147521972656,-151.2848358154297,-59.33891296386719,-52.45518112182617
1,160125,82.93711853027344,137.0340118408203,22.09316062927246,-0.13122017681598663
1,160126,74.21009063720703,232.73529052734375,63.62443542480469,-26.20050621032715
1,160129,-68.53726959228516,-190.58387756347656,14.15339469909668,-40.03860092163086
1,160130,93.05287170410156,-297.4501953125,-34.572044372558594,25.809293746948242
1,160133,70.36833190917969,32.044654846191406,-47.68838882446289,123.8634262084961
1,160134,-144.54525756835938,80.2718734741211,27.72866439819336,79.1531753540039
1,160137,-42.16581344604492,11.35129451751709,6.315577030181885,-183.3477020263672
1,160138,43.77695083618164,38.317466735839844,-51.317630767822266,-101.01322937011719
1,160141,25.370817184448242,150.3491973876953,66.7058334350586,149.63800048828125
1,160142,17.881568908691406,99.55596160888672,42.67074966430664,19.565032958984375
1,160145,5.964341163635254,-127.37700653076172,-27.795621871948242,-6.52047872543335
1,160146,-24.35418128967285,-12.75001335144043,7.761552333831787,68.0899658203125
1,160149,-34.849788665771484,41.07367706298828,-18.15611457824707,-104.9238052368164
1,160150,17.66400909423828,-56.506038665771484,-12.830201148986816,-93.34374237060547
1,160153,-25.460269927978516,88.69558715820312,12.894159317016602,128.1860809326172
1,160154,-21.61231231689453,58.828006744384766,-7.926840305328369,42.240570068359375
1,160157,74.6142578125,-245.6796875,-6.880086898803711,-108.24337768554688
1,160158,39.24588394165039,-251.58364868164062,-16.624858856201172,28.00638198852539
1,160161,-0.8100076913833618,228.01138305664062,-19.51419448852539,67.36869812011719
1,160162,12.455236434936523,273.1006774902344,11.291839599609375,-61.61886978149414
1,160165,-5.262312412261963,-175.45069885253906,16.995906829833984,-3.2551076412200928
1,160166,-22.53610610961914,-94.41302490234375,22.004526138305664,18.890316009521484
1,160169,-65.56501007080078,70.5428466796875,-7.057180881500244,-10.002168655395508
1,160170,-72.9386215209961,137.84115600585938,-17.97707176208496,-46.46166229248047
1,160173,-149.39842224121094,773.0320434570312,38.66796112060547,9.28840160369873
1,160174,32.111270904541016,-67.7171630859375,-5.905435085296631,177.58721923828125
1,160177,393.91473388671875,-2133.34130859375,-64.53692626953125,-113.00394439697266
1,160178,194.18936157226562,-966.2835693359375,10.79719066619873,-144.34288024902344
1,160181,-34.13282775878906,1999.478759765625,53.26848220825195,174.2371063232422
1,160182,-107.33590698242188,1702.3406982421875,22.045846939086914,10.669570922851562
1,160185,-287.57830810546875,-668.6074829101562,-12.386641502380371,-77.4827651977539
1,160186,-144.45306396484375,-877.7771606445312,-30.4422607421875,50.55387496948242
1,160189,36.76112747192383,16.147958755493164,-44.75739288330078,-14.702951431274414
1,160190,80.88020324707031,105.0468521118164,-3.7635421752929688,-73.60874938964844
1,160193,135.6329803466797,179.0797576904297,63.50270462036133,42.35696792602539
1,160194,-66.24103546142578,150.30899047851562,38.7248420715332,-7.832091808319092
1,160197,-144.07354736328125,21.997997283935547,-18.48571014404297,-37.38816452026367
1,160198,66.67916107177734,-88.68141174316406,-31.4569034576416,121.9339370727539
1,160201,21.18970489501953,-121.89937591552734,20.861608505249023,-65.21572875976562
1,160202,-126.15026092529297,-111.0484390258789,10.966794967651367,-131.78579711914062
1,160205,95.02409362792969,-144.76376342773438,-32.212242126464844,122.7662353515625
1,160206,263.1802978515625,-142.35733032226562,-10.972790718078613,144.93409729003906
1,160209,63.911556243896484,-134.03948974609375,-0.8008081912994385,-55.76244354248047
1,160210,-44.171470642089844,56.492618560791016,-6.109679222106934,-90.38641357421875
1,160213,-14.140564918518066,144.9040069580078,-3.0108556747436523,46.897090911865234
1,160214,-108.8564224243164,66.14706420898438,-16.99860382080078,-25.257036209106445
1,160217,-144.07028198242188,259.0216369628906,2.794043779373169,-68.9478530883789
1,160218,18.8995418548584,240.56317138671875,54.7930793762207,58.598121643066406
1,160221,26.66545295715332,-80.73857116699219,14.248372077941895,49.178096771240234
1,160222,-53.213069915771484,98.33430480957031,-36.06052780151367,-142.23947143554688
1,160225,-159.84268188476562,443.02435302734375,-9.852027893066406,-48.554561614990234
1,160226,-89.6383285522461,-286.0192565917969,31.736042022705078,181.9384002685547
1,160229,171.75582885742188,-977.734375,-4.070314407348633,-34.15721130371094
1,160230,316.64556884765625,-850.1504516601562,-27.44122314453125,-115.14509582519531
1,160233,549.2562866210938,-1070.029541015625,-87.92029571533203,177.1130828857422
1,160234,242.11422729492188,203.01051330566406,-32.89540100097656,61.49605941772461
1,160237,-489.48358154296875,2815.615966796875,210.64111328125,-127.22455596923828
1,160238,-542.365234375,1601.334716796875,15.797011375427246,47.238460540771484
1,160241,-255.8612823486328,-1564.4898681640625,-165.66094970703125,-6.220759391784668
1,160242,-84.49046325683594,-865.6896362304688,81.0667495727539,-68.54520416259766
1,160245,33.41072082519531,702.441650390625,94.42190551757812,34.006507873535156
1,160246,-138.96556091308594,1161.3480224609375,-60.682212829589844,-65.33370208740234
1,160249,257.4486389160156,-686.0376586914062,-57.80628967285156,-103.17974090576172
1,160250,463.0093688964844,-2284.7900390625,-2.513969659805298,61.64543533325195
1,160253,-35.81814193725586,-132.95919799804688,0.9375134110450745,148.84796142578125
1,160254,147.5585174560547,826.5335083007812,-0.0036622053012251854,54.495216369628906
1,160257,96.64967346191406,715.1220092773438,-13.830270767211914,-57.93921661376953
1,160258,-119.37040710449219,70.75445556640625,-3.798821210861206,37.71337127685547
1,160261,-319.1043395996094,-319.3202209472656,1.5948761701583862,-85.67583465576172
1,160262,-294.6846618652344,141.66064453125,-11.992875099182129,-217.97897338867188
1,160265,128.14346313476562,654.4071044921875,59.683380126953125,103.5081558227539
1,160266,50.1732292175293,718.4622802734375,25.69630241394043,165.04344177246094
1,160269,350.9676208496094,-1684.735595703125,-27.440353393554688,-41.9659309387207
1,160270,-24.47298240661621,-1394.934814453125,7.451865196228027,-78.22500610351562
1,160273,-680.3278198242188,1737.2421875,-4.520272254943848,40.693809509277344
1,160274,318.4656982421875,799.4590454101562,4.807558536529541,102.4069595336914
1,160277,782.4906616210938,-2336.42138671875,-53.08465576171875,6.9419026374816895
1,160278,223.9505157470703,-996.7732543945312,-54.90543746948242,79.31265258789062
1,160281,-377.2774658203125,2880.41162109375,94.18009948730469,-21.305688858032227
1,160282,-467.58673095703125,1156.7178955078125,37.53827667236328,-231.4790802001953
1,160285,-47.450035095214844,-1171.5849609375,-60.053958892822266,89.0379638671875
1,160286,-98.6409683227539,291.44964599609375,-5.473697662353516,102.35359954833984
1,160289,-228.28140258789062,621.4752807617188,62.29988098144531,-214.6122283935547
1,160291,-264.4612121582031,161.4271240234375,38.0400390625,-63.71547317504883
1,160293,280.362060546875,-1294.096435546875,-88.14227294921875,168.78233337402344
1,160295,504.74273681640625,-1613.67919921875,-42.45859146118164,-0.1426137387752533
1,160297,79.50559997558594,533.3901977539062,87.65708923339844,-42.06474685668945
1,160299,104.70501708984375,1312.09326171875,40.4326286315918,229.5092315673828
1,160301,-64.40998840332031,-18.010358810424805,-76.7531967163086,-67.0586929321289
1,160303,-173.44625854492188,-960.1838989257812,-80.30347442626953,-250.07078552246094
1,160305,-2.3338587284088135,-498.7091064453125,28.742778778076172,131.34913635253906
1,160307,110.75411987304688,227.59632873535156,27.338825225830078,90.01636505126953
1,160311,26.33650779724121,1313.1263427734375,9.765375137329102,-48.19670867919922
1,160311,-249.81613159179688,1392.7918701171875,56.71842575073242,10.97492504119873
1,160313,-144.9168243408203,-1258.827392578125,-35.60977554321289,-116.96515655517578
1,160315,4.985688209533691,-1634.7208251953125,-46.89646530151367,-108.92420196533203
1,160317,-99.45364379882812,1287.0277099609375,64.4710693359375,130.4255828857422
1,160319,38.69180679321289,858.1895141601562,5.10837459564209,106.86613464355469
1,160321,198.3095245361328,-1286.7491455078125,-86.44892120361328,-76.66632080078125
1,160323,190.52194213867188,-993.10888671875,-12.562657356262207,6.271196365356445
1,160325,153.53228759765625,55.31586456298828,79.69437408447266,87.85121154785156
1,160327,113.49646759033203,868.8037719726562,57.73603057861328,-35.9038200378418
1,160329,-24.86280632019043,268.96380615234375,-51.13145446777344,-53.2151985168457
1,160331,-192.58944702148438,-302.61181640625,-45.4647331237793,62.33970642089844
1,160333,-139.03701782226562,889.37158203125,3.937403440475464,48.800838470458984
1,160335,-326.0396423339844,852.2083129882812,9.05618667602539,-179.5222930908203
1,160337,-577.0281982421875,-24.702550888061523,60.676090240478516,-64.06722259521484
1,160339,229.9630889892578,-828.3511352539062,7.767084121704102,204.55386352539062
1,160341,940.8919677734375,-2067.2744140625,-98.14462280273438,-38.57295608520508
1,160343,424.2138671875,-1288.67626953125,-62.93803787231445,-67.31905364990234
1,160345,-141.69874572753906,1638.30908203125,53.886322021484375,176.79612731933594
1,160347,-323.13677978515625,1898.0089111328125,52.827388763427734,30.304048538208008
1,160349,-320.3409423828125,-396.8966369628906,8.931663513183594,-185.07461547851562
1,160351,-246.19818115234375,-346.9445495605469,11.749879837036133,-34.75914001464844
1,160353,-60.51181411743164,1015.6127319335938,-11.872182846069336,25.986589431762695
1,160355,-112.07972717285156,1845.8858642578125,56.353057861328125,-174.116455078125
1,160357,29.26986312866211,-1582.033203125,20.33184814453125,36.09714889526367
1,160359,389.428466796875,-5072.8701171875,-189.7054901123047,250.07823181152344
1,160361,696.5977172851562,621.8822631835938,-0.6204038858413696,85.16609191894531
1,160363,369.41180419921875,4210.3671875,258.2201232910156,46.68767547607422
1,160365,-695.206787109375,-96.6429214477539,-59.47862243652344,-65.26705169677734
1,160367,-304.0369873046875,-2003.341796875,-230.87921142578125,-164.9385986328125
1,160369,77.09330749511719,542.69677734375,94.886474609375,-50.804046630859375
1,160371,-266.26458740234375,1422.6578369140625,50.26774215698242,68.62446594238281
1,160373,-53.940086364746094,41.18264389038086,-42.237831115722656,99.92237854003906
1,160375,-124.62537384033203,-22.20677947998047,116.31350708007812,-216.57101440429688
1,160377,83.2059097290039,-376.36419677734375,-40.28582000732422,-115.27542114257812
1,160379,110.27510070800781,285.97955322265625,-31.941526412963867,231.08914184570312
1,160381,-327.22711181640625,97.4007797241211,25.158342361450195,-26.119020462036133
1,160383,22.781248092651367,-2282.22998046875,-86.4986343383789,-138.27334594726562
1,160385,650.87353515625,-630.0170288085938,2.069894313812256,214.04222106933594
1,160387,381.3902282714844,1696.599853515625,37.596866607666016,201.86093139648438
1,160389,-193.83877563476562,295.8994445800781,-23.557119369506836,-219.7429656982422
1,160391,-202.9619903564453,129.09573364257812,18.251691818237305,-84.8571548461914
1,160393,-254.8209991455078,586.8124389648438,78.82624816894531,84.82928466796875
1,160395,-35.16374206542969,-1038.1612548828125,-47.024879455566406,-28.703989028930664
1,160397,565.2247314453125,-1006.5955810546875,-98.63572692871094,135.7455291748047
1,160399,118.88296508789062,1264.1715087890625,67.90445709228516,39.727684020996094
1,160401,-766.1575317382812,1148.9473876953125,33.70376205444336,-287.22930908203125
1,160403,-152.6205291748047,-919.794677734375,-26.146778106689453,-53.2606086730957
1,160405,284.9058837890625,-468.2424011230469,13.851115226745605,200.9911651611328
1,160407,-103.48747253417969,87.5140380859375,-12.32463264465332,-34.23789596557617
1,160409,86.04796600341797,308.7823486328125,20.55592918395996,-103.13612365722656
1,160411,193.64804077148438,214.23626708984375,10.474617958068848,82.88761138916016
1,160413,-25.48773193359375,-972.0474853515625,-32.2650146484375,43.33481216430664
1,160415,-256.8364562988281,-65.68659973144531,-19.467926025390625,-81.27600860595703
1,160417,-248.90170288085938,1502.1973876953125,23.669334411621094,-41.61809158325195
1,160419,447.9162292480469,50.337642669677734,42.37361145019531,108.25696563720703
1,160421,353.82305908203125,-1867.407958984375,-20.344738006591797,93.04876708984375
1,160423,-413.489013671875,-264.2275390625,-50.31886672973633,-114.65959167480469
1,160425,226.58534240722656,1477.7691650390625,26.007055282592773,30.778127670288086
1,160427,256.7100524902344,779.4794921875,62.0333137512207,96.67973327636719
1,160429,-329.7986145019531,-1027.5780029296875,-7.999347686767578,-116.89994049072266
1,160431,-95.19267272949219,-806.4708251953125,-106.74929809570312,-21.49314308166504
1,160433,-46.584232330322266,590.4187622070312,-24.701417922973633,50.8619384765625
1,160435,-42.55043411254883,376.28302001953125,116.66283416748047,-66.02861022949219
1,160437,-32.405113220214844,473.2154235839844,6.92277717590332,76.2647933959961
1,160439,-249.90304565429688,1119.169921875,-44.1538200378418,26.88040542602539
1,160441,-71.76961517333984,-941.5777587890625,5.629663467407227,-244.3162384033203
1,160443,355.1556701660156,-2906.9208984375,-77.36365509033203,38.46257400512695
1,160445,289.263427734375,1125.5113525390625,39.188873291015625,254.1347198486328
1,160447,-0.6793006658554077,2462.84130859375,157.05831909179688,-7.068227767944336
1,160449,-184.1293487548828,-1504.3302001953125,-109.9660415649414,-87.93151092529297
1,160451,-18.54549217224121,-998.0186767578125,-91.96224212646484,16.607505798339844
1,160453,242.43479919433594,716.9041748046875,106.42337799072266,5.217338562011719
1,160455,34.70402908325195,188.53201293945312,-6.657534122467041,24.935762405395508
1,160457,-389.4135437011719,647.0777587890625,-19.45244598388672,-42.48963928222656
1,160459,-252.86221313476562,405.8374328613281,40.09882736206055,-82.87737274169922
1,160461,392.10595703125,-1231.98583984375,-62.34367752075195,58.27743911743164
1,160463,228.49644470214844,-58.80268859863281,-5.665488243103027,-79.19815063476562
1,160465,-353.076904296875,1150.18408203125,61.674888610839844,23.498498916625977
1,160467,8.35806655883789,-681.05517578125,-48.64678955078125,173.426025390625
1,160469,129.41542053222656,-750.746826171875,21.342910766601562,-136.9541015625
1,160471,-52.40058135986328,261.8940734863281,37.03867721557617,4.828471660614014
1,160474,152.6162567138672,32.68516159057617,-101.38874816894531,154.5382537841797
1,160475,-72.97523498535156,238.183349609375,-27.481876373291016,-135.45872497558594
1,160478,-192.81341552734375,311.53369140625,84.67662811279297,-94.57347869873047
1,160479,119.75556945800781,-265.1363525390625,17.810922622680664,146.64041137695312
1,160482,49.04094696044922,489.5780029296875,30.56386375427246,-38.040809631347656
1,160483,-224.50929260253906,479.2492370605469,8.131158828735352,-225.6437225341797
1,160486,-81.62711334228516,-1179.2705078125,-60.9561767578125,153.13525390625
1,160487,65.971435546875,-211.47515869140625,9.350663185119629,181.8719024658203
1,160488,115.47075653076172,975.4483642578125,-38.70206832885742,-164.78375244140625
1,160491,205.91050720214844,-659.1018676757812,-43.27262496948242,-0.9865870475769043
1,160492,89.35161590576172,-677.8565673828125,82.42456817626953,187.34889221191406
1,160495,-237.45794677734375,1043.519287109375,60.33264923095703,-117.89379119873047
1,160496,-213.08387756347656,335.6168518066406,-19.562864303588867,-184.3596954345703
1,160499,467.74285888671875,-1057.6634521484375,-57.06352233886719,207.42665100097656
1,160500,451.9610900878906,176.04270935058594,10.718395233154297,222.58331298828125
1,160503,-521.5621337890625,1069.245361328125,-1.7185273170471191,-239.63070678710938
1,160504,-540.593505859375,-323.5688781738281,-66.52242279052734,-232.24794006347656
1,160507,69.44277954101562,-551.5696411132812,68.93873596191406,171.15505981445312
1,160508,36.31776809692383,237.1772003173828,47.12350845336914,44.02277755737305
1,160511,193.3092803955078,-118.87684631347656,-33.06999206542969,-95.13557434082031
1,160515,195.6068115234375,-188.99388122558594,-43.04201126098633,-25.23448944091797
1,160515,-154.7115020751953,345.04608154296875,-43.76911926269531,1.5332801342010498
1,160516,-30.799692153930664,10.108498573303223,47.93265151977539,151.3136444091797
1,160519,238.63424682617188,-222.5063018798828,71.44496154785156,151.59686279296875
1,160520,43.59041976928711,-34.80607604980469,54.03949737548828,-98.81908416748047
1,160523,-359.0173034667969,190.86868286132812,-41.196834564208984,-196.13865661621094
1,160524,-100.9462890625,353.8419189453125,-100.45401000976562,-13.090862274169922
1,160527,189.72120666503906,-297.4539489746094,-37.56240463256836,131.3269805908203
1,160528,67.87489318847656,-433.49224853515625,35.95677185058594,88.98346710205078
1,160531,56.99199676513672,270.6928405761719,94.82353210449219,-46.37197494506836
1,160532,-216.34017944335938,638.0482788085938,10.223509788513184,-129.12242126464844
1,160535,-299.7118225097656,-168.45571899414062,-94.28626251220703,-86.08069610595703
1,160536,425.80377197265625,-1751.109375,-25.092159271240234,137.0652618408203
1,160539,660.2813720703125,-289.9355773925781,19.740026473999023,158.85870361328125
1,160540,70.51962280273438,1656.1141357421875,33.795894622802734,-74.69316101074219
1,160543,-564.39892578125,559.3909301757812,63.81005859375,-101.65861511230469
1,160544,-590.1253051757812,-50.86149215698242,-19.36941909790039,9.703751564025879
1,160547,24.517038345336914,-323.7646484375,-63.87472152709961,102.61128997802734
1,160548,259.8469543457031,-361.46356201171875,-51.470924377441406,-13.562491416931152
1,160551,272.3308410644531,76.22505950927734,61.67328643798828,-215.73727416992188
1,160552,174.81619262695312,99.74897003173828,93.12300109863281,80.70809173583984
1,160555,-225.18301391601562,139.43553161621094,-50.73261642456055,150.47421264648438
1,160556,-316.80072021484375,83.91403198242188,-20.01865577697754,-218.43276977539062
1,160559,-19.733230590820312,83.75432586669922,11.966371536254883,57.953704833984375
1,160560,47.11188507080078,14.921418190002441,-27.510581970214844,147.91427612304688
1,160563,-6.738712310791016,-165.99246215820312,-8.210709571838379,-141.63211059570312
1,160564,142.94528198242188,-302.8121643066406,3.1907970905303955,22.392518997192383
1,160567,206.77378845214844,-215.23379516601562,11.408055305480957,80.16169738769531
1,160568,152.84104919433594,-32.210670471191406,-26.790664672851562,-29.394943237304688
1,160571,75.2601318359375,30.929569244384766,17.432388305664062,61.72683334350586
1,160572,-82.03211975097656,51.36042022705078,44.193092346191406,72.85355377197266
1,160575,-253.07928466796875,185.46185302734375,-51.11245346069336,-102.26782989501953
1,160576,-178.4272003173828,314.5274658203125,27.710386276245117,-95.2788314819336
1,160579,72.74024963378906,166.1447296142578,18.007328033447266,78.80338287353516
1,160580,36.832881927490234,-67.09648895263672,-70.75332641601562,2.800478935241699
1,160583,-166.483154296875,19.363658905029297,21.64468002319336,-98.0105972290039
1,160584,61.310707092285156,-58.489173889160156,36.212764739990234,30.4725284576416
1,160587,218.11573791503906,-909.9754028320312,-14.85808277130127,23.086902618408203
1,160588,11.954790115356445,-351.3529357910156,12.133589744567871,-12.94511890411377
1,160591,44.858646392822266,1065.628173828125,-3.3623292446136475,30.045211791992188
1,160592,195.319091796875,313.88140869140625,-4.479267597198486,68.72795104980469
1,160595,-147.34413146972656,-478.5536193847656,24.88817596435547,-35.32827377319336
1,160596,-390.60504150390625,-16.744888305664062,-50.75428771972656,-67.33452606201172
1,160599,75.7040023803711,214.8654022216797,-33.72551345825195,133.19573974609375
1,160600,81.37995147705078,-49.36820983886719,13.48276138305664,-103.78838348388672
1,160603,-100.107666015625,-16.459701538085938,35.83517837524414,-151.08348083496094
1,160604,150.26393127441406,137.04226684570312,52.39018630981445,172.5009307861328
1,160607,94.90283966064453,-179.70579528808594,-40.45719528198242,14.736593246459961
1,160608,-34.275413513183594,-130.0421142578125,-28.23908233642578,-97.84708404541016
1,160611,6.643796443939209,78.6363525390625,30.263290405273438,108.10252380371094
1,160612,3.070250988006592,26.879737854003906,-12.053619384765625,62.006561279296875
1,160615,-25.33698844909668,-46.04094314575195,-33.95212936401367,-147.30625915527344
1,160616,-25.6501522064209,-8.945326805114746,3.778231143951416,-3.160688638687134
1,160619,-25.527666091918945,340.9937438964844,38.79152297973633,71.45209503173828
1,160620,-107.94847869873047,186.60804748535156,34.66020202636719,-71.99163818359375
1,160623,130.07933044433594,-903.7720947265625,-9.176131248474121,51.43107604980469
1,160624,197.12777709960938,-225.0334014892578,-30.181367874145508,83.77887725830078
1,160627,-213.34474182128906,1113.7347412109375,30.2056941986084,-64.97407531738281
1,160628,-13.964401245117188,-521.5392456054688,-46.193275451660156,21.261125564575195
1,160631,223.8550567626953,-378.990966796875,-57.86778259277344,44.36543273925781
1,160632,-76.25614166259766,1007.6077270507812,101.10140991210938,-152.24838256835938
1,160635,-328.7104797363281,104.536376953125,29.41470718383789,-110.44136810302734
1,160636,-199.31324768066406,122.19686126708984,-77.26384735107422,77.47991180419922
1,160639,496.58453369140625,-1588.546142578125,3.4651927947998047,305.0880126953125
1,160640,408.3393859863281,-1364.9378662109375,12.530805587768555,89.9703598022461
1,160643,-295.7185974121094,2368.885986328125,-54.33883285522461,-371.1820068359375
1,160644,-92.3039321899414,1036.5263671875,31.806245803833008,-32.304054260253906
1,160647,-96.61328887939453,-1136.3074951171875,85.72570037841797,135.12489318847656
1,160648,-264.6622009277344,-144.53919982910156,-39.374324798583984,-129.61705017089844
1,160651,58.90060043334961,152.19679260253906,-31.350006103515625,20.311859130859375
1,160652,156.55880737304688,-118.1781997680664,65.54743957519531,114.44822692871094
1,160655,1.9729253053665161,-65.74807739257812,-58.37831115722656,-56.73983383178711
1,160656,-27.759857177734375,72.49208068847656,-112.09977722167969,-40.10822296142578
1,160659,32.92656707763672,148.95169067382812,68.22956085205078,75.73619079589844
1,160660,-87.5937728881836,14.725115776062012,81.07970428466797,-3.0004138946533203
1,160663,-3.92280650138855,8.507491111755371,-14.46300983428955,-34.746315002441406
1,160664,102.70038604736328,33.73194122314453,23.833236694335938,28.51512336730957
1,160667,47.737586975097656,-162.6143798828125,-4.976778984069824,32.8697395324707
1,160668,95.49457550048828,-245.91958618164062,-38.03615951538086,-5.165883541107178
1,160671,10.703360557556152,-118.91191101074219,-17.983489990234375,10.1036376953125
1,160672,29.198144912719727,58.17653274536133,-25.758548736572266,25.51936149597168
1,160675,-17.730253219604492,151.8632049560547,23.759984970092773,-75.91039276123047
1,160676,-148.57183837890625,128.39466857910156,25.24138641357422,-2.4393365383148193
1,160679,-67.5506591796875,95.0474624633789,6.071885585784912,39.43120574951172
1,160680,-54.258697509765625,55.796539306640625,41.09962463378906,-87.36270141601562
1,160683,2.137857437133789,-48.23583984375,-8.358824729919434,44.78287887573242
1,160684,63.14802932739258,-64.34917449951172,-62.6455192565918,114.48164367675781
1,160687,22.174182891845703,-54.352088928222656,-12.327082633972168,-58.368873596191406
1,160688,33.47831344604492,-97.8061752319336,9.699861526489258,-91.68944549560547
1,160691,85.64656066894531,-54.82970428466797,-35.36771774291992,-33.28972625732422
1,160692,94.72099304199219,33.53348922729492,5.506293296813965,17.590002059936523
1,160695,57.208831787109375,164.38304138183594,107.02763366699219,84.1358642578125
