Aktueller Finger,timestamp_ms,sensor_0,sensor_1,sensor_2,sensor_3
0,1779333,-75.19904327392578,-19.022323608398438,-1.2294608354568481,-4.794095516204834
0,1779334,36.060935974121094,16.41422462463379,53.29768371582031,40.20368194580078
0,1779337,65.05254364013672,10.013547897338867,17.624473571777344,105.31954193115234
0,1779338,-49.92898941040039,-21.523717880249023,-71.81867980957031,-140.55978393554688
0,1779341,-41.47277069091797,13.77444076538086,-29.234615325927734,-191.08905029296875
0,1779342,5.8134846687316895,6.867514610290527,22.06942367553711,158.88772583007812
0,1779345,51.43413543701172,-2.5371668338775635,6.901419162750244,97.1114273071289
0,1779346,20.943429946899414,29.009790420532227,28.079303741455078,-5.116398811340332
0,1779352,-55.56891632080078,-33.523681640625,26.503084182739258,-43.66831588745117
0,1779352,0.2594187557697296,-7.65285062789917,-11.65544605255127,-98.60197448730469
0,1779353,34.78954315185547,46.9841194152832,-28.236223220825195,82.51756286621094
0,1779355,-7.8253045082092285,-25.440523147583008,1.6884948015213013,74.04711151123047
0,1779357,-20.621816635131836,-23.820903778076172,8.055330276489258,-14.7924165725708
0,1779612,13.375252723693848,23.6987247467041,72.438232421875,-16.94441795349121
0,1779614,33.25366973876953,7.514159202575684,61.24279022216797,-8.134160995483398
0,1779617,-20.637306213378906,-5.751760959625244,-93.1312484741211,7.3636932373046875
0,1779618,-35.69162368774414,-6.082343101501465,-73.8451156616211,-18.545320510864258
0,1779621,20.40047264099121,16.31852149963379,-5.120293140411377,-71.15442657470703
0,1779622,18.812448501586914,3.0320210456848145,-48.14148712158203,-19.9683895111084
0,1780401,-45.899742126464844,-42.664608001708984,-36.00603103637695,44.36265563964844
0,1780403,-3.630943536758423,11.8477144241333,67.17354583740234,30.163917541503906
0,1780405,53.93181610107422,16.404874801635742,61.64488220214844,69.54664611816406
0,1780407,14.32542610168457,-15.354443550109863,24.438982009887695,6.048346042633057
0,1780409,-6.465353965759277,11.145929336547852,40.98963928222656,-45.32011032104492
0,1780411,-10.718352317810059,11.922585487365723,1.1714166402816772,-1.5448036193847656
0,1780413,-32.016700744628906,-10.510858535766602,-15.940877914428711,-12.158792495727539
0,1780415,3.047541856765747,-0.763535737991333,-21.381881713867188,-19.321388244628906
0,1780417,39.131629943847656,15.13082504272461,-30.898521423339844,5.50575065612793
0,1780419,-21.980348587036133,-13.490293502807617,-32.68487548828125,-6.053033828735352
0,1780421,-25.691621780395508,-14.08418083190918,-36.26715850830078,-21.882932662963867
0,1780423,12.67871379852295,7.9070634841918945,11.034568786621094,35.09262466430664
0,1780425,-1.034149169921875,18.627254486083984,43.84920883178711,13.558751106262207
0,1780427,-1.6194661855697632,-13.485142707824707,21.43534278869629,-40.62025833129883
0,1780429,12.388397216796875,-16.009490966796875,21.03421974182129,1.6292577981948853
0,1780431,1.3515501022338867,18.269248962402344,12.131728172302246,22.95479965209961
0,1780433,-1.2170974016189575,2.00411057472229,-9.839688301086426,3.1747283935546875
0,1780435,-1.5434845685958862,-15.465605735778809,2.5478451251983643,19.146066665649414
0,1780437,-19.808439254760742,4.230431079864502,-43.052093505859375,-0.950007438659668
0,1780439,6.397055149078369,14.850044250488281,-48.27387237548828,-30.4141788482666
0,1780441,32.344322204589844,3.7774267196655273,25.366464614868164,8.001498222351074
0,1780443,-2.443115711212158,-6.588395118713379,1.9039982557296753,-15.244734764099121
0,1780445,-31.859575271606445,-6.727261543273926,5.900566577911377,-29.119829177856445
0,1780447,-3.2728543281555176,-6.729434967041016,49.060813903808594,41.467254638671875
0,1780449,31.924266815185547,18.764001846313477,2.7243311405181885,31.415016174316406
0,1780451,5.16282844543457,9.971455574035645,-20.383089065551758,-15.349053382873535
0,1780453,-14.489450454711914,-33.5458984375,31.45973777770996,5.598231792449951
0,1780456,3.352055788040161,8.062668800354004,-19.614673614501953,-21.292255401611328
0,1780457,-8.205279350280762,12.091904640197754,-76.10823059082031,-11.592924118041992
0,1780459,1.8765060901641846,-20.39792251586914,15.507378578186035,32.52297592163086
0,1780461,17.96256446838379,12.704263687133789,53.00481033325195,15.994107246398926
0,1780463,-39.628631591796875,3.8394997119903564,-0.21964505314826965,-9.243380546569824
0,1780465,-21.03644371032715,-27.08447265625,-14.557646751403809,-27.232297897338867
0,1780467,63.21809768676758,12.872118949890137,-2.5667221546173096,-14.773696899414062
0,1780469,4.959216594696045,24.369922637939453,0.06556905061006546,-6.4652934074401855
0,1780471,-43.50298309326172,-1.123666763305664,21.194448471069336,19.979440689086914
0,1780473,23.78664779663086,15.501837730407715,29.70610809326172,13.374101638793945
0,1780475,17.391935348510742,-4.580836772918701,-22.361827850341797,-30.177457809448242
0,1780477,-28.753475189208984,-24.42237091064453,-38.798377990722656,7.9343695640563965
0,1780479,-14.868953704833984,-13.702327728271484,3.630592107772827,32.085384368896484
0,1780481,12.804658889770508,-14.849827766418457,-12.397241592407227,-30.621610641479492
0,1780483,16.637460708618164,26.02060890197754,6.205354690551758,-20.136363983154297
0,1780485,-31.32480812072754,7.856123447418213,3.7830889225006104,35.81315994262695
0,1780487,-14.36730670928955,-33.497100830078125,-13.102627754211426,-12.127725601196289
0,1780489,40.77916717529297,24.35234260559082,51.65042495727539,24.443952560424805
0,1780491,9.567717552185059,34.06700897216797,19.931758880615234,69.02861022949219
0,1780493,-21.949159622192383,-13.711282730102539,-37.49134826660156,-84.00442504882812
0,1780495,0.888069748878479,-2.7920100688934326,-26.121315002441406,-74.10086059570312
0,1780497,-5.29109525680542,-22.21031379699707,-6.956599712371826,64.55980682373047
0,1780499,-6.143978118896484,-34.213443756103516,13.969156265258789,25.092130661010742
0,1780501,39.2041130065918,29.960180282592773,22.544757843017578,6.031179428100586
0,1780503,10.345707893371582,39.90123748779297,16.198680877685547,30.112438201904297
0,1780505,-27.974782943725586,0.23850059509277344,-11.849828720092773,-35.04998016357422
0,1780507,-16.851083755493164,-14.2788724899292,-9.063403129577637,-51.870513916015625
0,1780509,7.3799872398376465,-19.55054473876953,12.387474060058594,4.154661178588867
0,1780511,23.828054428100586,11.175375938415527,-1.5580636262893677,17.485187530517578
0,1780513,-27.542699813842773,-20.31281280517578,-50.733665466308594,-19.083877563476562
0,1780515,-23.20840072631836,-21.92502784729004,-20.240005493164062,16.789518356323242
0,1780517,42.739933013916016,67.51214599609375,65.66761779785156,41.9279670715332
0,1780519,19.177766799926758,12.711174964904785,6.496214866638184,-63.83426284790039
0,1780521,-25.69076156616211,-36.07231140136719,-35.28416442871094,-28.818628311157227
0,1780523,-13.44515323638916,-16.61549186706543,11.055021286010742,86.58361053466797
0,1780526,14.994441986083984,-7.8950419425964355,14.482342720031738,23.15403938293457
0,1780527,9.152203559875488,16.510082244873047,7.298278331756592,-19.345726013183594
0,1780529,-13.015621185302734,6.385212421417236,3.3751776218414307,3.0786991119384766
0,1780531,-2.1606359481811523,-10.749192237854004,6.081756591796875,-33.7629508972168
0,1780533,-2.6143627166748047,0.6755712032318115,8.629373550415039,-20.565351486206055
0,1780535,0.09602756053209305,22.54561996459961,-23.813060760498047,38.72138977050781
0,1780537,8.527416229248047,2.700122594833374,-28.61038589477539,14.20319938659668
0,1780539,-11.361384391784668,-21.661603927612305,16.94802474975586,-29.803993225097656
0,1780541,-1.3421638011932373,-6.476670265197754,15.596450805664062,-14.059924125671387
0,1780543,16.71839714050293,4.199008464813232,-18.37954330444336,11.846917152404785
0,1780545,-10.215350151062012,-4.315260887145996,2.4044179916381836,9.64265251159668
0,1780547,0.6203188300132751,9.022370338439941,-5.306268692016602,-25.476062774658203
0,1780549,14.69698715209961,16.17538070678711,-36.177040100097656,8.239151000976562
0,1780551,-35.98038101196289,-21.585758209228516,18.05299186706543,18.626522064208984
0,1780553,-7.395626068115234,-16.502466201782227,37.14253234863281,-36.417118072509766
0,1780555,17.06645965576172,3.786428689956665,1.7677338123321533,33.55876922607422
0,1780557,3.929856300354004,15.074956893920898,-0.06835347414016724,23.67646598815918
0,1780559,10.660755157470703,18.656890869140625,-16.631189346313477,-51.334442138671875
0,1780561,2.6136152744293213,-10.533833503723145,-2.2345309257507324,10.189417839050293
0,1780563,-5.337851047515869,-4.5502800941467285,0.2607958912849426,42.417198181152344
0,1780565,0.11341170966625214,15.222143173217773,-27.048364639282227,-9.207596778869629
0,1780567,16.091941833496094,-6.856151580810547,29.503997802734375,-35.05704116821289
0,1780569,-19.955364227294922,-29.60651397705078,23.293697357177734,14.856614112854004
0,1780571,-13.07413101196289,13.793749809265137,-22.793933868408203,34.33014678955078
0,1780573,21.95430564880371,-6.57201623916626,-19.343156814575195,-18.73655128479004
0,1780575,-1.9815073013305664,0.19834008812904358,3.434744358062744,-30.357261657714844
0,1780577,-6.735503196716309,45.73404312133789,36.610633850097656,26.237863540649414
0,1780579,-21.589712142944336,-40.8860969543457,-4.18158483505249,6.625922203063965
0,1780581,6.610098838806152,-0.505849301815033,2.1333131790161133,-40.74684524536133
0,1780583,43.83012390136719,33.13557434082031,11.174842834472656,13.141167640686035
0,1780585,-2.102215051651001,-34.274105072021484,-13.1400785446167,45.10072708129883
0,1780587,-41.24324417114258,-21.02150535583496,-22.514575958251953,-14.087438583374023
0,1780589,12.234869956970215,33.3949089050293,-7.538044452667236,-52.770565032958984
0,1780591,29.159250259399414,25.36125946044922,28.748476028442383,-3.322906017303467
0,1780593,-29.52763557434082,-31.661283493041992,-14.794824600219727,37.24506378173828
0,1780595,35.25312042236328,13.318314552307129,-15.845647811889648,19.101638793945312
0,1780597,21.944326400756836,20.025564193725586,27.199392318725586,8.024099349975586
0,1780599,-53.471614837646484,-34.18902587890625,1.535109043121338,-10.572786331176758
0,1780601,-35.50542449951172,-15.358109474182129,-42.502227783203125,-49.08911895751953
0,1780603,8.280723571777344,27.913204193115234,20.223041534423828,-9.685084342956543
0,1780605,32.41802215576172,6.793467998504639,35.34739303588867,28.659862518310547
0,1780607,0.4117799997329712,-15.799456596374512,-20.766521453857422,6.032690048217773
0,1780609,15.339507102966309,6.899086952209473,7.461722373962402,-13.671238899230957
0,1780611,0.4648996889591217,16.99236297607422,30.085617065429688,27.47783088684082
0,1780613,-27.11833381652832,-11.424824714660645,-8.733957290649414,33.7349967956543
0,1780616,1.7181814908981323,-34.09107208251953,-46.6395149230957,-40.969635009765625
0,1780617,-12.582775115966797,-5.859344959259033,-7.780984878540039,-26.15087890625
0,1780618,9.857254028320312,25.460681915283203,11.77474308013916,13.078593254089355
0,1780621,18.91434097290039,9.24701976776123,-1.7851097583770752,26.65736198425293
0,1780622,-14.439764976501465,-19.638206481933594,6.996432304382324,9.638585090637207
0,1780625,-7.324797630310059,5.159612655639648,13.685139656066895,-14.181297302246094
0,1780626,0.6220190525054932,27.895429611206055,-9.753361701965332,-1.407666563987732
0,1780629,6.608649253845215,-3.0388965606689453,-24.460681915283203,-35.230224609375
0,1780630,4.996860504150391,-27.97286605834961,22.69207763671875,-13.813504219055176
0,1780633,-8.726619720458984,-3.2510743141174316,13.340081214904785,6.69666051864624
0,1780634,-10.80812931060791,6.362427234649658,-5.507791042327881,5.358224391937256
0,1780637,18.021791458129883,-0.332808256149292,-6.679102897644043,66.35982513427734
0,1780638,7.048050880432129,10.994563102722168,-22.59410858154297,28.351526260375977
0,1780641,13.843894958496094,4.676879405975342,37.123592376708984,-20.354249954223633
0,1780642,-10.161372184753418,-4.641626834869385,4.908902168273926,-33.20571517944336
0,1780645,-32.95101547241211,10.972532272338867,-34.974517822265625,-143.154296875
0,1780646,21.829687118530273,2.277068853378296,24.449474334716797,24.091800689697266
0,1780649,9.462459564208984,-31.547893524169922,-4.639708042144775,227.534912109375
0,1780650,-6.9385271072387695,-5.519023418426514,-8.960506439208984,-27.285804748535156
0,1780653,-11.488324165344238,27.715227127075195,28.491920471191406,-112.99966430664062
0,1780654,-3.3733577728271484,-4.194174766540527,2.315817356109619,-11.631691932678223
0,1780657,7.152492046356201,-19.474472045898438,-23.796215057373047,5.5417914390563965
0,1780658,-9.744047164916992,13.756792068481445,-18.170608520507812,30.884626388549805
0,1780661,19.06641960144043,14.825559616088867,27.72650146484375,28.129194259643555
0,1780662,14.355195999145508,5.263352870941162,15.464371681213379,4.339570045471191
0,1780665,-4.3569722175598145,-18.8011531829834,-42.10268020629883,-39.998600006103516
0,1780666,35.16197204589844,-10.566904067993164,-8.125535011291504,2.52732515335083
0,1780669,-31.915006637573242,29.386777877807617,32.49516677856445,39.426185607910156
0,1780670,-33.69182586669922,-13.639379501342773,8.37682819366455,25.27799415588379
0,1780673,37.74046325683594,-12.477807998657227,-29.71263885498047,-46.720611572265625
0,1780674,-29.17788314819336,24.382810592651367,4.308992385864258,-117.74543762207031
0,1780677,-8.586556434631348,-18.838109970092773,20.735824584960938,-12.926765441894531
0,1780678,31.66060447692871,-19.91431999206543,-25.37883186340332,41.08378219604492
0,1780681,4.223474979400635,34.69390869140625,-10.763954162597656,116.08417510986328
0,1780682,-22.769908905029297,8.618783950805664,8.360754013061523,110.80786895751953
0,1780685,-26.24297332763672,-21.41399574279785,16.56169891357422,-159.3666534423828
0,1780686,16.634159088134766,0.08207634091377258,-1.3515912294387817,-99.22991180419922
0,1780689,3.5647714138031006,1.5665913820266724,-4.185966491699219,55.36650466918945
0,1780690,-11.889873504638672,-11.961872100830078,23.394805908203125,14.45913314819336
0,1780693,21.89679527282715,11.243926048278809,-0.4900372326374054,48.31002426147461
0,1780694,32.66057586669922,34.05768585205078,5.385987758636475,45.538978576660156
0,1780697,-3.191938638687134,8.909016609191895,8.081094741821289,-20.716506958007812
0,1780698,-34.56105422973633,-35.95619583129883,-13.295426368713379,-20.088356018066406
0,1780701,-5.91993522644043,-31.392152786254883,-23.965993881225586,14.50827693939209
0,1780702,14.023042678833008,14.756023406982422,-15.0199556350708,-14.628866195678711
0,1780705,-35.621803283691406,-5.902748107910156,21.155160903930664,-63.369171142578125
0,1780706,11.331951141357422,1.1253257989883423,0.8136380314826965,-16.89419937133789
0,1780709,53.61729431152344,15.730841636657715,-20.980546951293945,95.29466247558594
0,1780710,-10.567996978759766,-6.91671895980835,19.524831771850586,11.797173500061035
0,1780713,-23.172330856323242,29.599273681640625,25.43840217590332,-95.68085479736328
0,1780715,-4.091782569885254,10.480631828308105,-24.783477783203125,17.654464721679688
0,1780717,15.341058731079102,-38.70566940307617,-22.13454246520996,93.68783569335938
0,1780719,9.79212474822998,4.459224224090576,31.08255958557129,7.3926286697387695
0,1780721,-13.125749588012695,9.635824203491211,17.504425048828125,-59.40336608886719
0,1780723,-10.91767692565918,-32.80536651611328,-23.535728454589844,-25.54694366455078
0,1780725,1.5978866815567017,13.923420906066895,-2.6061697006225586,-39.9600830078125
0,1780727,0.6541867852210999,26.9315185546875,14.427933692932129,-88.5309829711914
0,1780729,4.1402153968811035,-22.316741943359375,-11.480029106140137,47.01765060424805
0,1780731,-0.2711893916130066,3.618845224380493,-22.907384872436523,190.6835479736328
0,1780733,-27.367887496948242,-17.1027889251709,-22.949384689331055,37.92366027832031
0,1780735,-18.331510543823242,-9.027859687805176,6.72113561630249,-135.23275756835938
0,1780737,47.37763214111328,42.68022918701172,43.790340423583984,-65.4834976196289
0,1780739,22.935781478881836,-6.265097141265869,-0.28322839736938477,44.62179183959961
0,1780741,-24.41591453552246,-4.280742645263672,-3.321861505508423,81.44544982910156
0,1780743,16.84635353088379,27.751758575439453,33.556034088134766,-4.70782995223999
0,1780745,-11.221768379211426,-13.16501235961914,-6.251431465148926,-88.52749633789062
0,1780747,-25.129274368286133,-22.3123779296875,-27.348819732666016,-90.40299987792969
0,1780749,18.08770751953125,2.6471946239471436,-13.37424087524414,-4.151124954223633
0,1780751,-5.124943733215332,-19.51023292541504,8.4068021774292,231.4944305419922
0,1780753,4.156410217285156,20.50554847717285,32.25218200683594,212.15029907226562
0,1780755,-4.024730205535889,7.112744331359863,-43.50117111206055,-270.0789489746094
0,1780757,-29.44399070739746,-64.23613739013672,-79.51336669921875,-473.4643859863281
0,1780759,38.33723831176758,33.861053466796875,62.57085037231445,225.5236053466797
0,1780761,15.194172859191895,39.02678298950195,73.838134765625,482.6064147949219
0,1780763,-25.001636505126953,-17.70427703857422,-17.848058700561523,-192.57247924804688
0,1780765,-4.269199371337891,38.91524124145508,0.6728364825248718,-181.43380737304688
0,1780767,0.8346430063247681,-34.07550811767578,-32.896507263183594,207.11082458496094
0,1780769,10.8175630569458,-58.16279602050781,-40.29404067993164,-3.6716647148132324
0,1780771,22.126522064208984,73.49828338623047,57.494224548339844,-154.239990234375
0,1780773,13.574830055236816,55.889991760253906,46.15114212036133,-11.13438606262207
0,1780775,-27.260910034179688,-61.68396759033203,-52.948692321777344,-70.85692596435547
0,1780777,-7.021069526672363,-39.00643539428711,-16.8382568359375,-5.024567127227783
0,1780779,0.5074170231819153,27.513816833496094,18.25170135498047,269.3901672363281
0,1780781,-30.090564727783203,-15.606621742248535,-29.47352409362793,211.8740997314453
0,1780783,15.877066612243652,-4.467024326324463,-5.157800674438477,-206.68223571777344
0,1780785,27.95248031616211,25.260229110717773,27.652414321899414,-383.2929992675781
0,1780787,-28.23821258544922,-12.786688804626465,8.157682418823242,164.44198608398438
0,1780789,-20.668180465698242,8.061466217041016,-13.148661613464355,224.33084106445312
0,1780791,18.609277725219727,7.302277565002441,7.9368486404418945,-134.4529571533203
0,1780793,38.0518798828125,-7.092342376708984,8.793107032775879,-105.3726577758789
0,1780795,-0.9137846231460571,0.7278591394424438,-18.492660522460938,-165.90565490722656
0,1780797,-54.690311431884766,-19.512990951538086,-11.078697204589844,61.037261962890625
0,1780799,14.511981010437012,-0.39070039987564087,21.246517181396484,273.402587890625
0,1780801,29.58962059020996,23.823640823364258,22.305896759033203,20.126907348632812
0,1780803,-9.251151084899902,10.872970581054688,-7.159890651702881,-104.424072265625
0,1780805,9.670952796936035,-18.056598663330078,-24.630292892456055,49.680137634277344
0,1780807,-3.009751319885254,5.701750755310059,3.7427399158477783,38.4749641418457
0,1780809,-26.720651626586914,6.442494869232178,13.941798210144043,-12.642560958862305
0,1780811,1.0342512130737305,-15.39315414428711,-2.6899590492248535,70.47376251220703
0,1780813,23.400222778320312,12.694387435913086,19.667606353759766,-19.893545150756836
0,1780815,-19.636852264404297,1.1397486925125122,-33.64383316040039,-129.0850067138672
0,1780817,3.4740209579467773,9.210587501525879,-44.53571319580078,1.566814661026001
0,1780819,10.324512481689453,22.205015182495117,39.295528411865234,-20.825902938842773
0,1780821,-0.0036846627481281757,-10.408365249633789,40.247337341308594,-91.13246154785156
0,1780824,28.87019157409668,-39.40734100341797,6.760400295257568,28.187503814697266
0,1780825,-6.386793613433838,-15.757840156555176,-29.090028762817383,5.912031173706055
0,1780828,-40.18361282348633,6.43634557723999,-48.141807556152344,0.24858888983726501
0,1780829,0.8993782997131348,0.7643786668777466,-6.0796895027160645,287.7222595214844
0,1780832,11.927225112915039,-21.424848556518555,31.903661727905273,210.05337524414062
0,1780833,10.868311882019043,23.0711669921875,51.83100891113281,-440.8080139160156
0,1780836,1.2776368856430054,72.21980285644531,0.03325912356376648,-173.29824829101562
0,1780837,-20.64546775817871,-20.156330108642578,-44.391780853271484,146.7688751220703
0,1780840,15.049176216125488,-70.8578872680664,2.1668894290924072,-353.2639465332031
0,1780841,-8.986271858215332,3.4078001976013184,-6.401434421539307,184.2266387939453
0,1780842,-15.904180526733398,31.03059959411621,-2.783086061477661,774.6365966796875
0,1780845,-4.773314476013184,-27.697154998779297,8.322244644165039,-96.6754150390625
0,1780846,7.433141231536865,-1.776002049446106,-17.78969955444336,-764.0751953125
0,1780849,29.442840576171875,36.6767692565918,21.540584564208984,-91.6196060180664
0,1780850,2.395996332168579,4.049442291259766,25.68893814086914,460.91253662109375
0,1780853,-7.922156810760498,-9.782798767089844,-11.34654712677002,47.0262565612793
0,1780854,13.000792503356934,18.001323699951172,9.161943435668945,-49.59221267700195
0,1780857,5.089928150177002,20.838754653930664,-4.52287483215332,82.94608306884766
0,1780858,-30.824268341064453,-24.38067054748535,-9.143187522888184,-99.54214477539062
0,1780861,-9.450568199157715,-22.755842208862305,0.1158837303519249,-40.61252975463867
0,1780862,12.625102043151855,2.1876673698425293,-17.17692756652832,-14.115034103393555
0,1780865,-9.546971321105957,-3.7002227306365967,10.013531684875488,69.08970642089844
0,1780866,-17.2701358795166,10.687355041503906,-1.6467372179031372,45.41486740112305
0,1780869,8.784723281860352,4.731462001800537,-17.669822692871094,-415.4971008300781
0,1780870,41.335453033447266,-3.410714626312256,19.244827270507812,-188.1264190673828
0,1780873,-0.5729714035987854,14.518688201904297,28.384986877441406,649.6710815429688
0,1780874,-47.93031311035156,-45.784542083740234,-30.638748168945312,319.9944152832031
0,1780877,6.852367877960205,-13.779441833496094,-50.13452911376953,-278.7632751464844
0,1780878,38.79096603393555,51.0914192199707,34.89751052856445,-15.277841567993164
0,1780881,-10.069658279418945,-26.86615562438965,47.540225982666016,-149.3638153076172
0,1780882,-8.59963607788086,4.16544246673584,-24.925495147705078,75.31382751464844
0,1780885,8.44814395904541,20.064102172851562,-30.272354125976562,-152.93011474609375
0,1780886,-15.429802894592285,-46.39967727661133,7.718662738800049,-530.5405883789062
0,1780889,-21.212923049926758,18.556249618530273,21.041074752807617,551.1683349609375
0,1780890,48.15524673461914,55.36459732055664,27.701276779174805,594.0195922851562
0,1780893,41.72876739501953,-4.187896728515625,4.281517505645752,-497.90386962890625
0,1780894,-55.23149871826172,-53.4549674987793,-37.24553298950195,-633.45556640625
0,1780897,-6.3345465660095215,14.220866203308105,-7.663631916046143,327.7926940917969
0,1780898,33.4680290222168,118.830322265625,56.66929244995117,501.28485107421875
0,1780901,-11.754300117492676,-33.527645111083984,-19.335329055786133,-99.10088348388672
0,1780902,-36.83285903930664,-134.6057891845703,-73.97053527832031,-313.9863586425781
0,1780905,-45.93727111816406,19.76219940185547,21.043746948242188,72.22899627685547
0,1780906,18.72391700744629,15.224209785461426,14.157642364501953,582.173583984375
0,1780909,63.96242904663086,-14.540605545043945,-10.627103805541992,-391.14990234375
0,1780910,18.45024871826172,75.8229751586914,34.56640625,-679.6957397460938
0,1780913,-12.398612022399902,41.159542083740234,25.017436981201172,611.1133422851562
0,1780914,-28.618703842163086,-99.39757537841797,-26.900733947753906,504.9612731933594
0,1780917,-41.415897369384766,-81.62349700927734,-43.62104415893555,-479.2566833496094
0,1780918,-15.257040977478027,46.82914733886719,3.8046882152557373,-417.9449768066406
0,1780921,74.03496551513672,87.04471588134766,44.14188766479492,70.11419677734375
0,1780922,73.56985473632812,90.76641082763672,52.7496223449707,305.8126220703125
0,1780925,-33.01506805419922,-26.45485496520996,-6.260255336761475,91.82134246826172
0,1780926,-53.17420196533203,-92.62528228759766,-66.9305648803711,64.93824768066406
0,1780929,-54.60737609863281,-48.88203811645508,-43.39337158203125,105.9225845336914
0,1780930,-22.03939437866211,-62.3532600402832,8.079797744750977,-435.4432678222656
0,1780933,66.17806243896484,31.319000244140625,50.804813385009766,-211.21434020996094
0,1780934,22.731586456298828,64.34481048583984,-0.09901683032512665,260.45953369140625
0,1780937,-16.441665649414062,33.36098861694336,-48.0351448059082,171.47158813476562
0,1780938,28.407140731811523,19.462928771972656,6.345830917358398,47.498924255371094
0,1780941,-6.450186729431152,-49.304222106933594,50.425048828125,-101.39130401611328
0,1780942,-27.127424240112305,-7.763910293579102,2.6268956661224365,-66.05851745605469
0,1780945,2.3033735752105713,23.768415451049805,-34.195011138916016,-3.249481439590454
0,1780946,10.89141845703125,23.542011260986328,7.237578392028809,-44.1561393737793
0,1780949,23.53948211669922,30.274282455444336,32.29152297973633,34.08747100830078
0,1780951,-4.474531173706055,-23.462543487548828,13.476836204528809,32.15193176269531
0,1780953,-83.60916900634766,-50.45198440551758,-70.07682800292969,421.17724609375
0,1780955,-2.8347256183624268,-1.7203357219696045,-7.039090633392334,463.69537353515625
0,1780957,83.2113037109375,14.804961204528809,79.85340881347656,-636.4720458984375
0,1780959,-19.998401641845703,-26.79776382446289,-40.51705551147461,-493.9453430175781
0,1780961,-36.99838638305664,-10.526582717895508,-40.112667083740234,-194.78146362304688
0,1780963,24.425006866455078,12.852862358093262,36.52672576904297,-151.40802001953125
0,1780965,42.27405548095703,40.06123733520508,36.41254425048828,789.396728515625
0,1780967,14.269810676574707,37.182430267333984,4.052721977233887,102.48246765136719
0,1780969,-37.2214469909668,-38.881019592285156,-60.90074157714844,-277.0698547363281
0,1780971,-20.76468849182129,-38.58641052246094,-25.72610092163086,186.1353759765625
0,1780975,21.395532608032227,28.456918716430664,21.016788482666016,-549.9684448242188
0,1780976,10.482519149780273,37.61454391479492,7.327509880065918,-389.0428466796875
0,1780977,-29.913301467895508,-22.304534912109375,39.092498779296875,516.1072998046875
0,1780978,-6.1961894035339355,-37.113609313964844,14.323075294494629,460.857666015625
0,1780981,0.8568819761276245,-14.35181999206543,-51.09579849243164,306.4060974121094
0,1780982,-7.700430393218994,-14.496774673461914,-22.678903579711914,-61.19861602783203
0,1780985,32.84833908081055,41.245025634765625,60.79258346557617,-651.1531372070312
0,1780986,13.730965614318848,43.037315368652344,24.707595825195312,-84.80142974853516
0,1780989,-33.04978942871094,-49.290306091308594,-62.51936721801758,335.7418518066406
0,1780990,-13.956561088562012,-26.238237380981445,0.6281929612159729,137.55380249023438
0,1780993,55.62907791137695,62.42521286010742,54.65800476074219,236.55503845214844
0,1780994,-7.808350086212158,12.848198890686035,-3.3798272609710693,-261.7171630859375
0,1780997,-69.13346862792969,-62.1845703125,-38.39779281616211,-288.4171447753906
0,1780998,11.826767921447754,-36.13853073120117,-19.68682289123535,144.71128845214844
0,1781001,16.003446578979492,19.644460678100586,-20.967639923095703,-100.47613525390625
0,1781002,7.091917991638184,45.81350326538086,8.106152534484863,-63.68621826171875
0,1781005,29.217588424682617,28.822895050048828,43.75812530517578,32.60993194580078
0,1781006,-11.111632347106934,-5.72767972946167,7.784952163696289,32.36838150024414
0,1781009,-10.388957977294922,-20.34029197692871,-3.726184368133545,-16.634624481201172
0,1781010,17.358762741088867,-21.042478561401367,-10.76479434967041,-18.261337280273438
0,1781013,-7.150858402252197,11.081620216369629,11.888487815856934,40.69710922241211
0,1781014,-18.680824279785156,24.74873161315918,4.171717643737793,46.21189498901367
0,1781017,-0.023878727108240128,12.753308296203613,-33.80096435546875,0.9772069454193115
0,1781018,42.61933135986328,21.31406593322754,39.06494903564453,66.5569076538086
0,1781021,-13.064687728881836,-53.234127044677734,15.171510696411133,429.72125244140625
0,1781022,-63.2315673828125,-67.5158462524414,-54.68351364135742,-302.60589599609375
0,1781025,24.91778564453125,8.655451774597168,-12.984102249145508,-689.596435546875
0,1781026,44.853912353515625,50.33365249633789,21.5502986907959,590.8925170898438
0,1781029,-20.175783157348633,51.29217529296875,4.540926933288574,308.0668029785156
0,1781030,-28.451547622680664,-31.69940948486328,-22.42486000061035,-538.7610473632812
0,1781033,5.588003635406494,-41.3757209777832,-8.822197914123535,83.85330963134766
0,1781034,18.099971771240234,21.14223861694336,33.70299530029297,184.3153839111328
0,1781037,6.487687110900879,26.086816787719727,28.12175750732422,-293.7286682128906
0,1781038,-16.248214721679688,3.5986976623535156,-17.70674705505371,-471.5774841308594
0,1781041,15.51953411102295,-21.24811363220215,-9.179548263549805,468.8111267089844
0,1781042,7.631994724273682,-5.872352600097656,-4.1390910148620605,904.0836181640625
0,1781045,-25.084129333496094,25.165611267089844,1.2187891006469727,-589.1436767578125
0,1781046,2.716033697128296,-16.106046676635742,24.28835105895996,-595.3688354492188
0,1781049,1.67026948928833,-57.181949615478516,-25.616424560546875,1207.1038818359375
0,1781050,7.322778701782227,24.883054733276367,14.114461898803711,49.74652099609375
0,1781053,6.442615509033203,31.86295509338379,26.910419464111328,-1759.8704833984375
0,1781054,-14.615193367004395,-38.69182205200195,-75.33705139160156,273.6935119628906
0,1781057,18.127164840698242,28.627893447875977,-6.650440216064453,1081.7022705078125
0,1781058,8.646547317504883,41.77009201049805,48.54727554321289,-206.2644805908203
0,1781061,-32.81742858886719,-22.49681282043457,4.891820907592773,-160.20199584960938
0,1781062,6.905309677124023,-14.591231346130371,1.3662712574005127,152.3778533935547
0,1781065,16.22160530090332,2.9890029430389404,-1.7147407531738281,-324.8214416503906
0,1781066,5.934392929077148,11.868653297424316,7.849554061889648,-632.7470092773438
0,1781069,-1.2435188293457031,23.3763427734375,-8.618608474731445,583.4444580078125
0,1781070,-24.69403076171875,-1.8200525045394897,-8.058770179748535,965.2427368164062
0,1781073,17.263776779174805,-63.03707504272461,4.415413856506348,-403.2713623046875
0,1781074,-9.109562873840332,-48.249595642089844,-32.57619094848633,-479.89996337890625
0,1781077,-43.44850540161133,20.618656158447266,-8.06176471710205,184.06683349609375
0,1781078,15.529654502868652,61.06163024902344,41.70207595825195,-103.14562225341797
0,1781081,59.162418365478516,49.49028778076172,36.226192474365234,16.313276290893555
0,1781082,30.191253662109375,-17.009584426879883,1.9454444646835327,169.21316528320312
0,1781085,-40.61671829223633,-41.26023864746094,-31.861425399780273,-243.4956512451172
0,1781086,-33.401123046875,-24.549667358398438,-46.48050308227539,-69.38591766357422
0,1781089,-13.018662452697754,14.230290412902832,-21.984323501586914,59.93790054321289
0,1781090,19.52227020263672,30.9525203704834,47.244441986083984,73.5626220703125
0,1781093,33.679115295410156,7.633147239685059,58.130306243896484,-71.9234619140625
0,1781094,-19.464689254760742,-3.2084109783172607,-8.608160018920898,-156.096435546875
0,1781097,-16.898500442504883,-28.346023559570312,-53.75238037109375,342.267333984375
0,1781098,5.000532150268555,-19.028345108032227,-7.332953453063965,384.12432861328125
0,1781101,-1.7959260940551758,26.51643943786621,42.524288177490234,-397.92724609375
0,1781102,8.0665283203125,-5.9332475662231445,-16.38583755493164,-750.9995727539062
0,1781105,-31.74574851989746,-65.83783721923828,-60.745079040527344,570.6632690429688
0,1781106,2.9086287021636963,24.03230094909668,18.347991943359375,590.2759399414062
0,1781109,55.04761505126953,87.11497497558594,67.25740051269531,-555.4425048828125
0,1781110,-18.33609962463379,-1.4606410264968872,19.49660873413086,1.4396804571151733
0,1781113,-16.30169677734375,-34.190982818603516,-43.548946380615234,241.5541229248047
0,1781114,11.559884071350098,-22.036298751831055,-71.75676727294922,20.122337341308594
0,1781117,11.542302131652832,-2.125471830368042,28.17213249206543,-171.9552764892578
0,1781118,10.753021240234375,36.87126159667969,71.96450805664062,-285.9783020019531
0,1781121,7.4452223777771,11.115753173828125,-3.954076051712036,265.70184326171875
0,1781124,-31.650930404663086,-26.468469619750977,16.84178352355957,271.2068176269531
0,1781125,-23.774765014648438,4.168057441711426,-8.235455513000488,-35.33887481689453
0,1781127,3.4368603229522705,-11.682353019714355,-87.69166564941406,-306.5919494628906
0,1781129,11.972514152526855,-12.88966178894043,21.666473388671875,-154.87950134277344
0,1781131,48.024295806884766,43.86006546020508,92.55449676513672,580.436767578125
0,1781133,-54.32950973510742,-23.7032527923584,-67.74659729003906,-418.19775390625
0,1781135,-55.354736328125,-49.387733459472656,-54.61333084106445,-747.571044921875
0,1781137,70.7759780883789,58.870445251464844,89.60084533691406,1155.6669921875
0,1781139,16.238679885864258,18.08428955078125,-0.0013710008934140205,233.34210205078125
0,1781141,-43.28221893310547,-55.059364318847656,-69.26274108886719,-922.8217163085938
0,1781143,5.324170112609863,21.366796493530273,8.91370677947998,75.0987319946289
0,1781145,38.67071533203125,3.575648069381714,13.481622695922852,97.41839599609375
0,1781147,15.846899032592773,-31.340063095092773,-24.906612396240234,269.08526611328125
0,1781149,-20.802894592285156,42.71929931640625,29.36461639404297,245.10049438476562
0,1781151,-0.744000256061554,28.791290283203125,54.86654281616211,-245.4947509765625
0,1781153,12.812612533569336,-7.343421936035156,9.52729320526123,-451.1846923828125
0,1781155,-34.05028533935547,-21.386505126953125,-40.96171951293945,118.48930358886719
0,1781157,-17.407106399536133,-24.235748291015625,-31.153308868408203,697.43017578125
0,1781159,45.637882232666016,11.170343399047852,15.522709846496582,150.38075256347656
0,1781161,-40.8991813659668,-39.47077178955078,-26.406625747680664,-573.95068359375
0,1781163,-47.45384979248047,-6.861758232116699,26.768230438232422,-806.525146484375
0,1781165,74.60401153564453,76.24836730957031,54.00069808959961,234.21096801757812
0,1781167,24.772743225097656,-3.9876558780670166,-28.038471221923828,544.3800048828125
0,1781169,-23.79312515258789,-18.68575668334961,-12.944680213928223,153.234619140625
0,1781171,-21.6090030670166,14.701713562011719,-27.292156219482422,255.3717803955078
0,1781173,-13.94484806060791,-7.9895219802856445,-18.3980712890625,-681.8744506835938
0,1781175,23.887550354003906,-29.362159729003906,7.842282772064209,-325.3301086425781
0,1781177,-5.440929412841797,-38.416259765625,-32.95018768310547,1360.3402099609375
0,1781179,3.447629451751709,7.873274326324463,25.15412139892578,-80.17202758789062
0,1781181,26.273149490356445,60.65628433227539,59.43992233276367,-1158.6942138671875
0,1781183,-2.1782853603363037,24.278270721435547,-5.247199058532715,576.3491821289062
0,1781185,-34.95598602294922,-33.06460189819336,6.490697860717773,265.85595703125
0,1781187,-13.86634635925293,20.859159469604492,6.177635669708252,-529.1411743164062
0,1781189,48.60539627075195,6.397974014282227,-27.59287452697754,22.262208938598633
0,1781191,9.039342880249023,-36.20664978027344,5.007676601409912,42.395973205566406
0,1781193,-2.7546000480651855,35.65582275390625,40.63690185546875,241.3473663330078
0,1781195,-0.9176833629608154,14.802162170410156,-3.423095226287842,114.14188385009766
0,1781197,-53.74955749511719,-86.33670043945312,-77.56000518798828,-521.8184204101562
0,1781199,-17.31959342956543,-70.49864196777344,-51.8210334777832,-322.43585205078125
0,1781201,45.53144836425781,85.02547454833984,55.60995101928711,222.78150939941406
0,1781203,44.606658935546875,104.66416931152344,60.240379333496094,510.10870361328125
0,1781205,-28.611934661865234,-57.00969696044922,-39.760475158691406,147.93252563476562
0,1781207,-34.792884826660156,-68.5306396484375,-51.30927658081055,-194.08456420898438
0,1781209,0.4614088535308838,7.380202770233154,36.18419647216797,4.555397033691406
0,1781211,-13.00350570678711,25.60670280456543,60.99627685546875,-89.7547836303711
0,1781213,34.85219192504883,11.631546020507812,-11.986993789672852,-118.72349548339844
0,1781215,-3.6294100284576416,-15.648143768310547,-40.10270690917969,-29.576032638549805
0,1781217,-25.657625198364258,33.597808837890625,5.22650671005249,0.9820432662963867
0,1781219,65.88312530517578,38.874263763427734,32.12331771850586,-9.820981979370117
0,1781221,0.6984184384346008,-22.95184898376465,-1.4617257118225098,291.8385925292969
0,1781223,-55.1663818359375,-29.942398071289062,-33.47953796386719,552.9596557617188
0,1781225,8.291313171386719,-13.270269393920898,19.643535614013672,-445.89996337890625
0,1781227,21.283506393432617,10.711135864257812,28.69278335571289,-690.3076171875
0,1781229,-20.8580379486084,-21.58917999267578,-62.924137115478516,153.36495971679688
0,1781231,-21.45750617980957,-11.449531555175781,-18.549644470214844,167.4308624267578
0,1781233,38.366600036621094,55.84834289550781,48.65205764770508,100.1035385131836
0,1781235,31.68694305419922,25.057756423950195,10.047475814819336,27.171056747436523
0,1781237,-28.578685760498047,-23.44361114501953,-8.395965576171875,-39.18255615234375
0,1781239,-32.156795501708984,-31.246122360229492,-3.8085155487060547,28.799802780151367
0,1781241,26.032838821411133,2.1268012523651123,46.866966247558594,139.93675231933594
0,1781243,21.740386962890625,6.3496880531311035,-18.02806854248047,169.33889770507812
0,1781245,-38.541683197021484,-7.3831892013549805,-93.23175048828125,-382.0802917480469
0,1781247,-14.651846885681152,8.755605697631836,19.140182495117188,-243.76368713378906
0,1781249,10.034462928771973,-6.485335350036621,40.064937591552734,163.78321838378906
0,1781251,14.434486389160156,-1.8813759088516235,13.135384559631348,-64.56407928466797
0,1781253,6.90473747253418,4.173216819763184,0.9491011500358582,411.0596618652344
0,1781255,-10.532214164733887,-1.696999430656433,-18.79932975769043,751.2861328125
0,1781257,-29.55884552001953,-23.569599151611328,-6.816280841827393,-441.1387634277344
0,1781259,-11.1322021484375,-21.202924728393555,3.0595524311065674,-912.261474609375
0,1781261,46.58315658569336,50.75837326049805,37.970794677734375,-128.49911499023438
0,1781263,24.5041446685791,11.403239250183105,-22.93020248413086,172.70347595214844
0,1781265,-7.358409404754639,-33.3001594543457,-36.7444953918457,423.0697326660156
0,1781267,-18.26465606689453,44.21181869506836,36.15232467651367,133.29415893554688
0,1781269,14.256292343139648,28.511621475219727,20.406755447387695,-234.78521728515625
0,1781271,21.131595611572266,-51.26877212524414,-21.646677017211914,-28.272790908813477
0,1781273,-27.465232849121094,-37.786102294921875,-7.6595563888549805,5.235108375549316
0,1781275,-1.8056687116622925,30.324920654296875,20.511577606201172,-34.76229476928711
0,1781277,-0.8461669683456421,28.560514450073242,3.886040687561035,-8.295540809631348
0,1781279,-31.881591796875,-6.666719436645508,-17.060123443603516,16.22753143310547
0,1781282,15.259690284729004,3.2378106117248535,1.8860323429107666,74.03034973144531
0,1781283,29.852264404296875,0.9277765154838562,2.3719563484191895,111.46186065673828
0,1781286,-9.055496215820312,-8.025076866149902,-3.1801791191101074,-192.01258850097656
0,1781288,-32.868953704833984,-33.788211822509766,-0.9875978827476501,49.33449935913086
0,1781290,-17.159175872802734,-18.838272094726562,-27.097244262695312,503.7303466796875
0,1781291,25.079805374145508,16.088054656982422,-3.4608514308929443,268.8780212402344
0,1781294,10.506072044372559,-6.817622184753418,12.450586318969727,-877.3302612304688
0,1781295,6.45927095413208,16.07549476623535,-4.92535924911499,-841.5579833984375
0,1781298,32.6407470703125,55.10004425048828,23.77310562133789,853.0813598632812
0,1781299,-30.75204086303711,-0.06804689019918442,9.586129188537598,415.3753967285156
0,1781302,-22.448307037353516,-40.17635726928711,-26.356016159057617,-344.797119140625
0,1781303,63.0196418762207,-0.4256022870540619,15.984062194824219,119.06297302246094
0,1781306,-26.39383316040039,-0.13281098008155823,22.292789459228516,41.95088195800781
0,1781307,-62.71415710449219,2.1002838611602783,-32.09299850463867,-97.14580535888672
0,1781310,35.12459945678711,7.326923370361328,3.5881595611572266,-40.868492126464844
0,1781311,16.57717514038086,-15.702934265136719,30.776437759399414,-30.588356018066406
0,1781314,3.5550053119659424,22.931360244750977,-1.5459938049316406,-4.637937068939209
0,1781315,4.370627403259277,16.153526306152344,-7.385865688323975,68.53910827636719
0,1781318,-31.708383560180664,-53.57011413574219,-34.13975524902344,19.32501983642578
0,1781319,8.551947593688965,-12.748738288879395,-6.5276312828063965,11.838292121887207
0,1781322,-1.5541772842407227,43.43998336791992,32.7132682800293,81.43413543701172
0,1781323,-3.4803688526153564,14.332083702087402,-0.48633909225463867,-7.1804118156433105
0,1781326,40.589393615722656,-14.256617546081543,-0.5636504292488098,-101.9814224243164
0,1781327,-16.477741241455078,-36.48786163330078,2.8871266841888428,-28.059513092041016
0,1781330,-29.698978424072266,-18.44260025024414,-29.351974487304688,20.544309616088867
0,1781331,27.123497009277344,44.56640625,-0.3855358362197876,-11.136153221130371
0,1781334,-17.528146743774414,13.154539108276367,-5.268621444702148,-37.54642868041992
0,1781335,-26.798608779907227,-23.98941421508789,-6.981893539428711,-1.735323190689087
0,1781338,31.876325607299805,27.674850463867188,32.931522369384766,72.37673950195312
0,1781339,19.61314582824707,6.123744487762451,8.327678680419922,50.99711990356445
0,1781342,-14.843988418579102,-57.046321868896484,2.5681469440460205,17.61928939819336
0,1781343,-15.218063354492188,-3.8916280269622803,-13.996682167053223,-26.864830017089844
0,1781346,3.884862184524536,25.02737045288086,-10.955718994140625,-59.97440719604492
0,1781347,9.91721248626709,-7.66065788269043,2.7289679050445557,7.30832576751709
0,1781350,7.602966785430908,45.88176345825195,22.83977699279785,-72.79891204833984
0,1781351,-3.3801796436309814,23.813379287719727,31.837379455566406,-10.61577033996582
0,1781354,10.802083015441895,-38.40922927856445,-48.40632629394531,104.0451431274414
0,1781355,-0.3576696515083313,-10.58815860748291,-23.371030807495117,-37.62424087524414
0,1781358,-20.33582878112793,-0.6628984212875366,30.17789649963379,33.74486541748047
0,1781359,31.159191131591797,9.013381004333496,19.20450782775879,59.42547607421875
0,1781362,4.339254856109619,12.751133918762207,13.718957901000977,-78.41621398925781
0,1781363,-21.464967727661133,0.9086771607398987,-16.902183532714844,-32.12721633911133
0,1781366,-18.984193801879883,-38.876895904541016,-52.56803894042969,22.37827491760254
0,1781367,-44.9481315612793,-75.07081604003906,-63.043190002441406,22.471149444580078
0,1781370,47.764892578125,49.8565559387207,52.54345703125,23.26922607421875
0,1781371,30.032682418823242,92.55777740478516,74.311279296875,-38.5589485168457
0,1781374,-25.873096466064453,-28.989961624145508,-5.209530830383301,-2.6383726596832275
0,1781375,15.955076217651367,-12.275031089782715,11.326364517211914,55.484527587890625
0,1781378,-24.15834617614746,13.899942398071289,-36.87586212158203,-49.85527801513672
0,1781379,-20.224864959716797,-23.6577205657959,-55.41303253173828,-69.95973205566406
0,1781382,32.26382064819336,-11.68571949005127,43.829345703125,93.23379516601562
0,1781383,13.86138916015625,17.96221923828125,59.844512939453125,67.05572509765625
0,1781386,-9.317556381225586,22.525997161865234,-1.984113097190857,-83.07096862792969
0,1781387,13.881796836853027,-10.115854263305664,-34.53369140625,-20.457271575927734
0,1781390,-19.385883331298828,-15.889256477355957,-39.672603607177734,-26.59529685974121
0,1781391,-45.22764587402344,-11.730152130126953,-26.89969253540039,-66.89437103271484
0,1781394,9.994584083557129,-7.388968467712402,5.97237491607666,31.32117462158203
0,1781395,44.15019607543945,5.462263107299805,49.955013275146484,87.97595977783203
0,1781398,18.24809455871582,11.162728309631348,37.04492950439453,82.34281158447266
0,1781399,-29.125411987304688,15.083252906799316,-12.06875991821289,-8.123943328857422
0,1781402,1.5675814151763916,5.661748886108398,-18.956998825073242,-63.08979797363281
0,1781403,5.570130825042725,-32.02814483642578,-14.311002731323242,-112.470458984375
0,1781406,-11.338385581970215,-3.1058123111724854,-1.968241572380066,3.925727367401123
0,1781407,25.81398582458496,59.957237243652344,27.800851821899414,179.7764434814453
0,1781410,-11.071953773498535,-28.175006866455078,2.7039902210235596,-11.193034172058105
0,1781411,-15.709559440612793,-49.94566345214844,-27.30195426940918,-65.70806884765625
0,1781414,39.14762496948242,27.050621032714844,-4.03922176361084,-2.5094473361968994
0,1781415,-7.841249942779541,10.275126457214355,16.553951263427734,-38.99824523925781
0,1781418,-29.531888961791992,-18.058496475219727,-33.87528610229492,-2.2792561054229736
0,1781419,21.857439041137695,-11.274432182312012,-32.137420654296875,16.629667282104492
0,1781422,-33.18102264404297,-0.7399182915687561,33.57252502441406,-6.4351983070373535
0,1781423,-17.972515106201172,32.41166305541992,29.418298721313477,-11.956472396850586
0,1781426,64.28690338134766,48.16604232788086,45.566829681396484,50.653953552246094
0,1781427,-19.489944458007812,-28.001121520996094,7.119701862335205,61.607234954833984
0,1781430,-41.59029769897461,-49.86756896972656,-44.636383056640625,-57.804969787597656
0,1781431,28.45490837097168,-6.330060005187988,-29.267168045043945,-68.4700698852539
0,1781434,31.779613494873047,39.34731674194336,2.8626182079315186,31.533132553100586
0,1781435,-14.47856616973877,23.049272537231445,45.812042236328125,-3.0702595710754395
0,1781438,-57.71986770629883,-65.55398559570312,-42.527244567871094,-35.34489440917969
0,1781439,57.728904724121094,23.478376388549805,-23.76390838623047,54.1505126953125
0,1781440,48.95035934448242,61.81049346923828,77.95585632324219,72.35065460205078
0,1781443,-92.17045593261719,-57.00630569458008,-40.91486740112305,-68.59403228759766
0,1781444,-45.2396125793457,-60.10454177856445,-109.770263671875,-68.67131805419922
0,1781447,37.76283264160156,21.083030700683594,31.08639144897461,-1.245397686958313
0,1781448,31.238004684448242,42.74331283569336,98.83973693847656,-22.831432342529297
0,1781451,24.453746795654297,4.334075450897217,17.199920654296875,94.56375122070312
0,1781452,31.719894409179688,12.743636131286621,12.430309295654297,101.43743896484375
0,1781455,-40.235286712646484,-7.471188545227051,-15.331076622009277,-37.7456169128418
0,1781456,-26.599315643310547,0.6385858654975891,-46.0124397277832,-44.47548294067383
0,1781459,8.011225700378418,0.8701795935630798,-13.550065994262695,-39.739601135253906
0,1781460,11.413551330566406,-22.389657974243164,-3.6112987995147705,-39.859920501708984
0,1781463,15.957408905029297,20.65666961669922,30.84917640686035,10.79065990447998
0,1781466,-35.39234924316406,21.372753143310547,38.69770431518555,55.89584732055664
0,1781467,7.480921268463135,-7.013197898864746,-27.892431259155273,16.142858505249023
0,1781469,21.8512020111084,-17.621505737304688,-33.73080825805664,-27.142292022705078
0,1781471,-18.459524154663086,-1.9882553815841675,49.95716857910156,28.70884895324707
0,1781473,7.178025245666504,-10.611379623413086,-1.1150301694869995,-20.415325164794922
0,1781475,13.3241605758667,11.743203163146973,-42.05635070800781,-106.83755493164062
0,1781477,-4.829741954803467,22.001697540283203,-14.106698036193848,47.924407958984375
0,1781479,-32.1386833190918,-46.12088394165039,-7.742443561553955,107.07413482666016
0,1781481,4.256086826324463,-18.375425338745117,33.8122444152832,-59.756935119628906
0,1781483,36.05671310424805,36.04222869873047,13.624412536621094,-30.579341888427734
0,1781485,-11.238237380981445,29.781003952026367,-7.325666904449463,45.5626106262207
0,1781487,-10.415848731994629,-16.4931697845459,-4.162517547607422,-18.216392517089844
0,1781489,4.017449855804443,-29.353717803955078,-5.22926664352417,-52.21890640258789
0,1781491,-4.811927318572998,17.132909774780273,-1.2983112335205078,-14.657387733459473
0,1781493,3.1964468955993652,-10.035331726074219,-23.96314811706543,106.1164321899414
0,1781495,-7.749265670776367,-37.59441375732422,6.891078472137451,73.02906799316406
0,1781497,5.667726516723633,24.703847885131836,55.669376373291016,-39.760799407958984
0,1781499,18.837297439575195,55.067813873291016,-12.585448265075684,-24.528051376342773
0,1781501,-11.240399360656738,3.607882261276245,-9.046806335449219,-59.721431732177734
0,1781503,-10.833907127380371,-25.825944900512695,4.209616661071777,-12.003522872924805
0,1781505,0.3646346926689148,-19.255746841430664,-52.7471923828125,43.84638977050781
0,1781507,21.464641571044922,5.227865219116211,6.048994064331055,-55.66646194458008
0,1781509,1.5957578420639038,21.894359588623047,28.15193748474121,-43.237701416015625
0,1781511,2.2766025066375732,10.789460182189941,5.589393615722656,91.05175018310547
0,1781513,-2.1361029148101807,-10.495896339416504,2.3892033100128174,49.918636322021484
0,1781515,-44.596981048583984,-45.49409866333008,-2.6684799194335938,-35.164955139160156
0,1781517,12.184494972229004,14.293478012084961,5.233804225921631,-47.7055549621582
0,1781519,28.878108978271484,48.13138961791992,-8.90505599975586,-42.040279388427734
0,1781521,-21.191789627075195,-57.23623275756836,-7.34458589553833,57.3924446105957
0,1781523,4.019468784332275,-19.73200225830078,3.6354472637176514,62.04583740234375
0,1781525,29.65850257873535,66.73375701904297,22.0017032623291,-8.013542175292969
0,1781527,-7.544058322906494,17.52298927307129,12.626184463500977,-32.63502883911133
0,1781529,-35.07051086425781,-35.898067474365234,-57.16075134277344,33.410888671875
0,1781531,-0.6528651118278503,-31.8685359954834,-23.76001739501953,0.20856519043445587
0,1781533,0.41590842604637146,9.660274505615234,47.2152214050293,-171.08282470703125
0,1781535,-21.38201141357422,11.478630065917969,3.3221473693847656,-1.2796850204467773
0,1781537,17.395843505859375,6.097777366638184,-32.07054901123047,123.2103500366211
0,1781539,-0.2501302659511566,1.2674338817596436,14.077588081359863,-63.544281005859375
0,1781541,-1.4996205568313599,-8.371731758117676,39.93167495727539,11.364545822143555
0,1781543,47.24229049682617,15.830416679382324,-6.736996173858643,114.98712921142578
0,1781545,7.025322914123535,-0.34885984659194946,-16.849037170410156,19.197649002075195
0,1781547,-35.02950668334961,-26.879426956176758,13.885891914367676,-24.551794052124023
0,1781549,18.67987823486328,20.53407096862793,7.689698219299316,-43.84927749633789
0,1781551,44.283409118652344,39.344200134277344,22.752275466918945,12.42832088470459
0,1781553,-39.32797622680664,-37.92547607421875,-44.15022277832031,-9.926438331604004
0,1781555,-32.21892166137695,-18.351451873779297,-40.67169952392578,-48.69921875
0,1781557,-14.041051864624023,10.996418952941895,39.608489990234375,36.4180793762207
0,1781559,-1.4741212129592896,-10.743658065795898,-5.937728404998779,21.233409881591797
0,1781561,35.990577697753906,10.214344024658203,-3.8540549278259277,8.923077583312988
0,1781563,-9.210677146911621,13.92738151550293,49.79257583618164,-15.486684799194336
0,1781565,19.230009078979492,15.711124420166016,6.136384010314941,-80.95362091064453
0,1781567,-20.38228988647461,-25.428302764892578,-101.41472625732422,-20.618154525756836
0,1781569,-58.73340606689453,-27.455047607421875,-1.6804198026657104,5.613798141479492
0,1781571,38.260955810546875,7.236144542694092,98.3918228149414,35.861549377441406
0,1781573,57.41260528564453,29.240650177001953,-9.485227584838867,138.4078369140625
0,1781575,-8.120335578918457,8.441612243652344,-46.48090744018555,18.996538162231445
0,1781577,-28.141674041748047,-24.30251121520996,-8.783265113830566,-98.89531707763672
0,1781579,-1.1803255081176758,1.546034336090088,10.989896774291992,-45.09181594848633
0,1781581,-1.3175934553146362,8.787992477416992,42.710514068603516,8.1483736038208
0,1781583,19.809532165527344,20.8385009765625,15.692668914794922,23.5792236328125
0,1781585,-5.057856559753418,-21.24803924560547,-41.82505416870117,2.2041428089141846
0,1781587,-40.530757904052734,-44.07040023803711,-41.744171142578125,38.649044036865234
0,1781589,13.662564277648926,30.673734664916992,0.5334424376487732,2.068877696990967
0,1781591,16.737651824951172,36.07308578491211,43.19922637939453,-89.39514923095703
0,1781593,-5.911087512969971,-30.368871688842773,2.11464524269104,-5.124593257904053
0,1781595,6.059126377105713,-13.63907241821289,1.7193971872329712,43.05834197998047
0,1781597,3.8225812911987305,22.40362548828125,16.8999080657959,2.3669869899749756
0,1781599,13.377963066101074,5.5879106521606445,-21.013076782226562,20.7678279876709
0,1781601,-7.036903381347656,5.0539960861206055,-19.54695701599121,-10.754422187805176
0,1781603,-20.87332534790039,-19.022321701049805,10.111723899841309,-19.67898178100586
0,1781605,17.53219985961914,-6.480523109436035,28.917146682739258,21.00156021118164
0,1781607,5.808341979980469,-0.8464193940162659,-28.802732467651367,30.735815048217773
0,1781609,-10.638372421264648,7.974667549133301,-12.990798950195312,3.5439109802246094
0,1781611,-10.35190200805664,25.900833129882812,46.080684661865234,-125.82136535644531
0,1781613,-45.35808181762695,-35.75300598144531,-34.09247970581055,-24.38926887512207
0,1781615,39.306785583496094,13.579167366027832,-6.277856349945068,164.5390167236328
0,1781617,79.85904693603516,42.54277801513672,42.48963928222656,3.8328309059143066
0,1781619,-35.261905670166016,-41.3734245300293,-56.466270446777344,-46.40087127685547
0,1781621,-53.66022491455078,-23.241426467895508,3.489722967147827,-33.743133544921875
0,1781623,-26.310617446899414,3.5608537197113037,22.325904846191406,-44.80735397338867
0,1781625,13.47154712677002,-0.010490572080016136,-24.36680030822754,61.6580810546875
0,1781627,42.845943450927734,25.88063621520996,34.75123596191406,37.061553955078125
0,1781629,20.791393280029297,27.717031478881836,35.21568298339844,6.974575519561768
0,1781631,-20.602577209472656,-21.46146583557129,-17.45174789428711,-15.441548347473145
0,1781633,-19.868629455566406,-30.842073440551758,-31.803009033203125,-29.915475845336914
0,1781635,32.494140625,8.656665802001953,10.803177833557129,-3.4855639934539795
0,1781637,-40.82622146606445,-26.46466064453125,-29.27459716796875,-30.354642868041992
0,1781639,-21.00881576538086,-1.1718751192092896,-4.602260112762451,44.170108795166016
0,1781641,69.92144775390625,46.1878662109375,28.3997745513916,51.94891357421875
0,1781643,-14.296834945678711,-30.826650619506836,-37.32740020751953,-51.57726287841797
0,1781645,-41.4605712890625,-26.51012420654297,-6.583195209503174,-80.84966278076172
0,1781647,13.275407791137695,30.104055404663086,0.6318836808204651,-73.78691101074219
0,1781650,32.18812561035156,32.11034393310547,56.5108642578125,115.54877471923828
0,1781651,-1.1139812469482422,22.562149047851562,54.57644271850586,156.3306121826172
0,1781654,-13.377845764160156,-6.9457244873046875,-52.09230422973633,-63.074954986572266
0,1781655,-24.574113845825195,-27.31414794921875,-28.75652503967285,-90.8571548461914
0,1781658,19.255048751831055,-11.449991226196289,9.579876899719238,13.94891357421875
0,1781659,40.01499557495117,22.373126983642578,26.24668312072754,53.293914794921875
0,1781660,-17.62407684326172,27.59931182861328,22.417211532592773,30.60045623779297
0,1781663,-6.656479358673096,-18.730567932128906,-2.281466484069824,-66.48778533935547
0,1781664,-37.65814971923828,-48.752662658691406,-67.8621826171875,-60.21013259887695
0,1781667,-5.160287380218506,-0.518383800983429,-42.298702239990234,61.94315719604492
0,1781668,42.197593688964844,28.103618621826172,53.13096618652344,30.94580841064453
0,1781671,-37.391231536865234,-4.370787143707275,0.019554294645786285,-6.832699298858643
0,1781672,-16.0128173828125,-22.80727767944336,-10.188887596130371,-28.214948654174805
0,1781675,53.6403923034668,30.45368194580078,48.02447509765625,-58.636070251464844
0,1781676,-13.227492332458496,19.793495178222656,1.2098941802978516,-5.679260730743408
0,1781679,-9.829580307006836,-38.39176559448242,-36.753013610839844,48.342979431152344
0,1781680,35.23262023925781,34.24299621582031,0.9002030491828918,54.870277404785156
0,1781683,-26.14945411682129,27.423921585083008,33.09035110473633,16.13887596130371
0,1781684,-6.7294230461120605,-55.854679107666016,5.375699043273926,-6.803129196166992
0,1781687,27.716028213500977,-4.530548095703125,-21.372182846069336,-41.298316955566406
0,1781688,-3.771939992904663,27.150163650512695,-4.025564193725586,-38.34998321533203
0,1781691,-17.51734161376953,-26.646867752075195,-27.32068634033203,47.7917594909668
0,1781692,-23.4299259185791,-16.829050064086914,-5.451629638671875,53.54838562011719
0,1781695,3.662501811981201,-6.899857044219971,1.2777342796325684,-107.84044647216797
0,1781696,26.26589012145996,0.4466176927089691,-6.505067348480225,-106.6092529296875
0,1781699,-15.804163932800293,37.567543029785156,41.29844665527344,129.38150024414062
0,1781700,-9.872878074645996,4.005908966064453,13.586526870727539,78.59178161621094
0,1781703,39.41732406616211,4.956902027130127,-7.3497161865234375,-63.93882751464844
0,1781704,-1.78203284740448,15.40948486328125,1.0232229232788086,19.30738639831543
0,1781707,-11.055145263671875,-6.031157970428467,0.4434967041015625,16.131465911865234
0,1781708,8.123373985290527,0.25606614351272583,-1.0774285793304443,-28.1566219329834
0,1781711,-25.19786834716797,-27.664838790893555,-17.932783126831055,2.187131404876709
0,1781712,-4.975544452667236,-16.134559631347656,-5.542333126068115,-14.518491744995117
0,1781715,28.67784881591797,24.166091918945312,41.475433349609375,-18.41510581970215
0,1781716,20.06619644165039,12.31064510345459,20.652673721313477,80.13630676269531
0,1781719,-16.04368019104004,-3.7231686115264893,-62.270408630371094,58.6488151550293
0,1781720,-26.628515243530273,-16.24423599243164,-48.89793014526367,-101.00607299804688
0,1781723,-25.34770393371582,-16.173656463623047,24.68507957458496,-121.793212890625
0,1781724,16.67870330810547,8.699642181396484,34.500213623046875,4.685545921325684
0,1781727,41.30005645751953,15.756669998168945,4.414053916931152,107.88809204101562
0,1781728,-52.95486068725586,5.950826644897461,-16.064556121826172,54.94197463989258
0,1781731,8.108893394470215,11.91640853881836,5.291151523590088,-44.29259490966797
0,1781732,45.048309326171875,-21.50741195678711,21.25751304626465,-52.711570739746094
0,1781735,-33.58107376098633,-10.26954460144043,-10.647659301757812,36.244056701660156
0,1781736,-5.977786540985107,29.55790901184082,-5.368311882019043,44.175880432128906
0,1781739,2.6744415760040283,-10.938356399536133,-1.018874168395996,-53.36786651611328
0,1781740,8.819478034973145,-27.191431045532227,-8.206934928894043,-3.269623041152954
0,1781743,2.6072659492492676,-13.012120246887207,13.11978530883789,40.66010284423828
0,1781744,12.188982963562012,17.290449142456055,0.8695423603057861,-9.752181053161621
0,1781747,17.04009437561035,19.929973602294922,-3.3906795978546143,-20.138885498046875
0,1781748,-22.630098342895508,-18.757001876831055,13.668116569519043,34.87471389770508
0,1781751,-6.601208209991455,-5.216926097869873,-9.534113883972168,10.384123802185059
0,1781752,0.26727747917175293,16.029926300048828,-24.834671020507812,-75.41404724121094
0,1781755,9.247838973999023,25.988170623779297,16.014089584350586,23.724334716796875
0,1781756,0.029418841004371643,4.035958766937256,9.095175743103027,17.025178909301758
0,1781759,-20.72077751159668,-44.842769622802734,-9.678117752075195,-80.37890625
0,1781760,4.645391464233398,9.496045112609863,19.988445281982422,41.4921989440918
0,1781763,-4.8170166015625,34.982200622558594,21.95341682434082,69.35303497314453
0,1781764,8.844196319580078,-22.711729049682617,-18.641244888305664,-36.358036041259766
0,1781767,20.95380210876465,-2.374230146408081,-17.679771423339844,2.5347979068756104
0,1781768,-13.04212474822998,-7.766528606414795,-5.290945529937744,40.27592468261719
0,1781771,-24.295806884765625,-5.580642223358154,-1.6110674142837524,-50.51954650878906
0,1781772,-6.580649375915527,25.279767990112305,-3.476646900177002,-60.03921127319336
0,1781775,44.850067138671875,1.7908437252044678,-14.75523853302002,81.54925537109375
0,1781776,7.748263835906982,-11.551285743713379,34.72754669189453,52.11383819580078
0,1781779,-33.48358154296875,-12.139265060424805,1.665748953819275,-57.75589370727539
0,1781780,3.5419440269470215,20.451406478881836,-40.723506927490234,-16.7822322845459
0,1781783,-18.85010528564453,-5.782076358795166,7.723341464996338,-0.10408289730548859
0,1781784,12.34525203704834,-13.110548973083496,20.130016326904297,-4.298311710357666
0,1781787,26.88207244873047,5.457650184631348,3.2250924110412598,-12.834141731262207
0,1781788,-2.3640828132629395,-7.016702651977539,8.653091430664062,18.964208602905273
0,1781791,-13.481934547424316,4.689918041229248,-0.7595377564430237,31.791736602783203
0,1781792,-35.249732971191406,-7.5971174240112305,-25.18987464904785,-48.67413330078125
0,1781795,33.19900131225586,38.695220947265625,6.2197980880737305,-8.952022552490234
0,1781796,34.43558883666992,10.588957786560059,41.66326141357422,63.903621673583984
0,1781799,-40.79511642456055,-66.61190795898438,-37.952205657958984,-11.925044059753418
0,1781800,-0.5635650753974915,9.641448020935059,-34.437164306640625,-46.79134750366211
0,1781803,21.957738876342773,46.23341751098633,69.56025695800781,21.03169822692871
0,1781804,-7.7165141105651855,-9.332077980041504,12.38205337524414,47.31332015991211
0,1781807,-2.6205601692199707,-41.489341735839844,-60.606849670410156,-21.716991424560547
0,1781808,-5.555893898010254,-3.5054874420166016,-24.043455123901367,-67.6481704711914
0,1781811,16.126550674438477,57.02799987792969,26.703449249267578,39.99580383300781
0,1781812,-0.19043755531311035,-10.9430513381958,32.406776428222656,92.46185302734375
0,1781815,-32.2842903137207,-47.94135284423828,3.285445213317871,-90.54496002197266
0,1781816,13.534429550170898,6.730836868286133,-18.143033981323242,-86.2017822265625
0,1781819,20.72872543334961,19.507938385009766,10.144445419311523,85.85084533691406
0,1781820,-14.905871391296387,29.040748596191406,8.627630233764648,24.48451042175293
0,1781823,-3.493891954421997,1.5076926946640015,-6.7559709548950195,-18.927959442138672
0,1781824,-9.2288818359375,-21.67479705810547,2.802570343017578,19.030330657958984
0,1781827,-18.228927612304688,-17.153564453125,-35.88673400878906,17.844219207763672
0,1781829,7.237165451049805,-22.44486427307129,-17.52371597290039,12.034440040588379
0,1781831,38.07339096069336,33.6217041015625,60.37264633178711,-76.88611602783203
0,1781833,24.685043334960938,34.906455993652344,16.16526222229004,-16.324771881103516
0,1781835,-46.61205291748047,-35.17671585083008,-64.49947357177734,127.03791809082031
0,1781837,-11.647176742553711,-25.73921012878418,-27.116853713989258,-12.646636009216309
0,1781839,14.861391067504883,0.13554997742176056,2.681751012802124,-106.62445831298828
0,1781841,-29.519508361816406,15.522912979125977,1.3695704936981201,-77.28922271728516
0,1781843,19.41664695739746,32.16918182373047,59.65392303466797,60.36117172241211
0,1781845,38.300872802734375,16.4354305267334,55.16579818725586,176.4199676513672
0,1781847,-31.51607894897461,-47.77238464355469,-48.80406951904297,-91.45858764648438
0,1781849,-15.666864395141602,-22.209794998168945,-38.581687927246094,-156.6730194091797
0,1781851,41.703311920166016,46.283180236816406,29.82277488708496,93.49888610839844
0,1781853,5.047287464141846,1.9340287446975708,14.246832847595215,44.73029708862305
0,1781855,-5.537445068359375,-14.999832153320312,-15.381763458251953,-12.397518157958984
0,1781857,5.300287246704102,-10.119651794433594,-7.743777275085449,33.41000747680664
0,1781859,-38.118003845214844,-6.964848518371582,5.1386308670043945,-20.886751174926758
0,1781863,2.3210723400115967,6.973684787750244,-12.889945983886719,1.4450325965881348
0,1781863,34.323829650878906,6.730486869812012,-5.176483631134033,-13.355244636535645
0,1781864,-29.620800018310547,6.856723308563232,3.149876117706299,-23.614015579223633
0,1781867,3.029790163040161,10.562886238098145,-7.013368606567383,19.193273544311523
0,1781868,33.05524826049805,15.84498405456543,10.382319450378418,7.096465587615967
0,1781871,-44.47237777709961,-17.252635955810547,18.20347785949707,-14.126372337341309
0,1781872,-28.486013412475586,-30.552722930908203,4.069882392883301,-4.480679512023926
0,1781875,52.3990478515625,19.080787658691406,-11.796738624572754,38.97320556640625
0,1781876,4.866888999938965,17.14127540588379,2.241018533706665,6.241896152496338
0,1781879,-24.827590942382812,-22.543758392333984,13.298938751220703,-31.213611602783203
0,1781880,8.252775192260742,-36.930633544921875,-24.821372985839844,-8.611886024475098
0,1781883,-21.560466766357422,4.640786647796631,-18.000492095947266,3.0909337997436523
0,1781884,30.016633987426758,58.121707916259766,15.022984504699707,13.804007530212402
0,1781887,38.00438690185547,-2.618018388748169,-20.97626304626465,-9.423911094665527
0,1781888,-52.50900650024414,-40.22675323486328,-17.002317428588867,4.911592483520508
0,1781891,-23.395160675048828,8.794988632202148,37.65019607543945,18.603954315185547
0,1781892,29.344406127929688,22.46710205078125,28.02437973022461,-29.65113639831543
0,1781895,22.2171573638916,-14.429610252380371,-7.515031337738037,2.604743003845215
0,1781896,-3.0861361026763916,-10.477670669555664,-22.85867691040039,28.396808624267578
0,1781899,-17.648008346557617,23.194334030151367,3.1857409477233887,-30.25121307373047
0,1781900,9.75427532196045,7.274435043334961,28.61899757385254,-22.392379760742188
0,1781903,20.831396102905273,-3.1424965858459473,-0.778624415397644,38.781517028808594
0,1781904,-28.93364715576172,-23.598962783813477,-12.455669403076172,23.234222412109375
0,1781907,-19.45063591003418,-29.51536750793457,4.10580587387085,-33.62586212158203
0,1781908,11.840021133422852,18.1314697265625,-16.808042526245117,-47.34574508666992
0,1781911,0.06254100799560547,41.97590637207031,9.6907958984375,16.870811462402344
0,1781912,13.390277862548828,-1.0868440866470337,23.208724975585938,53.735992431640625
0,1781915,-17.01053237915039,-50.296653747558594,-59.842857360839844,-13.145174980163574
0,1781916,-22.355791091918945,5.984415054321289,-16.299606323242188,-11.97414779663086
0,1781919,37.31568145751953,38.662696838378906,55.99161911010742,26.530807495117188
0,1781920,20.420917510986328,3.831610679626465,9.98814582824707,9.467082023620605
0,1781923,-33.57723617553711,10.445333480834961,-7.553910255432129,-19.272823333740234
0,1781924,-0.2618092894554138,-12.662147521972656,-3.6813907623291016,-32.52724838256836
0,1781927,23.4730167388916,-25.574838638305664,-9.928638458251953,-16.580623626708984
0,1781928,-20.91473960876465,4.557704448699951,-6.392974376678467,17.35148811340332
0,1781931,6.480550765991211,26.48548698425293,11.008174896240234,36.471858978271484
0,1781932,30.79167938232422,-0.5126736760139465,11.309754371643066,26.77952766418457
0,1781935,-30.371763229370117,-15.470597267150879,-19.610782623291016,-10.275370597839355
0,1781936,-29.580717086791992,-11.982095718383789,-13.573199272155762,-68.69559478759766
0,1781939,9.538034439086914,-17.796445846557617,15.80306339263916,-18.039485931396484
0,1781940,16.691669464111328,34.818687438964844,20.82869529724121,79.47940063476562
0,1781943,28.051000595092773,13.336645126342773,13.56883430480957,58.7379264831543
0,1781944,-1.4870390892028809,-32.52371597290039,-26.456031799316406,-106.14558410644531
0,1781947,-12.500238418579102,-6.528326034545898,-34.622318267822266,-57.34453201293945
0,1781948,-6.603610038757324,-11.945070266723633,7.314684867858887,150.10308837890625
0,1781951,-18.88235855102539,1.8218591213226318,8.090850830078125,-46.244571685791016
0,1781952,3.8362131118774414,23.993213653564453,19.081247329711914,-108.97654724121094
0,1781955,19.34678840637207,10.857008934020996,7.5069732666015625,67.15338897705078
0,1781956,6.123667240142822,27.34162712097168,1.901207685470581,17.141944885253906
0,1781959,-8.737971305847168,-16.495506286621094,-3.79919695854187,7.6849565505981445
0,1781960,5.800684452056885,-50.22962951660156,-42.780757904052734,1.0438849925994873
0,1781963,-10.415786743164062,6.231557369232178,-1.9411954879760742,-38.65065002441406
0,1781964,-30.251976013183594,26.70581817626953,37.86130142211914,20.160329818725586
0,1781967,4.2523579597473145,22.137161254882812,30.6441593170166,45.68543243408203
0,1781968,17.759254455566406,-5.80401086807251,2.0316293239593506,-12.920096397399902
0,1781971,26.796367645263672,-27.388242721557617,-23.26283836364746,-17.222064971923828
0,1781972,4.996906757354736,9.804628372192383,-8.49364185333252,8.77591609954834
0,1781975,-30.82340431213379,9.03327751159668,-9.267918586730957,-7.27250337600708
0,1781976,-14.641075134277344,-15.996688842773438,-6.229337215423584,-8.525397300720215
0,1781979,12.33275032043457,0.5652579069137573,24.692834854125977,8.017125129699707
0,1781980,6.073066711425781,2.6805505752563477,-10.911886215209961,-20.39406967163086
0,1781983,-15.806890487670898,4.074430465698242,-13.272851943969727,-17.15003776550293
0,1781984,17.8085880279541,-6.087499618530273,20.896677017211914,38.403934478759766
0,1781987,14.634047508239746,-2.3116660118103027,-12.06464672088623,0.7215665578842163
0,1781988,-20.010637283325195,16.324472427368164,-15.842584609985352,-20.803773880004883
0,1781991,3.0575199127197266,-3.4409072399139404,18.01936149597168,17.422836303710938
0,1781992,5.805341720581055,-13.23780632019043,11.651658058166504,20.769554138183594
0,1781995,-1.1010329723358154,14.345967292785645,-14.025264739990234,-29.750465393066406
0,1781996,-3.300771474838257,20.67583656311035,-12.271342277526855,-54.16236877441406
0,1781999,2.0948143005371094,-39.7743034362793,2.4961304664611816,55.813358306884766
0,1782000,8.237446784973145,-26.361230850219727,12.297090530395508,53.472293853759766
0,1782003,-18.234498977661133,37.5204963684082,-9.507742881774902,-85.0508804321289
0,1782004,9.865790367126465,28.167879104614258,16.602128982543945,-3.4205164909362793
0,1782007,24.933849334716797,6.611374855041504,19.787708282470703,85.92920684814453
0,1782008,-8.857166290283203,-24.107282638549805,-14.897313117980957,-6.983680725097656
0,1782011,-24.111488342285156,-24.772592544555664,-19.78838539123535,-65.5680160522461
0,1782012,-16.551815032958984,4.3247151374816895,-11.331286430358887,-41.72737121582031
0,1782015,12.030082702636719,3.286630153656006,21.638660430908203,32.727745056152344
0,1782016,5.241616249084473,-6.973199844360352,-0.309403657913208,52.51432418823242
0,1782019,24.29994010925293,-0.8997240662574768,-8.034774780273438,7.115167617797852
0,1782020,5.802277088165283,11.051070213317871,1.987646222114563,13.699552536010742
0,1782023,-27.80965805053711,11.856700897216797,18.082473754882812,1.5775197744369507
0,1782024,3.8462250232696533,1.9278764724731445,5.112996578216553,-66.32904815673828
0,1782027,-11.481247901916504,-6.4020233154296875,-20.935102462768555,-21.546213150024414
0,1782028,-14.457411766052246,-17.30902671813965,5.937096118927002,57.06577682495117
0,1782031,18.268844604492188,-0.04659140855073929,-3.7282607555389404,31.278413772583008
0,1782032,18.141815185546875,31.545185089111328,4.172808647155762,-16.348995208740234
0,1782035,-1.0585933923721313,1.1481400728225708,8.875622749328613,-30.126178741455078
0,1782036,10.946023941040039,6.174780368804932,0.47628453373908997,-5.484892845153809
0,1782039,-3.113515853881836,-9.548457145690918,1.9638915061950684,14.893404960632324
0,1782040,-40.215911865234375,-47.68808364868164,-42.00827407836914,-21.748090744018555
0,1782043,3.7899346351623535,-4.4313883781433105,-15.790449142456055,-54.27681350708008
0,1782044,29.026613235473633,23.896530151367188,42.18806076049805,33.26994705200195
0,1782047,2.0874927043914795,20.89249610900879,15.560527801513672,84.45660400390625
0,1782048,2.146672010421753,-15.504985809326172,-19.21245574951172,-31.235824584960938
0,1782051,-17.012603759765625,-12.681994438171387,1.759055733680725,-32.82979202270508
0,1782053,-13.347260475158691,28.060489654541016,13.036853790283203,27.087875366210938
0,1782055,24.473804473876953,0.3333134949207306,-27.603046417236328,-16.410226821899414
0,1782057,15.640589714050293,-6.090681076049805,0.39708831906318665,9.703801155090332
0,1782059,-17.1221923828125,17.262374877929688,21.147533416748047,-4.634585857391357
0,1782061,-33.362762451171875,3.7888736724853516,2.519066572189331,-48.33847427368164
0,1782063,22.309059143066406,7.6425604820251465,11.981203079223633,27.72227668762207
0,1782065,25.9393367767334,-16.78406524658203,-19.236404418945312,49.98317337036133
0,1782067,-17.3337345123291,-33.81318664550781,-30.015010833740234,-19.849279403686523
0,1782069,-14.445310592651367,8.707171440124512,13.065793991088867,-20.554468154907227
0,1782071,-12.32513427734375,19.542987823486328,31.624330520629883,10.304527282714844
0,1782073,25.882570266723633,-3.5401875972747803,2.2185449600219727,-5.22844123840332
0,1782076,12.056636810302734,-23.171653747558594,-25.919612884521484,14.872374534606934
1,1782079,-35.949527740478516,-13.747923851013184,-27.03135108947754,1.3669953346252441
1,1782079,-10.418676376342773,5.71232795715332,25.3470516204834,-26.692060470581055
1,1782081,30.637441635131836,6.405638694763184,40.23012161254883,22.295896530151367
1,1782083,0.4020632803440094,20.612443923950195,-15.936655044555664,26.47854232788086
1,1782085,-16.2354793548584,12.441822052001953,-14.692098617553711,-2.793487071990967
1,1782087,46.8763542175293,2.473156690597534,9.102980613708496,-61.336822509765625
1,1782089,2.615675926208496,-12.848536491394043,-32.613853454589844,-45.31768035888672
1,1782091,-57.87042236328125,-25.541101455688477,-11.049171447753906,98.52784729003906
1,1782093,46.545074462890625,51.04104232788086,63.73611068725586,79.2083740234375
1,1782095,15.705728530883789,10.91971206665039,-3.399904251098633,-181.07513427734375
1,1782097,-60.12745666503906,-39.15977096557617,-33.63405990600586,-52.82789993286133
1,1782099,-3.74721097946167,6.569484710693359,10.570591926574707,222.26341247558594
1,1782101,0.4612857401371002,-13.975287437438965,-0.5759706497192383,-20.370107650756836
1,1782103,39.620872497558594,13.076558113098145,20.668777465820312,-75.94051361083984
1,1782105,13.860028266906738,-0.94392329454422,-4.221549034118652,46.02406692504883
1,1782107,-48.64488983154297,-40.0333366394043,-45.78140640258789,-35.3040657043457
1,1782109,11.950338363647461,17.342082977294922,16.07300567626953,-24.426727294921875
1,1782111,19.56481170654297,34.25415802001953,35.385318756103516,37.90896224975586
1,1782113,-2.6137664318084717,-12.947787284851074,-12.611063957214355,0.6402785181999207
1,1782115,2.4856460094451904,-15.8828125,-22.643701553344727,3.1924102306365967
1,1782117,-12.99097728729248,10.737995147705078,-4.497729778289795,11.678915023803711
1,1782119,7.634909629821777,5.121323585510254,15.141727447509766,-53.6790885925293
1,1782121,6.5322723388671875,3.459054470062256,8.212117195129395,-24.54556655883789
1,1782123,-18.15268898010254,-24.440914154052734,-5.3407673835754395,40.219966888427734
1,1782125,-8.214820861816406,-6.625606536865234,-25.93498992919922,9.357156753540039
1,1782127,11.374943733215332,54.11015701293945,6.190575122833252,-25.711711883544922
1,1782129,18.337759017944336,-12.38538646697998,59.39149475097656,23.795394897460938
1,1782131,-21.084426879882812,-30.188888549804688,-17.4062557220459,23.923633575439453
1,1782133,-27.688079833984375,26.116920471191406,-32.182533264160156,-12.57802677154541
1,1782135,22.668094635009766,-16.990615844726562,1.817196249961853,-30.229999542236328
1,1782137,12.173298835754395,-18.072267532348633,-10.759361267089844,-17.178955078125
1,1782139,-18.77140235900879,12.130959510803223,21.89556312561035,37.93903732299805
1,1782141,-3.8992671966552734,-6.558009147644043,-20.949426651000977,7.585203647613525
1,1782143,52.00186538696289,45.91568374633789,16.18578338623047,-1.6101088523864746
1,1782145,25.658416748046875,20.907718658447266,53.286460876464844,11.41231632232666
1,1782147,-78.33367919921875,-70.18107604980469,-60.50276184082031,-39.36480712890625
1,1782149,-26.113615036010742,-8.765460968017578,-31.903615951538086,-3.184485912322998
1,1782151,54.64346694946289,25.271366119384766,32.07173156738281,20.259151458740234
1,1782153,16.060895919799805,-13.238081932067871,-7.5919270515441895,-18.057947158813477
1,1782155,-22.184314727783203,-5.739450931549072,-29.347434997558594,15.253398895263672
1,1782157,6.866231441497803,10.74144458770752,28.200782775878906,41.67995071411133
1,1782159,18.942951202392578,17.777891159057617,48.33293151855469,-11.638814926147461
1,1782161,-7.329792022705078,22.098840713500977,-9.178044319152832,-39.535648345947266
1,1782163,-8.255398750305176,5.94851541519165,-7.2168145179748535,-7.8282670974731445
1,1782165,-20.898866653442383,-41.988441467285156,-5.528164386749268,10.820528030395508
1,1782167,-15.5184326171875,-5.294954776763916,-2.279865026473999,11.40920639038086
1,1782169,14.977941513061523,29.221805572509766,2.6460275650024414,-4.293907642364502
1,1782171,6.672244071960449,-13.705510139465332,-1.5783092975616455,5.226370334625244
1,1782173,6.092652320861816,7.213673114776611,-2.720914840698242,13.072222709655762
1,1782175,4.553999423980713,-15.512633323669434,-24.48129653930664,-4.209106922149658
1,1782177,-6.040226936340332,-8.176859855651855,6.941225528717041,-13.523892402648926
1,1782179,4.388979434967041,30.913005828857422,15.964690208435059,-10.682151794433594
1,1782181,-1.9094966650009155,-25.480209350585938,-21.95635986328125,12.49979019165039
1,1782183,-6.99713134765625,-29.723913192749023,4.878023147583008,19.7093563079834
1,1782185,9.190192222595215,25.794363021850586,7.719564914703369,-5.555093288421631
1,1782187,10.02963638305664,41.7143669128418,-13.96723747253418,-29.66802406311035
1,1782189,3.722463607788086,5.990512847900391,41.733238220214844,37.565975189208984
1,1782191,-25.573095321655273,-51.1633186340332,3.17897367477417,25.901023864746094
1,1782193,-37.452152252197266,-19.80239486694336,-45.960453033447266,-63.4995002746582
1,1782195,28.956085205078125,51.474952697753906,-15.032685279846191,-13.629338264465332
1,1782197,66.7933120727539,44.12348175048828,28.531213760375977,-0.7200218439102173
1,1782199,-10.257872581481934,-21.72830581665039,46.33687973022461,-14.308221817016602
1,1782201,-84.19078063964844,-74.0736083984375,-38.461334228515625,-9.255770683288574
1,1782203,16.635513305664062,1.1062002182006836,-19.845151901245117,17.879281997680664
1,1782205,44.8282585144043,31.023832321166992,-2.4788544178009033,57.53471374511719
1,1782207,-25.88018798828125,-7.493340969085693,-9.909045219421387,20.078548431396484
1,1782209,5.474254608154297,0.6650553941726685,49.21650314331055,-7.097882270812988
1,1782211,-5.275210380554199,-5.883441925048828,5.425556182861328,-7.688839435577393
1,1782213,-22.769393920898438,6.895758628845215,-32.62179183959961,6.5385355949401855
1,1782215,29.255346298217773,27.803430557250977,21.534957885742188,-3.037069320678711
1,1782217,21.52676773071289,3.5858819484710693,19.463703155517578,6.790132999420166
1,1782219,-24.905439376831055,-18.787321090698242,-26.511140823364258,-26.786453247070312
1,1782221,-1.335824728012085,-8.924822807312012,-9.195601463317871,-20.654577255249023
1,1782223,7.420407772064209,-0.794974148273468,-3.927246332168579,39.33903503417969
1,1782225,-6.149016857147217,5.651650905609131,-3.6651172637939453,-30.983585357666016
1,1782227,10.456892967224121,13.338024139404297,9.649327278137207,-29.779409408569336
1,1782482,23.799955368041992,0.335795521736145,-22.097476959228516,26.928424835205078
1,1782484,-19.375993728637695,-48.76787567138672,-29.872316360473633,1.516918420791626
1,1782486,-28.804367065429688,-5.8120856285095215,47.888179779052734,-1.9400737285614014
1,1782488,42.84870529174805,67.3049545288086,78.5518569946289,7.5366926193237305
1,1782490,-10.330284118652344,-1.1508705615997314,4.474633693695068,-12.706036567687988
1,1782492,-54.14214324951172,-32.04228591918945,-54.61045837402344,-9.351685523986816
1,1782895,34.80650329589844,14.048913955688477,-30.29292869567871,6.191755294799805
1,1782897,17.208642959594727,4.716472148895264,3.8978500366210938,16.000747680664062
1,1782900,-22.487308502197266,-0.5239396095275879,-50.705562591552734,3.5936331748962402
1,1782901,2.9592957496643066,-16.542287826538086,-50.9358024597168,-35.38649368286133
1,1782904,12.999065399169922,-10.088706970214844,72.93848419189453,-7.2383012771606445
1,1782905,11.991459846496582,31.005931854248047,66.68968963623047,42.214385986328125
1,1782908,-30.100215911865234,-10.180337905883789,-44.94134521484375,21.55963897705078
1,1782909,5.492454528808594,-15.752808570861816,26.713376998901367,15.439264297485352
1,1782912,7.387199878692627,19.988935470581055,65.02215576171875,-21.226511001586914
1,1782913,-37.494598388671875,-10.929555892944336,-16.501340866088867,-30.207889556884766
1,1782916,36.57695007324219,62.305049896240234,-42.02587127685547,1.0970686674118042
1,1782917,43.98353576660156,27.662832260131836,-48.27195358276367,-36.94466018676758
1,1782920,-26.90132713317871,-140.47994995117188,-21.06357765197754,27.994136810302734
1,1782921,-37.15092468261719,11.36599349975586,8.714212417602539,27.197864532470703
1,1782924,18.677663803100586,60.63321304321289,43.744388580322266,-22.557231903076172
1,1782925,14.790600776672363,-51.029056549072266,4.301566123962402,12.975433349609375
1,1782928,-14.015006065368652,27.284954071044922,-32.932373046875,15.69029712677002
1,1782929,12.2604398727417,0.5750769972801208,23.46453094482422,24.749032974243164
1,1782932,-8.117330551147461,-33.350730895996094,24.735872268676758,-45.363311767578125
1,1782933,-16.79555320739746,18.64662742614746,-24.505521774291992,-36.869651794433594
1,1782936,19.695934295654297,-4.63059663772583,-25.308467864990234,47.25697326660156
1,1782937,-8.355263710021973,5.107233047485352,-13.520346641540527,2.1799488067626953
1,1782940,-19.828887939453125,21.585947036743164,11.201743125915527,2.224435329437256
1,1782941,17.25235939025879,-4.729088306427002,30.562541961669922,-6.486722469329834
1,1782944,-5.223376750946045,14.870551109313965,5.565707683563232,-38.96227264404297
1,1782945,0.590286135673523,13.98634147644043,-0.7026269435882568,3.5438976287841797
1,1782948,27.105234146118164,-13.522197723388672,7.7476067543029785,32.15683364868164
1,1782949,-35.025428771972656,-32.074737548828125,33.42222213745117,37.40095901489258
1,1782952,4.1348443031311035,4.0198845863342285,-8.15085506439209,-12.861091613769531
1,1782953,49.04393768310547,28.77339744567871,-69.1655044555664,-31.184165954589844
1,1782956,-29.586772918701172,-20.86092185974121,-12.197774887084961,-5.391595840454102
1,1782957,-18.790565490722656,-23.501678466796875,40.09495544433594,29.777271270751953
1,1782960,-1.134960651397705,6.269718170166016,-14.140836715698242,-14.502100944519043
1,1782961,3.2518625259399414,32.88214111328125,-35.90763854980469,-25.895851135253906
1,1782964,28.3179988861084,22.839017868041992,49.35161209106445,54.924617767333984
1,1782965,4.885435581207275,-12.989580154418945,33.22354507446289,-3.968926191329956
1,1782968,-11.233168601989746,-26.25495719909668,-44.53776168823242,-45.344154357910156
1,1782969,-12.835469245910645,-3.7231497764587402,16.059898376464844,1.7741601467132568
1,1782972,3.548321008682251,-3.8338992595672607,25.8892765045166,13.992486000061035
1,1782973,5.0259013175964355,-0.4944443702697754,-26.95159339904785,1.310279369354248
1,1782976,-13.699448585510254,16.092899322509766,-11.229185104370117,21.561973571777344
1,1782977,-9.140616416931152,8.683713912963867,-11.53332805633545,-8.702556610107422
1,1782980,2.7620270252227783,-4.469464302062988,-3.600562334060669,-50.93792724609375
1,1782981,20.671245574951172,-9.579989433288574,25.300323486328125,15.421178817749023
1,1782984,-19.27606964111328,16.91551399230957,20.862585067749023,41.46369171142578
1,1782985,-24.551414489746094,0.18073277175426483,-22.74370002746582,15.039960861206055
1,1782988,56.0124626159668,5.642507553100586,-11.821706771850586,10.504144668579102
1,1782989,55.412986755371094,6.961703777313232,39.38938903808594,-11.638785362243652
1,1782992,-53.56855010986328,-38.86314010620117,-28.772043228149414,-101.24795532226562
1,1782993,-74.26557922363281,-15.495854377746582,-27.08875846862793,-72.3740005493164
1,1782996,28.64272117614746,38.463645935058594,54.09103775024414,123.44346618652344
1,1782997,37.11074447631836,0.588938295841217,-5.419418811798096,83.85798645019531
1,1783000,-19.672536849975586,-36.88890075683594,-24.747188568115234,-46.10350799560547
1,1783001,10.803142547607422,11.083990097045898,10.984477996826172,-27.839513778686523
1,1783004,20.263561248779297,16.078229904174805,-20.771677017211914,-27.429441452026367
1,1783005,-29.624858856201172,-25.194713592529297,-33.2669792175293,12.108630180358887
1,1783008,16.812131881713867,21.955114364624023,18.817920684814453,30.65675163269043
1,1783009,7.346466541290283,35.412147521972656,15.1829833984375,-20.25251007080078
1,1783012,-55.414794921875,-37.083946228027344,13.932037353515625,2.078070640563965
1,1783013,3.375084638595581,39.362667083740234,53.451229095458984,48.51708221435547
1,1783016,13.637312889099121,3.5475211143493652,-52.811126708984375,12.935017585754395
1,1783017,17.242053985595703,-87.63770294189453,-45.71318054199219,-22.416030883789062
1,1783020,32.62610626220703,-10.331700325012207,55.491859436035156,-26.250690460205078
1,1783021,-22.757125854492188,32.9730224609375,-3.9786853790283203,-39.31949996948242
1,1783022,-19.037809371948242,54.43193817138672,-28.74022102355957,0.5887941718101501
1,1783025,22.67482566833496,-1.2560276985168457,12.888707160949707,22.786968231201172
1,1783026,13.467342376708984,-24.80615997314453,18.85071563720703,-26.541824340820312
1,1783029,-11.803625106811523,6.095407485961914,21.218698501586914,-4.467614650726318
1,1783030,2.7179579734802246,-9.656309127807617,29.095985412597656,74.45951080322266
1,1783033,-9.898839950561523,9.570897102355957,-40.46136474609375,20.05339241027832
1,1783034,-0.4085029661655426,13.150653839111328,-54.6701774597168,-28.415294647216797
1,1783037,-3.143845558166504,-18.842899322509766,3.899885892868042,15.374394416809082
1,1783038,-15.277822494506836,7.016503810882568,19.68716049194336,-14.703347206115723
1,1783041,28.81462860107422,24.662864685058594,9.798463821411133,-29.973459243774414
1,1783042,-28.486845016479492,-36.93231201171875,1.642889380455017,-30.666160583496094
1,1783045,-40.644325256347656,-27.288745880126953,21.362943649291992,7.902272701263428
1,1783046,27.870817184448242,17.0888614654541,-24.922304153442383,57.37553024291992
1,1783049,8.707964897155762,-1.6138414144515991,-31.339611053466797,0.2813278138637543
1,1783050,1.9897148609161377,-1.2267957925796509,29.942625045776367,-10.143878936767578
1,1783055,13.478631019592285,-4.145998477935791,-8.550275802612305,-9.202413558959961
1,1783055,-9.141157150268555,7.921786308288574,-16.85554313659668,-19.109642028808594
1,1783057,2.7111778259277344,38.38725662231445,49.704200744628906,5.027503490447998
1,1783060,13.466571807861328,-4.356906890869141,9.99815559387207,1.3242791891098022
1,1783061,-20.60403823852539,-34.25304412841797,-53.078636169433594,-6.844264030456543
1,1783064,8.741108894348145,5.549156188964844,15.259512901306152,-78.06494140625
1,1783065,52.703678131103516,22.94283103942871,30.44329833984375,47.9443359375
1,1783068,-36.74834060668945,-23.369159698486328,-40.76828384399414,152.37203979492188
1,1783069,-76.0753402709961,-32.365516662597656,-18.668724060058594,-72.99279022216797
1,1783072,69.51890563964844,47.69834518432617,34.418121337890625,-72.48839569091797
1,1783073,69.91669464111328,44.977569580078125,26.19847297668457,-2.837495803833008
1,1783076,-65.6646957397461,-46.01457977294922,-12.43759822845459,-2.4089243412017822
1,1783077,-15.59486198425293,-40.47703170776367,7.744086265563965,48.677791595458984
1,1783080,46.147438049316406,34.38390350341797,16.535655975341797,42.24049377441406
1,1783081,-32.3049201965332,14.426468849182129,-55.05882263183594,10.065215110778809
1,1783084,-36.82110595703125,-22.205509185791016,-4.508906841278076,-35.39198684692383
1,1783085,26.51199722290039,-3.159775495529175,38.242645263671875,-22.02020263671875
1,1783088,-2.163018226623535,-0.06129251793026924,-8.35177993774414,-50.6375732421875
1,1783089,1.0342087745666504,15.579936027526855,22.24638557434082,-27.60027313232422
1,1783092,9.848836898803711,0.010439330711960793,-5.817216873168945,82.16556549072266
1,1783093,-16.2426700592041,-20.244321823120117,-75.20600891113281,41.95534133911133
1,1783096,26.607940673828125,20.746896743774414,-7.2352399826049805,-42.90306091308594
1,1783097,21.050355911254883,4.455941677093506,80.69188690185547,-7.29467248916626
1,1783100,-29.52176284790039,-28.010051727294922,7.556506633758545,-15.94930362701416
1,1783101,-14.410604476928711,33.71718978881836,-22.91533088684082,-9.747264862060547
1,1783104,6.233907222747803,21.59654426574707,24.25165367126465,90.02201080322266
1,1783105,2.1869630813598633,-49.204734802246094,-34.838932037353516,16.181846618652344
1,1783108,-41.94096755981445,-15.915677070617676,-34.797279357910156,-165.13426208496094
1,1783109,-3.9776532649993896,34.18712615966797,55.23002243041992,-37.91236114501953
1,1783112,55.154693603515625,-18.134544372558594,-2.9733023643493652,145.8798065185547
1,1783113,6.2605366706848145,-2.1715240478515625,-33.9701042175293,40.02107620239258
1,1783116,1.896468997001648,46.12135314941406,25.292177200317383,-10.720457077026367
1,1783117,-19.244421005249023,-25.5966854095459,-2.2235586643218994,-29.591463088989258
1,1783120,-26.180797576904297,-3.3768839836120605,-4.2509765625,-30.774206161499023
1,1783121,19.42710304260254,16.699092864990234,-11.343738555908203,-13.871826171875
1,1783124,3.1867432594299316,-40.09721755981445,-6.995992660522461,-51.83967971801758
1,1783125,14.13196086883545,-14.492547988891602,13.869880676269531,57.795589447021484
1,1783128,28.121320724487305,39.88173294067383,-5.625637054443359,81.85840606689453
1,1783129,-14.201689720153809,27.60063362121582,26.885913848876953,-5.4417405128479
1,1783132,-16.902053833007812,-23.64065933227539,31.51180076599121,-71.68946075439453
1,1783133,-4.637332439422607,-26.27159309387207,-15.18111801147461,-43.05572509765625
1,1783136,-30.090087890625,-7.453401565551758,-50.80125045776367,8.857647895812988
1,1783137,-20.252334594726562,6.379552364349365,-32.82773971557617,-46.60092544555664
1,1783140,49.817222595214844,29.012466430664062,48.263362884521484,66.60211181640625
1,1783141,53.8947868347168,20.553159713745117,32.26225662231445,118.53345489501953
1,1783144,-7.237547874450684,-18.574270248413086,-20.217966079711914,-46.850074768066406
1,1783145,-50.23429870605469,-26.288253784179688,0.06840386986732483,-48.411006927490234
1,1783148,-33.736576080322266,-19.312538146972656,-18.721553802490234,8.858275413513184
1,1783149,28.831180572509766,-3.051301956176758,-40.701473236083984,9.681867599487305
1,1783152,22.220130920410156,25.402000427246094,46.13752746582031,7.236087799072266
1,1783153,-21.073505401611328,28.69508934020996,52.41170883178711,-29.60589599609375
1,1783156,-22.950576782226562,-8.2666597366333,-64.07687377929688,-15.614360809326172
1,1783157,5.568589687347412,-30.344730377197266,-14.033242225646973,-28.458513259887695
1,1783160,26.61568832397461,-10.266313552856445,48.54612350463867,14.874157905578613
1,1783161,-3.1109695434570312,41.05137252807617,6.458012580871582,96.00407409667969
1,1783164,-26.84300994873047,19.196727752685547,-8.387730598449707,-10.10097885131836
1,1783165,19.1381778717041,-45.63270568847656,-36.66990661621094,-63.84206771850586
1,1783168,40.52496337890625,25.129444122314453,4.825603008270264,11.575499534606934
1,1783169,16.655593872070312,34.44147491455078,48.21893310546875,4.742429733276367
1,1783172,-11.595860481262207,-17.538043975830078,-4.8912506103515625,-4.075162887573242
1,1783173,-75.1838150024414,-32.239376068115234,-40.003868103027344,-36.867008209228516
1,1783176,-2.211139440536499,-35.228118896484375,-11.322741508483887,-21.188732147216797
1,1783177,96.14964294433594,23.201704025268555,15.206379890441895,79.40862274169922
1,1783180,-23.1723575592041,39.841182708740234,13.845355033874512,49.355472564697266
1,1783181,-77.17839813232422,-15.752996444702148,6.251649379730225,-25.515483856201172
1,1783184,11.862188339233398,-22.15894889831543,-7.014943599700928,-91.05122375488281
1,1783185,35.94662094116211,18.559362411499023,0.367038756608963,0.7743157148361206
1,1783188,-14.321966171264648,-6.71103048324585,-23.048982620239258,85.09738159179688
1,1783189,-15.937088966369629,-16.753219604492188,-26.09795379638672,-32.69633483886719
1,1783192,39.111061096191406,38.114013671875,47.67807388305664,-12.517447471618652
1,1783193,17.050079345703125,28.01670265197754,43.115962982177734,13.86540412902832
1,1783196,-42.36094284057617,-32.59920883178711,-31.488117218017578,-38.36909103393555
1,1783197,-31.3259220123291,-20.458036422729492,-31.511798858642578,-0.2906978130340576
1,1783198,41.8443489074707,-17.197601318359375,12.384033203125,55.39435958862305
1,1783201,10.623679161071777,-26.788169860839844,5.3457512855529785,-18.397472381591797
1,1783202,-42.02180862426758,32.19638442993164,-16.517501831054688,-69.91985321044922
1,1783205,45.95034408569336,28.76987648010254,13.42470932006836,64.04450225830078
1,1783206,34.685089111328125,-27.416059494018555,7.471798419952393,72.19197082519531
1,1783209,-48.16928482055664,4.427360534667969,-23.450002670288086,-26.20326042175293
1,1783210,8.643985748291016,38.67997360229492,37.573760986328125,-52.7821044921875
1,1783213,13.441694259643555,-5.380013942718506,30.105125427246094,-47.77897644042969
1,1783214,-35.3242301940918,-17.179039001464844,-34.99879837036133,51.683441162109375
1,1783217,25.030576705932617,15.285490989685059,-38.6036491394043,99.49695587158203
1,1783218,-18.390579223632812,8.355825424194336,-28.20143699645996,-89.65666961669922
1,1783221,-18.020374298095703,-12.036477088928223,42.083065032958984,-101.63877868652344
1,1783222,45.75016403198242,-17.083236694335938,63.09776306152344,90.83099365234375
1,1783226,-54.14613723754883,5.085214614868164,-19.580825805664062,3.2363476753234863
1,1783227,-24.588674545288086,22.969762802124023,-62.54597473144531,-55.814971923828125
1,1783229,92.8153305053711,-10.007247924804688,19.23980140686035,92.11767578125
1,1783231,-14.360366821289062,-55.72090530395508,31.40104103088379,9.087278366088867
1,1783233,-80.54695892333984,-56.95697021484375,-58.5031623840332,-77.40491485595703
1,1783235,72.04739379882812,40.91691970825195,-5.310173511505127,53.06828308105469
1,1783237,45.56171417236328,91.57683563232422,58.784278869628906,-25.22397232055664
1,1783239,-43.068180084228516,31.76249885559082,8.076189994812012,-39.251869201660156
1,1783241,-8.447958946228027,-67.01444244384766,-13.349647521972656,82.97490692138672
1,1783243,-12.10273265838623,-67.69598388671875,-17.490768432617188,-15.209299087524414
1,1783245,20.551986694335938,80.3502197265625,-9.57005500793457,-56.05545425415039
1,1783247,13.980064392089844,37.039730072021484,24.713520050048828,9.376811981201172
1,1783249,-42.300804138183594,-32.73814392089844,4.987239360809326,-1.6412274837493896
1,1783251,-16.535503387451172,62.77809143066406,-7.860908031463623,5.039999961853027
1,1783253,43.38874816894531,23.035198211669922,3.5383172035217285,56.1572151184082
1,1783255,24.601247787475586,-52.78279495239258,16.020986557006836,35.68270492553711
1,1783257,-74.46626281738281,-107.71117401123047,-33.2540283203125,-96.64051055908203
1,1783259,-46.43315505981445,-103.98236083984375,-45.371341705322266,-106.52531433105469
1,1783261,89.92537689208984,80.73932647705078,59.29888916015625,104.50189208984375
1,1783263,27.85233497619629,94.10135650634766,11.281886100769043,102.91109466552734
1,1783265,-55.41209030151367,-14.331672668457031,-48.91734313964844,-51.41095733642578
1,1783267,18.95729637145996,31.488798141479492,22.66727066040039,-12.153716087341309
1,1783269,3.090545892715454,-7.191086769104004,11.885608673095703,11.952442169189453
1,1783271,-2.8331401348114014,-36.72032928466797,22.318897247314453,6.70932674407959
1,1783273,40.380462646484375,23.729948043823242,-0.47883477807044983,-2.6912577152252197
1,1783275,-1.8288203477859497,-14.069317817687988,-44.0311164855957,-54.84532928466797
1,1783277,-33.50238800048828,4.940341949462891,20.428770065307617,15.655654907226562
1,1783279,-25.48575782775879,52.846004486083984,13.607522964477539,55.564327239990234
1,1783281,36.538169860839844,77.67803192138672,-1.7262942790985107,-0.4137468636035919
1,1783283,34.001312255859375,4.562300205230713,26.749977111816406,-20.43849754333496
1,1783285,-87.4834213256836,-263.4450988769531,-21.31765365600586,-68.02499389648438
1,1783287,-56.73408889770508,-175.9300537109375,-71.19053649902344,-96.66291809082031
1,1783289,119.50165557861328,169.01548767089844,26.0195369720459,113.62567138671875
1,1783291,73.8504638671875,152.64236450195312,80.58229064941406,198.87986755371094
1,1783293,-78.5123519897461,25.334775924682617,-50.29907989501953,-122.41080474853516
1,1783295,-51.869178771972656,38.39909362792969,-61.611961364746094,-137.123779296875
1,1783297,17.360187530517578,-36.566471099853516,60.81660079956055,101.96238708496094
1,1783299,-4.125765800476074,-71.29072570800781,23.272125244140625,-15.387629508972168
1,1783301,-6.165584564208984,89.85287475585938,-9.535151481628418,-51.40155029296875
1,1783303,79.64860534667969,83.9499282836914,33.08585739135742,115.78759002685547
1,1783305,14.544608116149902,-74.70218658447266,-34.68174362182617,13.22804069519043
1,1783307,-100.94837951660156,-85.40184783935547,-59.09392166137695,-159.0233917236328
1,1783309,-36.33081817626953,-16.235488891601562,4.583770751953125,-72.74115753173828
1,1783311,28.891605377197266,5.421097755432129,53.191688537597656,123.48748016357422
1,1783313,-8.494583129882812,-99.05087280273438,-13.042559623718262,35.84748077392578
1,1783315,11.738504409790039,-54.153072357177734,-34.8026008605957,-45.0238037109375
1,1783317,86.20877838134766,194.1237335205078,35.85050964355469,95.58360290527344
1,1783319,9.254508972167969,74.61341857910156,-17.40835189819336,6.845850944519043
1,1783321,-60.228660583496094,-103.76412963867188,-9.383990287780762,-63.0838623046875
1,1783323,-1.1597589254379272,31.022838592529297,40.82392120361328,26.487619400024414
1,1783325,8.954227447509766,18.741823196411133,3.580434799194336,-5.2854533195495605
1,1783327,-8.251766204833984,-38.99627685546875,-17.962759017944336,-39.409706115722656
1,1783329,-11.563285827636719,59.15155792236328,-9.9115571975708,9.405158042907715
1,1783331,15.51240062713623,17.972061157226562,19.951400756835938,28.38400650024414
1,1783333,2.4442691802978516,-95.92711639404297,-0.09368608146905899,-23.383058547973633
1,1783335,-41.15316390991211,-63.07777404785156,-26.78597640991211,-25.050064086914062
1,1783337,47.249515533447266,1.3942806720733643,18.926746368408203,8.255847930908203
1,1783339,44.73998260498047,41.53188705444336,11.044490814208984,-23.672527313232422
1,1783341,-47.796836853027344,36.50243377685547,6.386237144470215,25.062559127807617
1,1783343,-52.84456253051758,-46.103004455566406,-20.11277961730957,51.537498474121094
1,1783345,29.363361358642578,9.173261642456055,-32.893768310546875,15.915909767150879
1,1783347,76.4214096069336,128.70545959472656,30.792850494384766,0.6554645299911499
1,1783349,-37.29579544067383,17.032669067382812,28.342525482177734,-12.523097038269043
1,1783351,-27.337560653686523,-94.34630584716797,14.305012702941895,12.870475769042969
1,1783353,-4.029552459716797,36.37919235229492,-67.07501983642578,-105.99476623535156
1,1783355,-59.98223876953125,36.655094146728516,-43.14215087890625,-83.15511322021484
1,1783357,62.47941207885742,-61.05179214477539,97.42867279052734,141.32919311523438
1,1783359,41.591270446777344,-41.97085952758789,12.053099632263184,49.470436096191406
1,1783361,-53.457942962646484,-55.07870101928711,-61.99784851074219,-84.5935287475586
1,1783363,20.230308532714844,15.499760627746582,21.740463256835938,18.22772216796875
1,1783366,-16.87731170654297,17.335594177246094,-0.6076544523239136,55.79643249511719
1,1783367,-20.59229278564453,-26.132036209106445,-50.71683120727539,-20.23219108581543
1,1783370,46.37184143066406,72.28449249267578,43.48750305175781,-9.235644340515137
1,1783371,13.400239944458008,77.5295639038086,72.28312683105469,58.93403244018555
1,1783374,2.1540720462799072,-40.49793243408203,-41.638824462890625,16.65932846069336
1,1783375,-27.65450668334961,-92.01006317138672,-61.44938659667969,-103.98200988769531
1,1783378,-37.79778289794922,57.56657409667969,16.965940475463867,-75.40384674072266
1,1783379,67.41531372070312,115.60223388671875,59.48398971557617,31.798402786254883
1,1783380,25.50653648376465,-62.81953430175781,-8.697164535522461,-52.98250961303711
1,1783383,-88.08635711669922,-204.20436096191406,-58.463687896728516,93.18891143798828
1,1783384,14.564613342285156,-63.43680953979492,-15.327777862548828,207.30308532714844
1,1783387,71.3758773803711,196.68028259277344,28.179500579833984,-216.35057067871094
1,1783388,-33.30281448364258,93.87440490722656,39.9400749206543,-190.27584838867188
1,1783391,-53.77164077758789,-43.5275993347168,2.4638426303863525,230.04884338378906
1,1783392,30.87255096435547,3.1744437217712402,0.5140110850334167,145.60183715820312
1,1783395,58.889217376708984,0.8067701458930969,-11.26279067993164,-50.687599182128906
1,1783396,-69.25286865234375,-52.069244384765625,-36.97071075439453,-103.42767333984375
1,1783399,-55.80378341674805,-40.135475158691406,7.9681220054626465,-28.788869857788086
1,1783400,97.11528015136719,83.30520629882812,-0.2646145522594452,57.637481689453125
1,1783403,-7.806259632110596,64.99546813964844,4.307545185089111,-58.170188903808594
1,1783404,-30.572528839111328,-39.934539794921875,51.340267181396484,29.219486236572266
1,1783407,9.020617485046387,-53.86912536621094,-42.62520980834961,8.676691055297852
1,1783408,-44.46795654296875,-34.03630447387695,-30.91468048095703,-107.977294921875
1,1783413,55.40470886230469,-1.4344819784164429,30.163127899169922,132.20497131347656
1,1783413,34.7973518371582,-0.5138086080551147,-19.873920440673828,103.7918472290039
1,1783415,-12.87367057800293,24.277690887451172,46.76707458496094,-110.75212860107422
1,1783417,-25.07088279724121,28.947574615478516,15.351845741271973,-95.86161804199219
1,1783419,-90.30355072021484,-59.9446907043457,-45.128990173339844,-4.551810264587402
1,1783421,24.872154235839844,-101.10497283935547,14.605735778808594,94.751953125
1,1783423,79.14364624023438,2.9397850036621094,-31.627256393432617,-1.1441060304641724
1,1783425,-7.954201698303223,127.6098403930664,-25.45858383178711,-79.92565155029297
1,1783427,10.547082901000977,37.735347747802734,50.79465866088867,54.0246467590332
1,1783429,-8.670186042785645,-36.80029296875,9.849688529968262,36.510337829589844
1,1783431,-48.21986389160156,96.61885070800781,3.0435965061187744,-44.54391098022461
1,1783433,30.276580810546875,20.349620819091797,8.071542739868164,-32.86973190307617
1,1783435,19.655839920043945,-108.27440643310547,-39.398048400878906,-40.874488830566406
1,1783437,-21.757688522338867,-13.623104095458984,-13.689230918884277,62.48848342895508
1,1783439,15.848723411560059,-16.259952545166016,33.87794876098633,144.00430297851562
1,1783441,20.434558868408203,24.25804901123047,51.59446716308594,-8.046842575073242
1,1783443,5.793876647949219,61.73917770385742,-16.784618377685547,-54.44608688354492
1,1783445,-33.505977630615234,-42.91825866699219,-74.30767822265625,-42.473323822021484
1,1783447,-18.528602600097656,-61.0452880859375,-8.735371589660645,-100.8863296508789
1,1783449,-0.384112685918808,-46.12812423706055,15.175104141235352,28.383420944213867
1,1783451,-20.794662475585938,3.4290690422058105,5.590376853942871,77.49235534667969
1,1783453,40.69786071777344,118.73638153076172,30.020225524902344,-42.702945709228516
1,1783455,71.75308227539062,72.9505615234375,28.833789825439453,62.398048400878906
1,1783457,-43.624114990234375,-79.1805419921875,-29.863557815551758,44.880958557128906
1,1783459,-93.57035827636719,-65.22264862060547,-51.60368728637695,-116.31465911865234
1,1783461,-1.7918148040771484,21.605682373046875,-11.073407173156738,-42.0892333984375
1,1783463,81.42621612548828,98.96930694580078,57.618064880371094,36.237491607666016
1,1783465,44.50892639160156,17.772762298583984,79.69786071777344,68.12825012207031
1,1783467,-72.52812194824219,-109.20257568359375,-22.211288452148438,4.739058971405029
1,1783469,-1.8738243579864502,-23.753860473632812,-58.961849212646484,39.279151916503906
1,1783471,24.037302017211914,0.9456642270088196,-54.64683151245117,-33.478271484375
1,1783473,-56.75513458251953,51.16818618774414,5.568894386291504,-180.61737060546875
1,1783475,24.86985206604004,49.99586868286133,91.19905090332031,23.577434539794922
1,1783477,58.75069808959961,-161.7647247314453,7.629165172576904,146.80181884765625
1,1783479,-32.112979888916016,-115.0407485961914,-69.48689270019531,53.08688735961914
1,1783481,-12.592812538146973,149.171630859375,-19.674259185791016,-29.096696853637695
1,1783483,56.69026184082031,145.77572631835938,26.851749420166016,-47.607791900634766
1,1783485,-14.200662612915039,12.006278038024902,28.86947250366211,43.065460205078125
1,1783487,-64.70025634765625,-20.181772232055664,5.419800281524658,31.36971664428711
1,1783489,-44.388404846191406,-92.18477630615234,-39.651920318603516,-174.2217559814453
1,1783491,49.77019119262695,-17.222431182861328,8.106574058532715,-45.5214958190918
1,1783493,90.84837341308594,66.87165069580078,39.896766662597656,207.3170166015625
1,1783495,-41.54544448852539,-45.339134216308594,-32.08092498779297,57.64944839477539
1,1783497,-16.65317726135254,11.655445098876953,-20.64862632751465,-47.248497009277344
1,1783499,16.104248046875,51.73002624511719,13.82340145111084,-35.59893798828125
1,1783501,-79.25849914550781,-54.9178466796875,6.261923789978027,-159.31480407714844
1,1783503,-26.86711883544922,-27.17523765563965,-12.613494873046875,-108.95712280273438
1,1783505,62.2568244934082,30.859651565551758,10.26126766204834,114.3003921508789
1,1783507,54.82988739013672,11.953411102294922,23.00847625732422,158.66107177734375
1,1783509,2.9796483516693115,-38.65332794189453,0.6083372235298157,60.55741500854492
1,1783511,-19.678054809570312,-58.62034225463867,14.712121963500977,-37.795204162597656
1,1783513,-25.11433219909668,53.853458404541016,-29.66573143005371,-47.802734375
1,1783515,34.866722106933594,189.60189819335938,3.116034984588623,63.128082275390625
1,1783517,-16.309480667114258,-52.55137252807617,-0.5948959589004517,-57.257423400878906
1,1783519,-106.20817565917969,-219.13812255859375,-63.87806701660156,-234.13328552246094
1,1783521,62.12997817993164,65.02986907958984,49.76691436767578,9.99609661102295
1,1783523,84.99285125732422,123.74241638183594,63.59369659423828,257.41668701171875
1,1783525,-38.41303634643555,-56.8491096496582,-68.34337615966797,98.9737319946289
1,1783527,-17.350526809692383,-79.52998352050781,-47.38703918457031,-87.59444427490234
1,1783529,29.059335708618164,0.8267887830734253,70.5710220336914,-72.90589141845703
1,1783531,-19.42152214050293,-10.836079597473145,6.351011753082275,-126.14939880371094
1,1783533,-53.936973571777344,36.91037368774414,-38.79249954223633,8.02449893951416
1,1783535,23.385007858276367,69.89354705810547,34.296993255615234,189.70352172851562
1,1783537,43.65554428100586,-22.351886749267578,-2.2392449378967285,-16.885526657104492
1,1783539,-12.698651313781738,1.8687082529067993,-18.44976806640625,-72.05748748779297
1,1783541,-4.183708190917969,30.651655197143555,27.93965721130371,96.05884552001953
1,1783543,20.868345260620117,10.742974281311035,-7.555046081542969,36.67746353149414
1,1783545,-34.83262634277344,-33.478302001953125,-53.81025695800781,-164.5360107421875
1,1783547,-16.977108001708984,-34.21292495727539,11.420555114746094,-120.26151275634766
1,1783549,36.094730377197266,33.38569641113281,52.463600158691406,100.90609741210938
1,1783551,-14.980764389038086,-21.183956146240234,4.746023178100586,90.34247589111328
1,1783553,-9.787875175476074,-69.35614013671875,-36.99541091918945,41.85400390625
1,1783555,31.944555282592773,10.300333023071289,-12.971023559570312,35.241458892822266
1,1783557,-14.362320899963379,19.950397491455078,5.661800384521484,-98.23711395263672
1,1783559,-7.069057464599609,22.71224021911621,17.219985961914062,-81.8751220703125
1,1783561,41.9890251159668,47.88578796386719,43.81813049316406,86.68269348144531
1,1783563,-10.293606758117676,6.227455139160156,-8.251193046569824,119.0623779296875
1,1783565,-54.77042770385742,-3.6459105014801025,-34.86813735961914,-87.00007629394531
1,1783567,15.415279388427734,-7.519407749176025,15.19002628326416,-82.04402923583984
1,1783569,3.1843039989471436,-48.32304763793945,-21.868011474609375,63.757049560546875
1,1783571,-35.099853515625,-26.866416931152344,-55.60070037841797,-37.52735137939453
1,1783573,13.345341682434082,18.60324478149414,11.632990837097168,-112.05838012695312
1,1783575,27.544231414794922,5.101757049560547,52.7989501953125,27.661020278930664
1,1783577,57.718711853027344,51.441139221191406,51.9990234375,187.71701049804688
1,1783579,-25.539159774780273,-1.3392659425735474,-37.84604263305664,4.9695963859558105
1,1783582,-66.72496795654297,-70.38526153564453,-50.4558219909668,-151.6527099609375
1,1783583,44.820194244384766,53.59135055541992,29.448835372924805,21.635377883911133
1,1783586,10.515481948852539,40.736446380615234,-3.2010154724121094,71.59492492675781
1,1783587,-22.66322135925293,-38.22708511352539,-0.7701123952865601,-12.610372543334961
1,1783590,15.326168060302734,8.575529098510742,25.28586769104004,-15.80730152130127
1,1783591,-8.698835372924805,-31.93270492553711,2.176274061203003,-12.703052520751953
1,1783594,1.7364156246185303,-45.129241943359375,-20.269243240356445,44.76579284667969
1,1783595,13.954483032226562,53.89495849609375,-1.5277249813079834,-10.665937423706055
1,1783596,-16.878049850463867,25.77761459350586,30.042837142944336,-60.642799377441406
1,1783599,-17.929519653320312,-8.340384483337402,-12.572833061218262,69.37352752685547
1,1783600,13.185436248779297,20.456106185913086,-34.59613037109375,26.97572135925293
1,1783603,1.624996542930603,-28.30104637145996,5.826114654541016,-94.78211975097656
1,1783604,13.458706855773926,-27.208011627197266,16.805908203125,7.789940357208252
1,1783607,16.705177307128906,14.439316749572754,-12.146746635437012,82.62268829345703
1,1783608,-48.002262115478516,-10.360816955566406,1.6183136701583862,-24.772846221923828
1,1783613,-12.261794090270996,0.9050018787384033,-8.923725128173828,-81.32914733886719
1,1783613,32.370765686035156,20.551124572753906,-16.25519561767578,-29.314289093017578
1,1783616,-9.38646411895752,-31.498228073120117,24.99248695373535,67.51886749267578
1,1783617,7.873560428619385,-18.812528610229492,22.444530487060547,40.97795104980469
1,1783620,21.88823890686035,48.11799621582031,1.5389775037765503,-46.46535873413086
1,1783621,-14.526321411132812,8.68603515625,-23.071243286132812,16.503265380859375
1,1783624,7.04874324798584,-18.029890060424805,10.851990699768066,73.81636810302734
1,1783625,-22.582008361816406,12.028940200805664,3.8401920795440674,-7.541694164276123
1,1783628,-16.0648136138916,-3.882350206375122,-2.5098235607147217,-84.86658477783203
1,1783629,47.98978042602539,-12.766209602355957,32.99435806274414,-32.84144592285156
1,1783632,-1.9813456535339355,13.596782684326172,-42.13304138183594,43.043853759765625
1,1783633,-32.281436920166016,9.492985725402832,-23.459625244140625,10.671357154846191
1,1783636,6.3581390380859375,-6.799790859222412,31.408153533935547,20.971885681152344
1,1783637,30.511489868164062,6.4966959953308105,1.2366145849227905,55.499969482421875
1,1783640,-31.62766456604004,-23.755802154541016,-1.681619644165039,-69.36325073242188
1,1783641,-39.09761428833008,-8.726627349853516,-7.988982200622559,-100.05272674560547
1,1783644,49.702579498291016,35.015316009521484,19.36014747619629,14.569725036621094
1,1783645,27.62618064880371,-0.06032688170671463,-1.8680099248886108,-15.281457901000977
1,1783648,-17.841794967651367,-10.030006408691406,-9.094016075134277,60.54930114746094
1,1783649,-17.317441940307617,0.1860739141702652,13.59719181060791,174.14822387695312
1,1783652,-10.068989753723145,2.059826612472534,-43.79662322998047,-68.81243133544922
1,1783653,1.0654209852218628,-1.2226494550704956,7.330700874328613,-118.95299530029297
1,1783656,-11.634519577026367,-7.031988620758057,20.657442092895508,41.01349639892578
1,1783657,8.042421340942383,-25.860177993774414,-32.61124801635742,-2.9278225898742676
1,1783660,43.10289764404297,10.861857414245605,16.567012786865234,4.501937389373779
1,1783661,8.95999526977539,54.90129089355469,35.378482818603516,4.453858852386475
1,1783664,-39.66732406616211,-59.08706283569336,-27.838848114013672,-35.21181106567383
1,1783665,-16.880615234375,-49.07088851928711,-31.56495475769043,-0.5924571752548218
1,1783668,24.26033592224121,72.98002624511719,52.41276931762695,39.557273864746094
1,1783669,10.529444694519043,19.259685516357422,28.13745880126953,35.157798767089844
1,1783672,-19.07468605041504,-26.94476890563965,-35.09423065185547,-24.258337020874023
1,1783673,16.731531143188477,-4.1200103759765625,-2.3827359676361084,-14.003889083862305
1,1783676,22.31717300415039,5.667976379394531,6.005805492401123,41.86309814453125
1,1783677,-36.38777542114258,4.6473846435546875,-19.874351501464844,-16.88011932373047
1,1783680,-28.136808395385742,-1.3288204669952393,-0.15765762329101562,-80.43821716308594
1,1783681,10.736729621887207,-11.227802276611328,11.960658073425293,-18.822250366210938
1,1783684,22.68859100341797,3.064340829849243,-0.09849082678556442,81.54310607910156
1,1783685,13.827616691589355,44.561824798583984,-15.80645751953125,54.97596740722656
1,1783688,-1.3046238422393799,-6.29181432723999,-10.169979095458984,-53.2930908203125
1,1783689,-14.102165222167969,-52.49100112915039,26.50344467163086,-40.98550033569336
1,1783692,-19.1671142578125,-6.512607097625732,10.916433334350586,17.020769119262695
1,1783693,26.255922317504883,23.244077682495117,5.958115577697754,6.624369144439697
1,1783696,15.528119087219238,8.659770011901855,-2.6214942932128906,-7.917762279510498
1,1783697,-42.2099494934082,-5.712683200836182,-32.816707611083984,3.9994516372680664
1,1783700,-0.5936213135719299,11.503145217895508,11.481494903564453,2.7693979740142822
1,1783701,26.226184844970703,3.871814012527466,17.245962142944336,3.6279842853546143
1,1783704,6.562215805053711,-7.959056854248047,-3.5207512378692627,32.097354888916016
1,1783705,-20.55257797241211,-9.074589729309082,-19.561586380004883,3.7371957302093506
1,1783708,-3.923635959625244,-1.3025926351547241,-17.486591339111328,-8.914399147033691
1,1783709,54.5409049987793,11.310568809509277,35.29530715942383,42.01691436767578
1,1783712,-33.097808837890625,-28.236913681030273,-7.955257415771484,-90.497314453125
1,1783713,-56.00215530395508,-7.934514999389648,-23.7345027923584,-92.5926513671875
1,1783716,56.16170120239258,56.23691940307617,33.295021057128906,54.902706146240234
1,1783717,14.076512336730957,-10.752836227416992,-13.899443626403809,77.1427230834961
1,1783720,-35.533138275146484,-42.28593063354492,-4.67081356048584,84.235107421875
1,1783721,-19.72964859008789,33.34776306152344,16.89452362060547,-67.81675720214844
1,1783724,-1.0285841226577759,-1.475258231163025,-14.462200164794922,-70.87059020996094
1,1783725,43.598201751708984,-13.855911254882812,4.657000541687012,38.412841796875
1,1783728,2.844400644302368,20.404752731323242,6.148138046264648,2.6944425106048584
1,1783729,-20.83267593383789,-17.065719604492188,1.595131278038025,-6.871767044067383
1,1783732,16.941865921020508,16.982221603393555,-6.824094295501709,-13.425678253173828
1,1783733,-1.4313560724258423,13.075766563415527,2.3408427238464355,-3.37149977684021
1,1783736,-3.7730865478515625,-47.883663177490234,-5.85956335067749,45.04887390136719
1,1783737,6.72934627532959,6.711023330688477,-11.280228614807129,26.18716049194336
1,1783740,-0.2239878624677658,28.616125106811523,3.607374906539917,-36.30370330810547
1,1783741,-6.835995197296143,-16.601242065429688,1.8864396810531616,-18.8922176361084
1,1783744,-5.452243328094482,-5.676177978515625,16.930273056030273,-0.8755170702934265
1,1783745,-12.209427833557129,11.386590003967285,-13.79067611694336,-38.00419616699219
1,1783748,-13.860274314880371,-1.6111738681793213,-4.740623474121094,-2.2051682472229004
1,1783749,25.634483337402344,-8.913658142089844,34.81231689453125,61.31137466430664
1,1783752,12.837556838989258,21.473543167114258,-2.4319489002227783,21.41874885559082
1,1783753,-15.548108100891113,12.980140686035156,-20.262405395507812,-26.184799194335938
1,1783756,-3.9754433631896973,-25.68242073059082,-13.37236499786377,-14.617904663085938
1,1783757,6.237400531768799,-9.021278381347656,-1.1447863578796387,12.0938720703125
1,1783760,-11.541584014892578,-11.471630096435547,15.376302719116211,-0.9411038160324097
1,1783761,15.90933609008789,3.440091371536255,14.36635971069336,11.575258255004883
1,1783764,42.450103759765625,39.35065460205078,7.635728359222412,44.143226623535156
1,1783765,-35.94729232788086,-6.855466842651367,-15.958970069885254,-52.93820571899414
1,1783768,-45.72934341430664,-30.693767547607422,-16.19086265563965,-117.64554595947266
1,1783769,24.125701904296875,18.97761344909668,-1.6552042961120605,52.36823654174805
1,1783772,12.102789878845215,7.059548854827881,-13.244158744812012,111.01346588134766
1,1783773,-18.647972106933594,-26.756683349609375,18.25953483581543,-28.82065200805664
1,1783774,3.9036247730255127,2.0651299953460693,23.388368606567383,-28.872684478759766
1,1783777,14.569732666015625,19.82709503173828,-44.33504104614258,17.99769401550293
1,1783778,17.66796875,-0.3684437572956085,6.1644673347473145,14.626997947692871
1,1783781,12.861733436584473,-4.9195876121521,60.27811813354492,-11.960553169250488
1,1783782,-31.096267700195312,4.997498989105225,-25.445566177368164,-84.13624572753906
1,1783785,-22.300090789794922,-6.892548084259033,-31.036197662353516,-7.35305118560791
