Aktueller Finger,timestamp_ms,sensor_0,sensor_1,sensor_2,sensor_3
0,1864207,27.686582565307617,33.8006477355957,157.21998596191406,8.626428604125977
0,1864210,-49.64189147949219,-2.8662173748016357,183.04690551757812,-3.2710680961608887
0,1864211,-56.564849853515625,-6.987281322479248,-52.951988220214844,-16.397661209106445
0,1864214,111.95891571044922,11.513349533081055,-120.02324676513672,1.0083760023117065
0,1864215,27.73664093017578,-22.972549438476562,31.74595069885254,32.86275100708008
0,1864218,-82.92276000976562,-23.37360382080078,-9.025115013122559,19.888486862182617
0,1864219,-0.4431847035884857,-8.023701667785645,-70.23784637451172,-1.492934226989746
0,1864222,23.99693489074707,20.18471908569336,7.943337440490723,-50.796104431152344
0,1864223,-23.495914459228516,3.9419944286346436,-35.104976654052734,-23.574748992919922
0,1864226,13.47274398803711,-9.961705207824707,8.217860221862793,48.79465103149414
0,1864227,58.27091598510742,41.25535583496094,126.57508087158203,-15.761373519897461
0,1864230,-24.41732406616211,33.56154251098633,19.29475212097168,-25.020376205444336
0,1864231,-40.68790817260742,-27.970577239990234,-65.14278411865234,26.463823318481445
0,1864234,1.6254963874816895,-41.97993469238281,-20.44683074951172,-1.9118127822875977
0,1864235,-4.789412021636963,-12.989344596862793,13.809638023376465,-1.6742368936538696
0,1864238,1.2198399305343628,-0.6562458276748657,4.317325115203857,12.672236442565918
0,1864239,-18.2164363861084,9.415921211242676,-24.54127311706543,-12.689191818237305
0,1864242,9.57430362701416,12.63470458984375,15.459846496582031,6.723026275634766
0,1864243,31.404508590698242,-12.119943618774414,-46.98234558105469,2.8686633110046387
0,1864246,-18.01955795288086,4.19413948059082,-38.63837432861328,-16.99859046936035
0,1864247,20.50010871887207,41.741111755371094,117.57764434814453,14.25121784210205
0,1864250,27.165433883666992,-4.009129047393799,29.052865982055664,4.141328811645508
0,1864251,-35.60725784301758,-43.44232940673828,-67.6722183227539,-24.86733627319336
0,1864254,-15.617082595825195,-4.446791648864746,-16.955257415771484,-11.12756633758545
0,1864255,8.241206169128418,32.609283447265625,28.618783950805664,39.81214904785156
0,1864258,3.6086649894714355,2.3650686740875244,37.61632537841797,10.627728462219238
0,1864259,-6.231574535369873,-25.511720657348633,-36.53767013549805,-43.54487991333008
0,1864262,3.388446807861328,-3.0279412269592285,-31.994447708129883,11.323481559753418
0,1864263,-4.415227890014648,8.45676040649414,-6.921020984649658,57.507938385009766
0,1864266,-6.236355781555176,5.0495734214782715,-9.440162658691406,-18.05581283569336
0,1864267,58.43991470336914,22.114347457885742,83.70482635498047,-67.07174682617188
0,1864270,-23.338945388793945,-1.998679518699646,16.2001953125,12.594407081604004
0,1864271,-68.55128479003906,-34.595699310302734,-81.37297058105469,26.754648208618164
0,1864274,32.39651870727539,13.288511276245117,-14.980710983276367,12.864937782287598
0,1864275,28.971904754638672,12.679804801940918,36.72977066040039,0.4841138422489166
0,1864278,-2.1443231105804443,-7.933725833892822,37.087806701660156,-17.83818244934082
0,1864279,-13.477995872497559,-0.6393002271652222,-44.07121276855469,7.35617208480835
0,1864282,-4.748547554016113,13.477496147155762,-6.23200798034668,-19.9522762298584
0,1864283,-2.95749831199646,-1.120672345161438,-13.457361221313477,5.224348068237305
0,1864286,6.599637031555176,-24.21240234375,-13.748237609863281,28.848777770996094
0,1864287,45.61157989501953,39.57346725463867,116.70433044433594,-17.628129959106445
0,1864290,-24.254980087280273,-3.1298232078552246,-45.17176818847656,-14.324851036071777
0,1864291,-61.02451705932617,-42.843528747558594,-107.01365661621094,-5.188305854797363
0,1864294,19.784801483154297,-2.9069323539733887,45.25690460205078,25.44513511657715
0,1864295,24.50297737121582,-2.1348023414611816,59.710453033447266,13.500856399536133
0,1864298,6.448699474334717,24.61853790283203,19.15569305419922,-21.171873092651367
0,1864299,-0.8081332445144653,-8.54153823852539,-25.407615661621094,-0.14601317048072815
0,1864302,-9.896772384643555,-7.168970108032227,-12.539556503295898,-14.755470275878906
0,1864303,-5.827896595001221,2.248976230621338,-56.743873596191406,8.878711700439453
0,1864306,-7.694980621337891,4.754932403564453,-4.429133415222168,29.851598739624023
0,1864307,32.250267028808594,51.42204666137695,129.69549560546875,6.369790554046631
0,1864310,-7.338778495788574,-19.290164947509766,-26.86210823059082,-11.423507690429688
0,1864311,-27.792133331298828,-33.833984375,-101.50348663330078,-34.514488220214844
0,1864314,40.27668380737305,18.069887161254883,4.282564640045166,-0.43389707803726196
0,1864315,3.844149112701416,-5.707459449768066,29.79364585876465,18.929203033447266
0,1864318,-38.10245132446289,-1.3201735019683838,38.23898696899414,1.042290449142456
0,1864319,-9.877771377563477,-18.327878952026367,6.327469825744629,-3.2876126766204834
0,1864322,14.28956413269043,0.45762813091278076,11.432538032531738,-9.168500900268555
0,1864323,-0.3775668740272522,3.304210662841797,-76.28096008300781,6.330991268157959
0,1864326,2.4260244369506836,-28.56395149230957,-24.869823455810547,12.28612232208252
0,1864327,36.348533630371094,45.117576599121094,150.5290985107422,4.662303447723389
0,1864330,-12.787688255310059,28.20361328125,-46.18198776245117,3.107919931411743
0,1864331,-51.513431549072266,-28.163755416870117,-109.60997772216797,-16.04952049255371
0,1864334,0.26351267099380493,-30.87574005126953,31.952913284301758,-17.848421096801758
0,1864335,25.267499923706055,3.1099252700805664,38.91301345825195,5.077813148498535
0,1864338,13.829977035522461,37.49880599975586,8.745539665222168,-5.532819747924805
0,1864339,13.394674301147461,-3.1849136352539062,-6.453587055206299,9.492830276489258
0,1864342,4.4111008644104,3.75337815284729,25.503782272338867,21.929609298706055
0,1864343,-40.18845748901367,-12.843502044677734,-61.594783782958984,-12.867931365966797
0,1864346,-13.764246940612793,-26.068029403686523,-18.493663787841797,3.656339645385742
0,1864347,59.50176239013672,35.880767822265625,103.33399963378906,-6.405782222747803
0,1864350,-9.648970603942871,0.8589043021202087,-38.08549880981445,-17.081344604492188
0,1864351,-35.44307327270508,-20.454639434814453,-48.225284576416016,19.922914505004883
0,1864354,16.259124755859375,6.138183116912842,17.712217330932617,8.043498992919922
0,1864355,3.7302396297454834,2.0046823024749756,-0.7167388796806335,-0.34523630142211914
0,1864358,-1.1234211921691895,19.01011848449707,31.863327026367188,14.12121868133545
0,1864359,-11.043612480163574,-1.776695728302002,-4.646947383880615,-15.71694564819336
0,1864362,4.146059036254883,-19.031042098999023,-17.46343231201172,-23.70186996459961
0,1864363,-9.211180686950684,-27.290128707885742,-46.91382598876953,12.4122314453125
0,1864366,7.138729095458984,26.03066635131836,31.95576286315918,-6.710533142089844
0,1864368,47.374290466308594,34.60479736328125,131.7164306640625,-7.788361549377441
0,1864370,-33.34223175048828,-43.38542556762695,-84.43873596191406,25.1335506439209
0,1864372,-34.65155792236328,9.417757987976074,-85.40505981445312,-7.989849090576172
0,1864374,36.522071838378906,23.400543212890625,50.627525329589844,-28.464685440063477
0,1864376,21.584720611572266,-6.289139270782471,13.776921272277832,24.158632278442383
0,1864380,-31.00631332397461,16.02734375,55.469669342041016,28.06482696533203
0,1864380,-49.29951858520508,-7.644767761230469,-8.341216087341309,-20.9603214263916
0,1864382,16.452335357666016,-15.44317626953125,-70.86739349365234,-3.454249143600464
0,1864384,46.9556770324707,-24.863067626953125,-34.701332092285156,47.60104751586914
0,1864386,-15.402484893798828,-21.69847869873047,-39.534847259521484,-14.503085136413574
0,1864388,-26.264026641845703,20.900609970092773,74.23391723632812,-62.02016067504883
0,1864390,11.246058464050293,12.219443321228027,74.46260070800781,33.90563201904297
0,1864392,-0.025924159213900566,-25.036468505859375,-108.74881744384766,20.76719093322754
0,1864394,11.033313751220703,-27.89642333984375,-42.86008071899414,-43.86241912841797
0,1864396,31.104976654052734,20.028911590576172,74.49468231201172,21.973154067993164
0,1864398,-4.911553859710693,44.99554443359375,21.425264358520508,26.692562103271484
0,1864400,-7.692729949951172,-6.998650074005127,25.106048583984375,-44.583404541015625
0,1864402,8.455831527709961,-7.03778076171875,11.447484016418457,-6.192886829376221
0,1864404,0.12122669816017151,36.89452362060547,-68.63802337646484,43.16009521484375
0,1864406,-23.198266983032227,-18.728939056396484,-29.469755172729492,-12.61229419708252
0,1864408,-1.2323709726333618,-6.195834636688232,117.1547622680664,-13.810285568237305
0,1864410,9.57934856414795,36.475318908691406,57.849918365478516,11.248276710510254
0,1864412,-32.922245025634766,-23.21279525756836,-140.01226806640625,-2.9652726650238037
0,1864414,8.894015312194824,-2.5019192695617676,-39.87039566040039,6.389522552490234
0,1864416,23.927715301513672,-20.193355560302734,82.2001953125,-9.128251075744629
0,1864418,-16.166358947753906,-28.925844192504883,-5.199187278747559,-13.823502540588379
0,1864420,9.735760688781738,55.80792236328125,30.349233627319336,20.82459831237793
0,1864422,11.37423038482666,6.370183944702148,22.63593101501465,-0.9070596694946289
0,1864424,-45.461544036865234,-51.911983489990234,-117.60946655273438,-11.192808151245117
0,1864426,-1.694700837135315,-5.5722270011901855,-53.96138381958008,6.758073329925537
0,1864428,64.01490020751953,27.36873435974121,133.39280700683594,-18.78347396850586
0,1864430,5.5860209465026855,20.331817626953125,73.88157653808594,29.71204376220703
0,1864432,-37.635684967041016,-10.140060424804688,-145.73388671875,18.448070526123047
0,1864434,-3.6872262954711914,-18.175573348999023,-52.88608169555664,-47.70956802368164
0,1864436,22.220476150512695,-2.1156020164489746,115.00221252441406,6.28154993057251
0,1864438,-16.35503578186035,6.954372406005859,15.576478958129883,26.135456085205078
0,1864440,-7.398902893066406,13.921562194824219,-11.332468032836914,-19.2413387298584
0,1864442,12.87883472442627,-14.456428527832031,-25.39581298828125,-27.596084594726562
0,1864444,-17.629798889160156,-30.97100257873535,-62.28607940673828,20.55779266357422
0,1864446,5.518817901611328,16.24298667907715,41.07686233520508,30.486572265625
0,1864448,31.32720947265625,55.164939880371094,97.36050415039062,-26.80058479309082
0,1864450,-1.7435240745544434,7.0582475662231445,0.16502782702445984,-18.17924690246582
0,1864452,-48.034278869628906,-69.13079071044922,-101.1910171508789,38.09052658081055
0,1864454,2.8857154846191406,-15.995929718017578,-2.006007432937622,25.685556411743164
0,1864456,47.9885139465332,75.82054138183594,37.09798812866211,-41.34702682495117
0,1864458,-23.753929138183594,-14.960034370422363,-36.38048553466797,-32.96342468261719
0,1864460,-17.616687774658203,-28.770219802856445,64.55142211914062,28.779203414916992
0,1864462,19.566190719604492,49.669822692871094,25.51993751525879,13.44103717803955
0,1864464,-21.27842903137207,-33.70417022705078,-119.12216186523438,-4.902406215667725
0,1864466,-8.559082984924316,-41.303077697753906,-8.70921516418457,11.452635765075684
0,1864468,37.23787307739258,36.62587356567383,102.93640899658203,3.6313116550445557
0,1864470,-1.4095958471298218,26.421045303344727,30.181795120239258,2.3678581714630127
0,1864472,-26.155925750732422,-40.52718734741211,-86.99508666992188,-25.87129020690918
0,1864474,13.232036590576172,-31.710538864135742,-31.718494415283203,1.7779673337936401
0,1864476,13.256065368652344,49.363033294677734,61.359310150146484,26.946706771850586
0,1864478,-1.3040724992752075,38.43990707397461,7.547776222229004,-25.57871437072754
0,1864480,6.781064987182617,-13.275590896606445,28.00335121154785,7.76873254776001
0,1864482,3.6339502334594727,-20.320735931396484,4.039720058441162,-8.148014068603516
0,1864485,-33.23263931274414,-25.78207015991211,-107.90846252441406,-15.55455493927002
0,1864486,7.692035675048828,3.003206968307495,12.632197380065918,41.714637756347656
0,1864487,54.36433029174805,14.803977966308594,128.5341033935547,-7.442782878875732
0,1864490,-46.853397369384766,-11.204010009765625,-25.764677047729492,-34.92049026489258
0,1864491,-60.84618377685547,16.0714054107666,-81.9289779663086,11.413848876953125
0,1864494,48.874698638916016,8.878765106201172,-0.91774982213974,13.788468360900879
0,1864495,26.600616455078125,-8.06399917602539,20.085464477539062,-20.666912078857422
0,1864498,-13.350018501281738,-2.55372953414917,21.94095230102539,-5.338415145874023
0,1864499,-0.5510590672492981,-27.088056564331055,-32.34174346923828,15.951765060424805
0,1864502,-15.199849128723145,10.567450523376465,3.6749351024627686,5.636855602264404
0,1864503,-6.109082221984863,28.383129119873047,-24.580257415771484,14.969073295593262
0,1864506,-5.716095447540283,-16.259672164916992,-34.72276306152344,-2.822603702545166
0,1864507,35.133628845214844,-1.0302906036376953,144.8033905029297,-16.00917625427246
0,1864510,19.86552619934082,-10.14703369140625,5.954670429229736,-6.989712238311768
0,1864511,-31.782072067260742,-5.703640937805176,-136.7154998779297,-18.506811141967773
0,1864514,7.7967753410339355,33.519283294677734,33.72685241699219,22.399377822875977
0,1864515,5.421103477478027,15.25103759765625,79.54731750488281,43.758243560791016
0,1864518,-19.652875900268555,-3.5380942821502686,-3.0226590633392334,-0.619345486164093
0,1864519,10.83173656463623,-33.34634017944336,-55.63935470581055,-31.647382736206055
0,1864522,27.403715133666992,-19.284122467041016,-19.159177780151367,-18.67170524597168
0,1864523,-49.76054763793945,-23.506067276000977,-15.109739303588867,24.424745559692383
0,1864526,-6.1232733726501465,23.56997299194336,14.058687210083008,2.7275307178497314
0,1864527,65.00055694580078,73.2205810546875,113.45433807373047,-23.49944305419922
0,1864530,-19.305816650390625,-19.263986587524414,-42.65353775024414,-6.166952133178711
0,1864531,-19.26777458190918,-31.398252487182617,-125.67800903320312,-5.2276506423950195
0,1864534,-12.51450252532959,-27.131248474121094,43.57249450683594,25.07548713684082
0,1864535,-10.225194931030273,-2.666832208633423,45.281700134277344,45.394317626953125
0,1864538,23.292966842651367,19.5931396484375,-6.463949680328369,-43.6180419921875
0,1864539,-2.2434961795806885,4.217084884643555,28.507463455200195,-32.96293258666992
0,1864542,-3.1943376064300537,36.2070198059082,-4.985963821411133,59.91044616699219
0,1864543,-17.582181930541992,-13.682840347290039,-71.549560546875,8.433180809020996
0,1864546,22.868803024291992,-20.3096923828125,8.074650764465332,-23.01865577697754
0,1864547,45.67818832397461,26.97860336303711,103.322509765625,-29.559188842773438
0,1864550,-51.20963668823242,-1.972115159034729,-38.95030975341797,-43.668643951416016
0,1864551,-23.60692024230957,-11.786798477172852,-76.81439208984375,5.959819316864014
0,1864554,36.348228454589844,-8.081714630126953,39.47710418701172,38.27132797241211
0,1864555,-11.049737930297852,-6.116848945617676,26.327054977416992,12.529080390930176
0,1864558,-10.90246295928955,-1.025269627571106,1.1008574962615967,-5.671017646789551
0,1864559,20.570268630981445,8.835004806518555,-8.072020530700684,15.14732551574707
0,1864562,9.450174331665039,24.220121383666992,-5.426181793212891,-14.208463668823242
0,1864563,-37.518104553222656,-32.233917236328125,-77.67347717285156,-21.65105438232422
0,1864566,-4.681635856628418,-36.56986618041992,-0.045656900852918625,47.11210632324219
0,1864567,62.791202545166016,70.45793151855469,179.04202270507812,35.79329299926758
0,1864570,-8.960140228271484,25.659212112426758,-2.466240882873535,-31.723371505737305
0,1864571,-46.702850341796875,-75.37553405761719,-130.5945281982422,-32.92485046386719
0,1864574,10.121878623962402,-5.93740701675415,-47.457923889160156,-12.217005729675293
0,1864575,6.174951553344727,29.76278305053711,36.8519172668457,5.20432710647583
0,1864578,-3.8486521244049072,-19.419540405273438,57.55510711669922,18.92923927307129
0,1864579,23.947046279907227,10.120111465454102,9.322185516357422,-7.838555812835693
0,1864582,1.1590348482131958,5.281028747558594,-3.5673210620880127,2.616672992706299
0,1864583,-17.398000717163086,-27.20474624633789,-71.43331146240234,8.764649391174316
0,1864586,-2.2946903705596924,38.43626403808594,24.378128051757812,-32.1135368347168
0,1864587,13.8675537109375,41.04258346557617,109.90277099609375,-18.19871711730957
0,1864590,-17.778043746948242,-38.34905242919922,-107.32345581054688,76.82728576660156
0,1864591,-29.32086753845215,-52.17353057861328,-91.99187469482422,54.51325225830078
0,1864594,40.51808166503906,15.892739295959473,111.01868438720703,-102.19824981689453
0,1864595,3.7291791439056396,45.661903381347656,60.468788146972656,-34.76539611816406
0,1864598,-31.69330596923828,-4.063668727874756,-33.128963470458984,88.98933410644531
0,1864599,13.057414054870605,-39.73418045043945,-26.147531509399414,-4.4219841957092285
0,1864602,13.497408866882324,28.461462020874023,18.261938095092773,-73.26426696777344
0,1864604,-7.872644901275635,33.81831359863281,-42.45914840698242,4.425293445587158
0,1864606,1.5364705324172974,-46.19401168823242,-22.50581169128418,32.764183044433594
0,1864607,23.23601722717285,-9.908334732055664,120.68254089355469,-0.41283419728279114
0,1864610,-39.3299674987793,11.8660888671875,-33.435340881347656,18.23969841003418
0,1864611,-25.997278213500977,12.464571952819824,-99.35185241699219,-14.608989715576172
0,1864614,51.772552490234375,-16.539648056030273,43.54874801635742,-15.189412117004395
0,1864615,3.1332521438598633,-15.465324401855469,43.856266021728516,15.215357780456543
0,1864618,1.8781388998031616,37.01047897338867,1.0149728059768677,-24.006500244140625
0,1864619,17.378021240234375,16.628929138183594,-4.223258972167969,6.8775315284729
0,1864622,-42.94419860839844,0.6871784925460815,-5.058528423309326,34.464073181152344
0,1864623,-22.36643409729004,-23.58209800720215,-72.66007232666016,-13.137029647827148
0,1864626,30.368370056152344,-3.6604647636413574,17.379802703857422,-4.844625949859619
0,1864627,36.29991149902344,25.860288619995117,112.75334167480469,8.255518913269043
0,1864630,-13.235408782958984,-42.19923782348633,-66.91849517822266,-27.471485137939453
0,1864631,-33.92117691040039,-15.142248153686523,-93.45021057128906,-27.99321937561035
0,1864634,21.249204635620117,65.86418151855469,58.81848907470703,30.361907958984375
0,1864635,-2.063765287399292,-18.023069381713867,53.04880905151367,22.94230079650879
0,1864638,-6.471534252166748,-38.050472259521484,-6.384134769439697,1.4752169847488403
0,1864639,25.40455436706543,22.132688522338867,3.1183557510375977,23.57733726501465
0,1864642,-19.64690589904785,8.74146556854248,6.156859397888184,4.2051310539245605
0,1864643,-24.645723342895508,-25.615764617919922,-45.42329788208008,-30.0123348236084
0,1864646,30.626283645629883,-30.306713104248047,24.284624099731445,-62.99393081665039
0,1864647,13.519172668457031,52.94565963745117,75.85517120361328,10.927828788757324
0,1864650,-43.154048919677734,27.222949981689453,-108.2777099609375,79.60763549804688
0,1864651,-7.415682315826416,-79.0333251953125,-87.3868637084961,2.8857507705688477
0,1864654,14.549249649047852,-15.756649017333984,38.99931335449219,-47.28522491455078
0,1864655,12.444700241088867,60.041683197021484,53.133026123046875,1.8803393840789795
0,1864658,43.04658126831055,42.828514099121094,89.74264526367188,6.9218292236328125
0,1864659,-24.160606384277344,-13.680895805358887,-24.962093353271484,-30.782793045043945
0,1864662,-70.536376953125,-61.996952056884766,-101.63511657714844,-16.124900817871094
0,1864663,26.699031829833984,-31.692602157592773,-28.644954681396484,39.01491165161133
0,1864666,83.87309265136719,74.25497436523438,94.67901611328125,52.24996566772461
0,1864667,-23.12355613708496,64.7586669921875,100.43460083007812,-20.870359420776367
0,1864670,-62.509056091308594,-71.23799896240234,-97.93981170654297,-17.999732971191406
0,1864671,6.4249091148376465,-37.49470901489258,-78.55131530761719,-2.4559381008148193
0,1864674,7.611471652984619,48.50924301147461,56.42947769165039,-26.324195861816406
0,1864675,19.461393356323242,7.226964950561523,32.917625427246094,16.44817352294922
0,1864678,5.992393493652344,-23.83004379272461,-5.6896443367004395,19.988311767578125
0,1864679,-10.617864608764648,19.109325408935547,-15.206936836242676,-3.8396148681640625
0,1864682,4.330915451049805,-13.70210075378418,-0.6826521158218384,-5.263967514038086
0,1864683,-20.083335876464844,-66.10022735595703,-71.08409118652344,-15.961142539978027
0,1864686,10.28395938873291,48.4251594543457,39.22994613647461,8.803171157836914
0,1864687,29.579294204711914,78.21823120117188,140.49508666992188,22.705289840698242
0,1864690,-40.812644958496094,-46.24803161621094,-102.84796142578125,-3.8464815616607666
0,1864691,-13.818710327148438,-45.200721740722656,-87.13780975341797,-44.509796142578125
0,1864694,32.12750244140625,19.625951766967773,57.030574798583984,-5.673016548156738
0,1864695,1.0100866556167603,21.471879959106445,47.980987548828125,-98.02561950683594
0,1864698,5.96156120300293,-5.158499240875244,39.481597900390625,-3.698532819747925
0,1864699,-15.391648292541504,-18.626190185546875,-57.96941375732422,268.77813720703125
0,1864702,-7.839113235473633,32.107669830322266,-31.54994010925293,6.204588890075684
0,1864703,18.94919204711914,3.357975721359253,-8.617586135864258,-136.42776489257812
0,1864706,-20.5158634185791,-63.64845657348633,19.382070541381836,-24.941709518432617
0,1864708,-1.9591143131256104,7.479193210601807,95.57516479492188,24.253032684326172
0,1864710,48.875614166259766,20.42476463317871,-104.27818298339844,55.747154235839844
0,1864712,23.620159149169922,7.9173264503479,-64.32945251464844,-67.18995666503906
0,1864714,-34.35317611694336,21.162921905517578,87.0572509765625,-20.989683151245117
0,1864716,-17.78679084777832,-11.015503883361816,-9.197771072387695,96.91996765136719
0,1864718,-0.593235969543457,-3.3384523391723633,8.971938133239746,-38.82832336425781
0,1864720,-24.465377807617188,-5.080929279327393,33.098426818847656,-56.799041748046875
0,1864721,-16.978681564331055,-3.356173515319824,-30.6854305267334,6.1617937088012695
0,1864724,-6.836106300354004,-21.032054901123047,-83.67911529541016,-24.81590461730957
0,1864725,10.547464370727539,-11.619194984436035,-15.972878456115723,26.070215225219727
0,1864728,38.88662338256836,53.058876037597656,147.53550720214844,52.96965408325195
0,1864729,26.82793617248535,16.92700958251953,75.23419189453125,17.921451568603516
0,1864732,-26.691333770751953,-33.24280548095703,-128.86880493164062,-80.72614288330078
0,1864733,-4.526560306549072,-5.199578285217285,-38.14176559448242,-11.467268943786621
0,1864736,8.923559188842773,-6.883251667022705,76.10334777832031,108.20455932617188
0,1864737,-28.70510482788086,-9.304845809936523,-10.332000732421875,-32.344818115234375
0,1864740,29.749528884887695,36.42893600463867,-25.39971160888672,-86.17195892333984
0,1864741,38.480777740478516,31.94034767150879,4.956254482269287,16.70103645324707
0,1864743,-36.640262603759766,-39.96115493774414,-51.89553451538086,48.56534194946289
0,1864746,-16.103605270385742,-26.044628143310547,40.38951873779297,40.934146881103516
0,1864747,29.228647232055664,38.22381591796875,105.1863021850586,-5.012705326080322
0,1864750,-36.95425796508789,11.436751365661621,-84.24422454833984,-79.01448059082031
0,1864751,-34.439056396484375,-30.92230224609375,-67.01057434082031,-1.7836101055145264
0,1864754,44.7406005859375,-43.076908111572266,26.72808265686035,60.47631072998047
0,1864755,21.429359436035156,17.869091033935547,0.364385187625885,-13.633947372436523
0,1864758,-2.506063461303711,70.12401580810547,31.48371124267578,-13.940031051635742
0,1864759,-8.827143669128418,1.9342706203460693,40.992820739746094,5.494446754455566
0,1864762,-19.626934051513672,-45.87386703491211,-14.897299766540527,-30.51808738708496
0,1864763,-31.654747009277344,-51.02307891845703,-97.31670379638672,-12.592501640319824
0,1864766,35.037410736083984,-0.6492217779159546,37.3318977355957,20.409950256347656
0,1864767,67.11481475830078,56.97909164428711,123.01278686523438,-8.587636947631836
0,1864770,-64.45008087158203,2.3385274410247803,-100.17288970947266,28.281187057495117
0,1864771,-33.52432632446289,-2.8605968952178955,-86.305908203125,48.617698669433594
0,1864774,31.669538497924805,-21.48312759399414,58.72422790527344,-37.15910339355469
0,1864775,-11.246251106262207,-10.528363227844238,58.253665924072266,-18.296083450317383
0,1864778,31.31804084777832,62.014617919921875,26.59027862548828,46.009578704833984
0,1864779,12.34362506866455,-16.695837020874023,-44.073402404785156,-22.14714241027832
0,1864782,-27.320585250854492,-24.74948501586914,-22.807409286499023,-52.03141784667969
0,1864783,-13.993038177490234,-13.207202911376953,-35.085968017578125,6.8645243644714355
0,1864786,31.81070899963379,2.1195366382598877,27.561779022216797,-3.2661502361297607
0,1864787,35.96003341674805,79.5401611328125,111.77735900878906,-19.443096160888672
0,1864790,-67.49945068359375,-49.11464309692383,-88.9148178100586,45.81576919555664
0,1864791,-36.13418197631836,-70.07088470458984,-85.29466247558594,61.16536331176758
0,1864794,62.278934478759766,70.91168975830078,71.00511169433594,-23.523523330688477
0,1864795,26.978857040405273,16.205263137817383,39.80336380004883,-46.55308532714844
0,1864798,-40.417762756347656,-72.48107147216797,21.753604888916016,-5.943878650665283
0,1864799,-16.454532623291016,15.78277587890625,-16.804597854614258,1.2201650142669678
0,1864802,33.73847198486328,50.287532806396484,-53.665672302246094,21.430044174194336
0,1864803,-19.21075439453125,-59.713356018066406,-60.2293586730957,21.214412689208984
0,1864806,-23.224950790405273,-5.7461090087890625,47.384544372558594,-15.434747695922852
0,1864807,43.9351692199707,72.3721923828125,138.67189025878906,-10.746764183044434
0,1864810,-27.424894332885742,11.83247184753418,-62.03933334350586,15.29574966430664
0,1864811,-46.76107406616211,-8.395110130310059,-91.5479965209961,0.3735526204109192
0,1864814,51.96359634399414,-40.748329162597656,30.39086151123047,-24.932952880859375
0,1864815,39.04900360107422,-27.509450912475586,4.995378494262695,-4.950356483459473
0,1864818,-21.0231990814209,39.16813659667969,24.3282413482666,-1.7725067138671875
0,1864819,-32.49454879760742,8.4227876663208,6.277614116668701,5.828364372253418
0,1864822,5.993713855743408,-21.823089599609375,-23.25358772277832,14.341008186340332
0,1864823,31.420902252197266,-13.605447769165039,-37.49193572998047,-14.50391674041748
0,1864826,11.702550888061523,16.467761993408203,44.11100387573242,9.788753509521484
0,1864827,2.421003580093384,38.52889633178711,105.4132080078125,-2.6757442951202393
0,1864830,-26.371837615966797,-24.48642921447754,-102.53683471679688,-9.338399887084961
0,1864831,-38.74068832397461,-37.42686462402344,-76.42827606201172,18.908771514892578
0,1864834,9.385906219482422,26.54073715209961,90.8028335571289,-17.09963035583496
0,1864835,44.90053176879883,23.21769142150879,17.430076599121094,6.835107326507568
0,1864838,19.050987243652344,1.0602850914001465,-22.389442443847656,42.292015075683594
0,1864839,-20.815908432006836,-26.907859802246094,0.5609959363937378,-13.756300926208496
0,1864842,-32.17404556274414,-24.169090270996094,-6.484210014343262,-46.08405685424805
0,1864843,-22.471220016479492,13.939155578613281,-60.25105667114258,-4.190194129943848
0,1864846,22.49489402770996,27.110509872436523,37.17814636230469,22.540077209472656
0,1864847,43.90450668334961,-0.429662823677063,113.0577163696289,28.156753540039062
0,1864850,-8.268898010253906,-34.375038146972656,-90.89546966552734,-5.862462997436523
0,1864851,-39.89218521118164,18.291900634765625,-99.09517669677734,-49.75109100341797
0,1864854,-2.835391044616699,16.43387222290039,65.53402709960938,8.033926963806152
0,1864855,18.418222427368164,-24.71115493774414,47.5014762878418,16.123220443725586
0,1864858,14.643136024475098,11.692205429077148,18.037202835083008,-17.216676712036133
0,1864859,10.936457633972168,19.97703742980957,6.824064254760742,19.555191040039062
0,1864862,-35.555877685546875,-8.79343318939209,-49.03321075439453,33.16429138183594
0,1864863,-21.06182098388672,-3.4188480377197266,-74.83100891113281,-2.380323648452759
0,1864866,39.77942657470703,4.148427963256836,51.78690719604492,-40.52767562866211
0,1864867,8.821324348449707,-8.270881652832031,121.72628021240234,-5.07262659072876
0,1864870,-29.506433486938477,11.156105995178223,-81.21969604492188,34.37403869628906
0,1864871,16.444931030273438,-1.6058241128921509,-89.6694107055664,7.774264335632324
0,1864874,3.1824867725372314,-39.987648010253906,56.66559600830078,-18.54731559753418
0,1864875,-26.00529670715332,-10.42292594909668,42.25397491455078,-13.0355863571167
0,1864878,33.24346160888672,40.166114807128906,-3.983924388885498,8.8192720413208
0,1864879,14.45870304107666,9.858805656433105,-7.584146499633789,23.883365631103516
0,1864882,-25.187519073486328,-27.7195987701416,2.4732885360717773,-17.27703285217285
0,1864883,-23.447864532470703,-8.980043411254883,-66.14667510986328,-31.343481063842773
0,1864886,24.31501579284668,25.680347442626953,43.87481689453125,7.9545392990112305
0,1864888,37.103919982910156,29.272167205810547,140.84228515625,13.849470138549805
0,1864890,-36.351924896240234,-36.95731735229492,-110.6238784790039,3.2321677207946777
0,1864892,-18.659683227539062,-20.251052856445312,-100.62919616699219,-2.6802523136138916
0,1864893,16.182971954345703,33.39762496948242,70.76497650146484,12.804184913635254
0,1864896,3.3565523624420166,16.365331649780273,2.6389150619506836,8.42205810546875
0,1864897,-11.322657585144043,0.5194489359855652,5.465353488922119,-34.110633850097656
0,1864900,-10.332452774047852,-22.008827209472656,43.596588134765625,-12.465301513671875
0,1864901,0.19243325293064117,-26.258893966674805,-52.02740478515625,38.580238342285156
0,1864904,-3.0244739055633545,27.16217613220215,-78.61314392089844,-1.7586050033569336
0,1864905,19.861223220825195,28.437576293945312,37.85408020019531,-14.935903549194336
0,1864908,26.93254280090332,-23.70549201965332,98.679931640625,1.9023125171661377
0,1864909,-8.936864852905273,-34.22890853881836,17.277795791625977,3.129197120666504
0,1864912,-28.001150131225586,13.512420654296875,-91.93604278564453,12.894418716430664
0,1864913,-4.628744602203369,36.88080978393555,6.142980575561523,-0.5463441610336304
0,1864916,14.260578155517578,-19.169830322265625,74.0306167602539,-11.584698677062988
0,1864917,17.22967529296875,-12.083975791931152,-27.48432731628418,-24.153026580810547
0,1864920,-6.2839226722717285,18.339271545410156,-2.106135368347168,17.83034896850586
0,1864921,-28.23186492919922,-9.78697681427002,-14.627696990966797,13.681269645690918
0,1864924,-5.549376010894775,-10.435038566589355,-72.94571685791016,-18.747615814208984
0,1864925,28.90550994873047,13.671357154846191,8.255516052246094,48.69575881958008
0,1864928,24.191720962524414,16.527502059936523,112.4001235961914,-10.52563762664795
0,1864929,-34.23736572265625,-19.95539093017578,24.290334701538086,-61.62298583984375
0,1864932,-18.26445770263672,-56.53303527832031,-155.7338104248047,33.69730758666992
0,1864933,12.935919761657715,26.9876766204834,-6.9634809494018555,9.434959411621094
0,1864936,7.111087799072266,79.57936096191406,118.82252502441406,-20.490875244140625
0,1864937,4.55346155166626,-28.476083755493164,-19.344226837158203,17.989830017089844
0,1864940,15.603531837463379,-30.991971969604492,1.6580798625946045,-4.184991836547852
0,1864941,12.996371269226074,21.52985382080078,12.847393035888672,-5.528064727783203
0,1864944,-58.06758499145508,-22.909231185913086,-77.00209045410156,2.320634126663208
0,1864945,-2.2921252250671387,-13.121564865112305,-27.29153060913086,-15.751548767089844
0,1864948,49.600154876708984,38.81300735473633,100.465087890625,1.7124181985855103
0,1864949,-3.994913101196289,22.34819984436035,44.29611587524414,19.535999298095703
0,1864952,-11.878500938415527,-41.122467041015625,-112.31616973876953,-5.842201232910156
0,1864953,-4.061302661895752,0.9878852367401123,-18.46078872680664,-14.756041526794434
0,1864956,4.286764621734619,37.214298248291016,72.09782409667969,30.76736068725586
0,1864957,-9.199508666992188,-32.87825393676758,-4.692625999450684,9.397202491760254
0,1864960,0.934434175491333,-25.380346298217773,26.204099655151367,-19.655975341796875
0,1864961,11.161760330200195,1.676155924797058,21.825275421142578,1.0797020196914673
0,1864964,-15.101974487304688,-1.4246853590011597,-84.75370788574219,-3.4146792888641357
0,1864965,10.716431617736816,18.877029418945312,-11.155268669128418,-8.120684623718262
0,1864968,22.044212341308594,36.666961669921875,111.82267761230469,-14.135358810424805
0,1864969,-28.620140075683594,-2.04915714263916,8.730198860168457,-7.600485324859619
0,1864972,-13.835516929626465,-51.16214370727539,-124.94557189941406,23.813323974609375
0,1864973,20.499216079711914,-10.661962509155273,-33.58812713623047,40.658897399902344
0,1864976,-3.4144937992095947,23.06698226928711,68.9095458984375,-26.06855583190918
0,1864977,10.757055282592773,33.764549255371094,13.608412742614746,-28.000606536865234
0,1864980,26.600425720214844,25.180646896362305,21.792768478393555,33.4970703125
0,1864981,-35.57598114013672,-34.21943283081055,-9.263275146484375,-28.221750259399414
0,1864984,-44.88821792602539,-43.94420623779297,-96.9157943725586,-18.020980834960938
0,1864985,23.515779495239258,6.2344970703125,28.18032455444336,58.80701446533203
0,1864988,36.58028030395508,41.97164535522461,127.42332458496094,-13.20535945892334
0,1864989,-11.082244873046875,5.455915451049805,7.286886692047119,-42.37598419189453
0,1864992,-25.20287322998047,-52.16751480102539,-137.38966369628906,30.521886825561523
0,1864993,13.413750648498535,-17.70195198059082,-20.948335647583008,22.609926223754883
0,1864996,17.159822463989258,49.933170318603516,107.79808044433594,-10.204092025756836
0,1864997,-12.993204116821289,-14.5276460647583,-20.848957061767578,-4.668340682983398
0,1865000,2.669116258621216,-26.665151596069336,4.460045337677002,-32.89434051513672
0,1865001,8.063509941101074,58.410606384277344,23.230371475219727,-20.66462516784668
0,1865004,-21.870729446411133,7.868983745574951,-91.0764389038086,50.80084991455078
0,1865005,20.067750930786133,-34.8876838684082,-13.283159255981445,20.433427810668945
0,1865008,33.511837005615234,10.362889289855957,121.13478088378906,-26.67954444885254
0,1865009,-47.616851806640625,-5.4730544090271,25.626686096191406,8.310487747192383
0,1865012,-33.305511474609375,-29.263839721679688,-122.2642593383789,-6.156455039978027
0,1865013,41.79988098144531,36.09082794189453,7.592052459716797,-9.129638671875
0,1865016,14.295130729675293,16.59977149963379,50.99485397338867,27.797691345214844
0,1865017,-10.063023567199707,-39.70056915283203,-16.10353660583496,-13.45181655883789
0,1865020,14.953386306762695,12.419483184814453,51.59292221069336,-15.141520500183105
0,1865021,-6.725701808929443,11.502973556518555,-33.987220764160156,7.228193759918213
0,1865024,-44.46965026855469,-9.997303009033203,-93.2911376953125,0.2324017733335495
0,1865025,6.79488468170166,11.088515281677246,36.45703887939453,-16.716230392456055
0,1865028,56.45975875854492,10.171823501586914,81.76181030273438,-15.91757583618164
0,1865029,-26.52446937561035,-12.376789093017578,-2.1815357208251953,27.23603057861328
0,1865032,-38.01195526123047,-23.643957138061523,-90.05160522460938,11.345178604125977
0,1865033,31.80032730102539,9.16956901550293,10.258404731750488,-6.007439136505127
0,1865036,16.779478073120117,6.046456336975098,64.73592376708984,-9.857519149780273
0,1865038,-20.032678604125977,2.9976370334625244,-28.97139549255371,2.882054328918457
0,1865040,4.291555881500244,22.91791343688965,51.575096130371094,0.7629714012145996
0,1865042,5.233184337615967,-20.317928314208984,-2.107114315032959,-16.89800262451172
0,1865044,-16.2137393951416,-20.146127700805664,-134.4793243408203,22.999948501586914
0,1865046,22.731552124023438,13.073566436767578,53.503509521484375,24.433992385864258
0,1865048,8.301163673400879,9.610320091247559,121.46469116210938,-14.068358421325684
0,1865050,-10.919504165649414,13.299640655517578,-50.30754470825195,-36.93913269042969
0,1865051,1.4881715774536133,-17.02330780029297,-55.00721740722656,-8.391119956970215
0,1865054,-23.29715347290039,-28.089475631713867,7.485315799713135,28.18158531188965
0,1865055,5.094969272613525,14.10548210144043,10.974924087524414,25.63595199584961
0,1865058,28.621854782104492,18.100141525268555,-5.066444396972656,3.349605083465576
0,1865059,-26.59052276611328,-14.43402099609375,-20.967483520507812,-26.289173126220703
0,1865064,-16.555774688720703,13.82142448425293,53.41413879394531,0.79674232006073
0,1865064,7.662721633911133,28.38300895690918,-24.7530517578125,6.146514892578125
0,1865065,5.507584095001221,-39.02707290649414,-71.52205657958984,-3.8925564289093018
0,1865068,32.97092819213867,-25.898799896240234,82.66929626464844,13.117987632751465
0,1865069,-24.402591705322266,24.393861770629883,-14.41955852508545,-3.8917617797851562
0,1865072,-29.30335235595703,-9.67171859741211,-108.12816619873047,8.277780532836914
0,1865073,34.95335006713867,-16.399187088012695,56.969886779785156,15.815542221069336
0,1865076,2.173741340637207,42.5710334777832,65.8136215209961,-46.04044723510742
0,1865077,-11.272627830505371,34.684085845947266,-7.30526065826416,-33.912193298339844
0,1865080,15.479436874389648,-28.783769607543945,58.5350456237793,47.55509948730469
0,1865081,3.630662202835083,-46.564476013183594,-11.563802719116211,8.79215145111084
0,1865084,-25.65300178527832,4.797589302062988,-115.47450256347656,-26.605615615844727
0,1865085,-4.867257595062256,9.906989097595215,15.6636381149292,3.7851898670196533
0,1865088,30.149259567260742,6.0597758293151855,126.29955291748047,-5.942759990692139
0,1865089,-5.740224361419678,31.664688110351562,-14.092567443847656,0.9496631622314453
0,1865092,-23.089086532592773,-8.145681381225586,-128.54612731933594,27.647369384765625
0,1865093,9.621849060058594,-11.357850074768066,14.651527404785156,36.94601058959961
0,1865096,-4.191340923309326,-10.48363208770752,75.1942367553711,-7.974863052368164
0,1865097,-13.98482608795166,8.176384925842285,-35.13320541381836,-67.36621856689453
0,1865100,25.268112182617188,3.7303037643432617,33.63401412963867,-7.193222999572754
0,1865101,8.653938293457031,-35.22929000854492,23.964618682861328,46.56124496459961
0,1865104,-29.360517501831055,23.36272621154785,-118.77564239501953,-1.2243179082870483
0,1865105,14.121987342834473,23.286128997802734,20.689388275146484,8.582106590270996
0,1865108,26.938539505004883,-5.535614490509033,116.12822723388672,6.162151336669922
0,1865109,-15.009151458740234,3.162289619445801,-25.818561553955078,-44.71529769897461
0,1865112,-19.678382873535156,-31.073246002197266,-105.48926544189453,-19.489667892456055
0,1865113,-3.7642600536346436,-12.34843635559082,-2.528463125228882,27.07771110534668
0,1865116,16.53251838684082,27.046443939208984,73.53250885009766,12.932381629943848
0,1865117,5.619009494781494,19.035982131958008,4.343118190765381,-22.34014129638672
0,1865120,13.400674819946289,19.870033264160156,34.9066047668457,21.959184646606445
0,1865121,-9.452522277832031,-11.169901847839355,-13.32242202758789,37.55836868286133
0,1865124,-52.9200439453125,-36.519527435302734,-103.79090118408203,-35.41600799560547
0,1865125,36.72567367553711,9.807951927185059,45.51266098022461,-0.5667773485183716
0,1865128,32.090965270996094,3.2463247776031494,107.79789733886719,29.086950302124023
0,1865129,-45.983951568603516,-21.78142738342285,-42.88628005981445,-16.5439510345459
0,1865132,2.2208034992218018,-0.28920572996139526,-104.59600830078125,-18.82865333557129
0,1865133,32.32950210571289,9.400080680847168,28.676692962646484,-6.3056464195251465
0,1865136,10.629676818847656,16.870607376098633,66.28307342529297,15.706352233886719
0,1865137,-25.742040634155273,20.813928604125977,-17.998973846435547,-5.736789226531982
0,1865140,-15.483560562133789,-23.45525360107422,8.09645938873291,-8.100154876708984
0,1865141,24.77189826965332,-30.551849365234375,-16.08607292175293,14.148512840270996
0,1865144,1.416028618812561,5.160553932189941,-78.09158325195312,-8.701939582824707
0,1865145,-4.317620754241943,19.892864227294922,29.886625289916992,-2.8502273559570312
0,1865148,-2.027632474899292,39.13390350341797,121.99665069580078,-7.098714828491211
0,1865149,-8.166563987731934,-24.65338134765625,4.2897748947143555,-2.885596990585327
0,1865152,1.9506969451904297,-33.586856842041016,-126.16978454589844,14.814775466918945
0,1865153,-10.548686981201172,14.727618217468262,-18.474172592163086,14.0203857421875
0,1865156,10.659772872924805,8.663256645202637,69.0112533569336,8.451987266540527
0,1865157,-1.1617995500564575,-3.649780750274658,-22.268617630004883,-10.78462028503418
0,1865160,-1.0719505548477173,-5.392431735992432,52.43663787841797,0.7466104626655579
0,1865161,27.867658615112305,36.076351165771484,27.5024356842041,-8.231311798095703
0,1865164,-37.07270050048828,2.033238410949707,-151.57933044433594,-8.312165260314941
0,1865165,-11.239538192749023,-23.960830688476562,31.85568618774414,-0.4733613431453705
0,1865168,44.25657653808594,19.05099105834961,155.37277221679688,3.9715874195098877
0,1865169,-18.966001510620117,-7.942143440246582,-55.11302185058594,16.915531158447266
0,1865172,-25.20003318786621,-10.283968925476074,-109.95472717285156,-6.838650226593018
0,1865173,24.258113861083984,-10.976478576660156,21.122844696044922,1.0337309837341309
0,1865176,21.089529037475586,-3.5025382041931152,67.81710815429688,-8.894367218017578
0,1865177,-12.72314167022705,19.61747932434082,8.49423885345459,-21.34467315673828
0,1865180,-7.8710737228393555,-20.657825469970703,8.020757675170898,14.189556121826172
0,1865181,-9.94212818145752,-22.377416610717773,-32.59911346435547,9.548633575439453
0,1865184,-26.88420295715332,-24.371606826782227,-104.77896118164062,10.063017845153809
0,1865185,26.50041961669922,-6.966982364654541,32.188568115234375,1.2071073055267334
0,1865188,41.3435173034668,57.61735153198242,119.48048400878906,-42.206398010253906
0,1865189,-43.86453628540039,16.763757705688477,-19.0396671295166,13.802024841308594
0,1865192,-22.5229434967041,-38.872406005859375,-106.3488998413086,26.293699264526367
0,1865193,48.8460693359375,14.19152545928955,24.742816925048828,-21.985868453979492
0,1865196,5.271459102630615,33.66387176513672,81.63834381103516,19.327150344848633
0,1865197,-12.694997787475586,-8.84078311920166,-28.100448608398438,1.3939275741577148
0,1865200,22.963674545288086,5.5841898918151855,15.147696495056152,-6.202337741851807
0,1865201,-20.27606773376465,3.4036216735839844,-10.541189193725586,-3.139514446258545
0,1865204,-40.67451095581055,-20.40351676940918,-83.24365234375,-32.95145034790039
0,1865205,44.172080993652344,24.33150863647461,65.29253387451172,13.780744552612305
0,1865208,21.2674617767334,3.927027702331543,73.60401916503906,4.979404449462891
0,1865209,-38.39085388183594,-17.61064910888672,-37.81890869140625,0.20588035881519318
0,1865212,-21.733407974243164,-14.119267463684082,-57.28502655029297,28.438634872436523
0,1865213,1.2244505882263184,-28.19167709350586,-6.767873287200928,5.111108303070068
0,1865216,20.292861938476562,-2.5366108417510986,50.157649993896484,-20.62687873840332
0,1865217,17.012956619262695,20.272844314575195,-10.602762222290039,-28.386470794677734
0,1865220,-1.1529991626739502,40.67585754394531,16.43621826171875,36.221885681152344
0,1865222,-33.768760681152344,-11.749014854431152,15.792350769042969,15.676947593688965
0,1865224,-23.292688369750977,-55.749168395996094,-95.31470489501953,-28.275808334350586
0,1865226,31.297391891479492,5.792362689971924,9.973311424255371,30.249515533447266
0,1865228,42.50940704345703,51.80601501464844,105.05668640136719,18.110811233520508
0,1865230,-10.171430587768555,-3.582658052444458,-24.438798904418945,-17.43931770324707
0,1865232,-17.91145896911621,-19.743925094604492,-101.23683166503906,-31.374757766723633
0,1865234,-0.42868441343307495,26.295154571533203,31.23451805114746,0.44514307379722595
0,1865235,-10.946252822875977,8.070096969604492,108.63294219970703,5.237300395965576
0,1865238,4.5731635093688965,-19.107614517211914,-30.266765594482422,-30.367969512939453
0,1865239,8.727091789245605,-18.820146560668945,-62.30204391479492,20.95803451538086
0,1865242,4.430750846862793,-9.22038745880127,14.997957229614258,34.79988098144531
0,1865244,3.014674186706543,-13.276285171508789,-41.60676574707031,-15.011534690856934
0,1865245,4.057185173034668,19.480815887451172,-4.77962589263916,-26.014673233032227
0,1865248,0.4381462633609772,49.87543869018555,120.54450225830078,-1.7287681102752686
0,1865249,-27.282575607299805,-15.018747329711914,-7.445408344268799,6.667933940887451
0,1865252,-10.617523193359375,-49.367393493652344,-142.39944458007812,4.604855537414551
0,1865253,33.94691848754883,15.057519912719727,34.887054443359375,9.653801918029785
0,1865256,17.092500686645508,35.8426399230957,90.89604949951172,4.031726360321045
0,1865257,-23.136167526245117,-12.743453979492188,-35.97594451904297,-4.377650737762451
0,1865260,-1.2571463584899902,-19.197738647460938,-8.396818161010742,5.525536060333252
0,1865261,-3.9527547359466553,6.220804214477539,-6.505331993103027,19.744792938232422
0,1865264,-25.539915084838867,-24.932231903076172,-38.38816452026367,-12.140006065368652
0,1865265,42.5429801940918,-0.4156776964664459,12.361149787902832,-12.539485931396484
0,1865268,23.58371353149414,64.023193359375,77.54625701904297,-1.888621211051941
0,1865269,-54.22251510620117,-1.72325599193573,35.11863708496094,-28.394458770751953
0,1865272,-16.933032989501953,-57.166648864746094,-101.68582153320312,-6.568631172180176
0,1865273,30.039241790771484,-21.4014892578125,-35.853641510009766,15.51190185546875
0,1865276,13.17247486114502,33.04539108276367,67.96073913574219,13.028204917907715
0,1865277,-17.760440826416016,30.209932327270508,-1.1631182432174683,4.064489841461182
0,1865280,-5.52958345413208,8.256880760192871,42.565670013427734,-3.8020434379577637
0,1865281,11.161735534667969,-12.095396041870117,-1.2547625303268433,-8.74307632446289
0,1865284,3.7682929039001465,-38.98100280761719,-141.517822265625,14.770944595336914
0,1865285,10.072225570678711,-2.6628994941711426,14.1553373336792,41.40576934814453
0,1865288,-2.204367160797119,21.535947799682617,150.30706787109375,-11.906623840332031
0,1865289,-23.7385196685791,10.145005226135254,-2.4052913188934326,-54.48209762573242
0,1865292,-10.037784576416016,-12.68370532989502,-126.1509780883789,-16.92463493347168
0,1865293,11.15998649597168,-16.820289611816406,0.4726652204990387,48.54196548461914
0,1865296,6.033145904541016,7.1339898109436035,68.23680877685547,18.572368621826172
0,1865297,16.969390869140625,9.937871932983398,-34.58127975463867,-32.160587310791016
0,1865300,11.080584526062012,13.81567668914795,14.840909957885742,-3.0482592582702637
0,1865301,-37.95010757446289,1.6055432558059692,38.30683517456055,3.816152572631836
0,1865304,-9.167909622192383,-12.157333374023438,-69.39486694335938,-2.0392181873321533
0,1865305,40.744972229003906,18.3156795501709,9.062234878540039,-7.238268852233887
0,1865308,20.67081069946289,20.828550338745117,101.0359878540039,11.975851058959961
0,1865309,-26.971622467041016,-26.593589782714844,-17.24233055114746,24.997398376464844
0,1865312,-36.96129608154297,-44.508270263671875,-107.47067260742188,-1.472261667251587
0,1865313,8.763777732849121,10.068867683410645,9.744023323059082,-5.663434982299805
0,1865316,22.066694259643555,45.19914245605469,72.16716003417969,-15.83422565460205
0,1865317,-3.10771107673645,-5.113888263702393,-31.428239822387695,-14.036208152770996
0,1865320,-3.1902928352355957,-26.7204532623291,12.323183059692383,0.8905801177024841
0,1865321,5.8518266677856445,2.455467462539673,21.2772274017334,6.014286518096924
0,1865324,-28.009071350097656,3.473062038421631,-91.1875991821289,9.470111846923828
0,1865325,-3.162794828414917,4.927155017852783,4.5485734939575195,-37.796844482421875
0,1865328,52.25082015991211,26.105039596557617,120.01583862304688,-1.7506966590881348
0,1865329,-8.836926460266113,-4.17554235458374,4.7715935707092285,63.00850296020508
0,1865332,-38.25350570678711,-39.04374694824219,-127.09459686279297,5.421440124511719
0,1865333,19.88325309753418,-5.179275035858154,-13.865148544311523,-24.82010841369629
0,1865336,19.080488204956055,-3.6902048587799072,80.85064697265625,4.408044338226318
0,1865337,-14.29311752319336,18.48470115661621,14.15294075012207,0.4862525761127472
0,1865340,7.311073303222656,43.053646087646484,17.623029708862305,-35.72529220581055
0,1865341,-6.411404609680176,-23.625463485717773,-37.16533660888672,-9.518314361572266
0,1865344,-26.66754150390625,-23.06055450439453,-73.89397430419922,51.23981475830078
0,1865345,35.25973129272461,8.435310363769531,43.007137298583984,29.208036422729492
0,1865348,24.099571228027344,18.850833892822266,84.25670623779297,-36.560970306396484
0,1865349,-41.35536193847656,1.146596074104309,-15.281205177307129,-45.94107437133789
0,1865352,-32.20949935913086,-43.364585876464844,-76.23819732666016,4.471818447113037
0,1865353,21.413053512573242,19.019678115844727,17.711912155151367,32.15714645385742
0,1865356,51.08909606933594,42.334136962890625,37.01131820678711,15.539344787597656
0,1865357,-1.3788961172103882,-15.946975708007812,-31.048091888427734,8.083154678344727
0,1865360,-24.51396369934082,-12.07064437866211,19.218013763427734,-12.017801284790039
0,1865361,-19.283798217773438,-19.24589729309082,21.189912796020508,-23.064170837402344
0,1865364,-35.6097297668457,-29.491907119750977,-63.10934066772461,15.751879692077637
0,1865365,27.7518310546875,0.43231457471847534,-17.894664764404297,-14.197976112365723
0,1865368,52.9525260925293,46.01011657714844,94.47089385986328,-28.91501235961914
0,1865369,-22.654022216796875,50.63087844848633,23.11250114440918,37.63933181762695
0,1865372,-45.546051025390625,-55.32063674926758,-124.52852630615234,12.985111236572266
0,1865373,21.165071487426758,-51.609928131103516,-22.494789123535156,8.382728576660156
0,1865376,28.41280174255371,43.75126266479492,83.10015106201172,-5.132593631744385
0,1865377,-26.28702163696289,19.933277130126953,9.856680870056152,-7.930192470550537
0,1865380,9.424871444702148,6.810528755187988,35.826454162597656,22.644609451293945
0,1865381,19.154071807861328,-30.839237213134766,-14.348588943481445,-54.73213577270508
0,1865384,-47.174076080322266,-41.80813980102539,-116.56509399414062,-17.1098575592041
0,1865385,-5.084805488586426,32.260780334472656,18.84942054748535,53.273128509521484
0,1865388,63.29823303222656,56.89238739013672,142.30661010742188,-1.8370615243911743
0,1865389,2.262240171432495,17.043336868286133,-2.0882608890533447,-17.184764862060547
0,1865392,-27.388166427612305,-43.286865234375,-141.35488891601562,1.770935297012329
0,1865393,-10.168024063110352,-19.89536476135254,17.513256072998047,7.286020278930664
0,1865396,-9.189923286437988,22.69621467590332,75.12925720214844,1.8378705978393555
0,1865397,13.638273239135742,6.472350120544434,-17.487184524536133,-14.846877098083496
0,1865400,23.874191284179688,-9.308574676513672,35.40675735473633,-2.931731700897217
0,1865401,-12.171286582946777,-16.40023422241211,-38.434112548828125,24.1076717376709
0,1865404,-32.89366149902344,-32.503509521484375,-106.56475830078125,40.651611328125
0,1865405,25.103456497192383,10.086016654968262,77.11012268066406,1.7564998865127563
0,1865408,10.844832420349121,65.12873077392578,119.60509490966797,-48.79018020629883
0,1865409,-23.877483367919922,-0.2548600435256958,-54.53738021850586,-45.3831672668457
0,1865412,-10.759804725646973,-65.3745346069336,-101.49163055419922,30.91448402404785
0,1865413,13.284136772155762,1.622146487236023,42.40827178955078,34.57447814941406
0,1865416,21.633352279663086,34.09468078613281,50.102272033691406,-36.97343826293945
0,1865417,-17.618934631347656,-25.293004989624023,-55.392333984375,-23.509010314941406
0,1865420,12.282772064208984,19.733779907226562,56.857017517089844,0.8951508402824402
0,1865421,14.308666229248047,42.45045852661133,13.390608787536621,45.30728530883789
0,1865424,-30.35315704345703,-38.200286865234375,-132.66586303710938,17.11504364013672
0,1865425,10.373957633972168,-20.42793083190918,54.937313079833984,-21.672822952270508
0,1865428,24.372385025024414,46.40755081176758,112.74754333496094,11.877373695373535
0,1865430,-24.60349464416504,0.5231814384460449,-76.47502136230469,-18.167844772338867
0,1865432,-18.54049301147461,-58.75410461425781,-93.75360870361328,-17.389284133911133
1,1865434,-0.3300463855266571,21.19231414794922,29.902454376220703,27.053123474121094
1,1865437,10.115832328796387,38.723140716552734,84.91510009765625,-0.32996055483818054
1,1865438,10.7912015914917,-43.844364166259766,13.708086967468262,-15.921563148498535
1,1865439,-16.54730987548828,-15.34375,-28.58138656616211,6.340484142303467
1,1865442,-10.831225395202637,31.72258758544922,-22.953590393066406,2.350862979888916
1,1865443,-4.439583778381348,-32.85564422607422,-62.851905822753906,-11.370327949523926
1,1865446,39.18914031982422,7.419631004333496,61.1324577331543,1.4389041662216187
1,1865447,45.64198303222656,58.344749450683594,133.70033264160156,13.283549308776855
1,1865450,-43.7446174621582,-46.923484802246094,-96.80423736572266,-22.770610809326172
1,1865451,-43.50313949584961,-5.977041721343994,-99.06727600097656,-0.02234102599322796
1,1865454,30.125497817993164,33.39692306518555,48.68913650512695,41.761966705322266
1,1865455,25.081514358520508,-30.85382843017578,30.358787536621094,-1.7194563150405884
1,1865458,-30.78750991821289,-10.982145309448242,14.362060546875,-43.99637222290039
1,1865459,-11.626015663146973,42.84705352783203,5.948354721069336,27.955453872680664
1,1865462,17.358219146728516,17.191606521606445,-38.204803466796875,43.87466049194336
1,1865463,-11.517786979675293,-49.7264518737793,-76.17774963378906,-53.18386459350586
1,1865466,15.104576110839844,21.692773818969727,99.09027862548828,-15.204648971557617
1,1865467,36.411128997802734,36.26372528076172,141.99481201171875,37.47420883178711
1,1865470,-46.67625427246094,-47.36019515991211,-132.99595642089844,-26.03221893310547
1,1865471,-44.03256607055664,-21.41990089416504,-113.94924926757812,-17.312910079956055
1,1865474,47.3488655090332,19.91974449157715,78.23303985595703,44.79705810546875
1,1865475,43.61599349975586,28.932039260864258,78.10355377197266,-15.432600021362305
1,1865478,-13.812010765075684,-1.069551706314087,-23.18696403503418,-35.46704864501953
1,1865479,-39.94331359863281,-31.859100341796875,-61.06130599975586,26.072607040405273
1,1865482,-12.386272430419922,-1.7781410217285156,-17.929506301879883,-0.21303102374076843
1,1865483,3.4469478130340576,-20.75997543334961,-72.68008422851562,-2.9985508918762207
1,1865486,28.537439346313477,-9.411111831665039,65.17839050292969,14.466752052307129
1,1865487,39.113990783691406,63.31502914428711,190.60137939453125,-15.180085182189941
1,1865490,-43.835166931152344,11.136513710021973,-114.48201751708984,1.0614063739776611
1,1865491,-39.29402160644531,-61.55415344238281,-135.12545776367188,30.97823143005371
1,1865494,30.88241195678711,-23.880422592163086,96.22309875488281,-12.889081954956055
1,1865495,2.599334716796875,50.41753005981445,33.10224914550781,-35.58413314819336
1,1865498,-3.728358030319214,30.202749252319336,-4.580615997314453,28.895713806152344
1,1865499,21.992279052734375,-22.943056106567383,7.3131608963012695,26.90212059020996
1,1865502,-2.807264566421509,1.3561221361160278,-14.390050888061523,-41.23653030395508
1,1865503,-42.31562042236328,-3.805368661880493,-52.201026916503906,-7.508206844329834
1,1865506,2.782221794128418,-20.38589096069336,15.482454299926758,26.739465713500977
1,1865507,61.27821350097656,14.650568008422852,113.4666519165039,-20.936141967773438
1,1865510,-24.510955810546875,5.0389790534973145,-79.56627655029297,10.38827896118164
1,1865511,-26.96578025817871,-24.756208419799805,-74.3188247680664,30.75617790222168
1,1865514,45.28422164916992,10.015216827392578,64.76571655273438,-6.352138042449951
1,1865515,-16.463895797729492,40.22748565673828,-5.8437395095825195,5.635935306549072
1,1865518,-9.321710586547852,6.70811653137207,11.288877487182617,-33.24003601074219
1,1865519,33.19839859008789,-30.626665115356445,22.688291549682617,-22.475088119506836
1,1865522,-30.08222198486328,-25.03527069091797,-33.06840515136719,24.43079948425293
1,1865523,-48.270240783691406,4.648288249969482,-74.20140075683594,-6.429978370666504
1,1865526,37.07891082763672,26.696395874023438,78.33968353271484,2.6547746658325195
1,1865527,56.39902877807617,27.41531753540039,147.58558654785156,18.055797576904297
1,1865530,-67.47662353515625,-35.30488204956055,-135.79635620117188,-14.717763900756836
1,1865531,-39.28224182128906,-52.897823333740234,-107.2002944946289,-15.956480979919434
1,1865534,64.27503204345703,51.057559967041016,107.72869873046875,41.76216506958008
1,1865535,5.559041500091553,41.13249588012695,28.09878921508789,8.605940818786621
1,1865538,3.5745110511779785,-28.2876033782959,-27.27753448486328,-55.77741622924805
1,1865539,-5.10553503036499,-8.10530948638916,12.10827922821045,-13.500964164733887
1,1865542,-41.09695816040039,10.999825477600098,-7.8786845207214355,45.68513488769531
1,1865543,-0.13949722051620483,-20.880901336669922,-60.23584747314453,13.36141300201416
1,1865546,39.95368957519531,-2.7933576107025146,37.18513870239258,-44.48705291748047
1,1865547,43.07426071166992,29.990747451782227,94.70401763916016,11.083316802978516
1,1865550,-48.962615966796875,-28.245698928833008,-108.43746185302734,51.153045654296875
1,1865551,-51.49837112426758,-15.700881004333496,-69.94027709960938,-13.641432762145996
1,1865554,34.0518913269043,25.62503433227539,85.77678680419922,-39.128273010253906
1,1865555,16.80582046508789,-15.511137962341309,30.210500717163086,5.232353687286377
1,1865558,8.543065071105957,7.928922653198242,25.862016677856445,6.578190803527832
1,1865559,21.206689834594727,42.1346321105957,-3.856757879257202,11.187312126159668
1,1865562,-30.156169891357422,-45.15328598022461,-68.40907287597656,9.812834739685059
1,1865563,-31.12590217590332,-26.63166046142578,-46.4571418762207,-10.344805717468262
1,1865566,22.310348510742188,38.64088439941406,61.101810455322266,8.274115562438965
1,1865567,19.052034378051758,-6.93215799331665,95.0595932006836,-13.605021476745605
1,1865570,-13.945725440979004,4.529181003570557,-62.68201446533203,-11.20816707611084
1,1865571,-6.14387321472168,5.899424076080322,-64.35691833496094,13.622900009155273
1,1865574,15.769558906555176,-24.801759719848633,30.101604461669922,-17.312623977661133
1,1865575,-13.672765731811523,-6.075363636016846,15.208815574645996,-20.14959144592285
1,1865578,-5.090668678283691,17.654653549194336,26.238222122192383,23.470029830932617
1,1865579,14.133042335510254,3.1765055656433105,2.59383487701416,25.26215934753418
1,1865582,-26.012495040893555,-10.123579025268555,-48.31501388549805,-0.18451371788978577
1,1865583,-21.675477981567383,-35.36673355102539,-85.61652374267578,2.569709300994873
1,1865586,55.29336166381836,-9.15219497680664,60.48218536376953,-25.89468002319336
1,1865587,43.50908279418945,55.23881149291992,145.63214111328125,-36.41230010986328
1,1865590,-67.1001205444336,-36.52627944946289,-115.34830474853516,29.737733840942383
1,1865591,-30.195491790771484,-35.76042556762695,-98.20115661621094,34.75922393798828
1,1865594,24.50943374633789,29.11271095275879,64.84764862060547,-29.266469955444336
1,1865595,6.622938632965088,3.90305757522583,23.683874130249023,-14.159531593322754
1,1865598,28.403709411621094,42.37517166137695,17.786298751831055,35.2144660949707
1,1865599,9.656022071838379,31.323341369628906,-4.637396812438965,15.606123924255371
1,1865602,-20.65492057800293,-20.18267250061035,-18.779277801513672,-37.35354232788086
1,1865603,-30.56514549255371,-47.437076568603516,-69.69580078125,-19.32015037536621
1,1865606,24.84153175354004,25.241140365600586,25.83892822265625,13.632065773010254
1,1865607,43.37615203857422,58.79948043823242,130.5709228515625,14.553329467773438
1,1865610,-41.641658782958984,-50.1700439453125,-78.77031707763672,14.14073657989502
1,1865611,-30.846120834350586,-4.385255813598633,-74.4047622680664,2.8826539516448975
1,1865614,14.056985855102539,37.373809814453125,52.05991744995117,3.2259459495544434
1,1865615,25.563819885253906,-7.905908584594727,18.929506301879883,-13.02359390258789
1,1865618,21.524213790893555,2.0318546295166016,57.875919342041016,-1.4365266561508179
1,1865619,-25.579708099365234,-22.9154109954834,25.387451171875,5.712855815887451
1,1865622,-25.54851722717285,22.38376808166504,-22.77422523498535,-7.5412116050720215
1,1865623,-3.6776647567749023,11.348864555358887,-56.997650146484375,-10.34787368774414
1,1865626,10.232701301574707,-31.183307647705078,22.41371726989746,1.5782811641693115
1,1865627,42.83486557006836,39.60837173461914,120.47042083740234,-2.808734655380249
1,1865630,-9.591952323913574,-9.5379638671875,-107.10610961914062,-1.1273014545440674
1,1865631,-50.45751953125,-58.66542053222656,-111.9018325805664,29.183246612548828
1,1865634,19.969541549682617,-1.9666635990142822,101.0406723022461,-2.0236599445343018
1,1865635,22.02358055114746,25.98552703857422,43.84028244018555,-12.351381301879883
1,1865638,2.2848362922668457,13.934886932373047,-13.07948112487793,-10.750717163085938
1,1865641,12.283064842224121,14.193876266479492,27.565982818603516,10.24422836303711
1,1865641,-32.06631851196289,-6.744856357574463,-60.17216110229492,41.52396011352539
1,1865644,-29.614166259765625,-32.64479064941406,-86.41341400146484,-27.644359588623047
1,1865646,43.37063217163086,15.881463050842285,89.98841857910156,-46.33629608154297
1,1865648,8.540386199951172,5.010814189910889,54.74617385864258,23.5111026763916
1,1865650,-44.47636413574219,-49.202274322509766,-98.3587646484375,1.3788350820541382
1,1865652,5.479243755340576,-21.522871017456055,-54.079227447509766,-20.016630172729492
1,1865654,18.97903823852539,37.6027717590332,46.302608489990234,10.610207557678223
1,1865656,20.893314361572266,44.58501434326172,70.39940643310547,-20.44141387939453
1,1865658,-3.219299793243408,11.991013526916504,4.942460060119629,0.5805716514587402
1,1865660,-24.634857177734375,-29.539587020874023,19.559904098510742,34.98615264892578
1,1865662,7.991432189941406,-36.581016540527344,-18.229000091552734,26.575162887573242
1,1865664,-10.710891723632812,9.994305610656738,-90.08895111083984,9.388641357421875
1,1865666,2.7440123558044434,15.798738479614258,66.63716125488281,-42.26067352294922
1,1865668,36.40871047973633,23.76711082458496,74.8681869506836,-27.510160446166992
1,1865670,-20.283536911010742,9.721929550170898,-80.70368957519531,27.20789337158203
1,1865672,-55.94051742553711,-66.0556640625,-73.26114654541016,14.058332443237305
1,1865674,17.564987182617188,-21.22865104675293,21.854015350341797,-7.624576091766357
1,1865676,58.41872787475586,76.85467529296875,61.958168029785156,9.983625411987305
1,1865678,-1.221558690071106,30.320167541503906,-2.2093350887298584,-2.7727279663085938
1,1865680,-25.411304473876953,-47.83580780029297,2.384492874145508,-33.182254791259766
1,1865682,-19.710697174072266,-19.29041290283203,-17.340248107910156,0.17764054238796234
1,1865684,12.01262092590332,-11.859684944152832,-53.720481872558594,27.136093139648438
1,1865686,33.42753601074219,8.069518089294434,44.42782211303711,16.046669006347656
1,1865688,-16.807422637939453,64.46016693115234,35.891170501708984,-3.1558525562286377
1,1865690,-15.619169235229492,-15.95175552368164,-26.05108070373535,-18.968957901000977
1,1865692,-7.045430660247803,-33.564674377441406,-31.677907943725586,-1.6781127452850342
1,1865694,3.750684976577759,27.758106231689453,3.9344494342803955,5.785017490386963
1,1865696,28.355609893798828,-13.312987327575684,43.245208740234375,12.04998779296875
1,1865698,3.6715950965881348,-23.966217041015625,-5.204033374786377,-2.3601911067962646
1,1865700,-11.057500839233398,25.90414047241211,19.970962524414062,-29.01335906982422
1,1865702,-33.92631149291992,-10.565123558044434,-26.948951721191406,-21.55443572998047
1,1865704,-10.639140129089355,-28.128931045532227,-67.89020538330078,2.4404332637786865
1,1865706,42.99946212768555,51.21625518798828,103.22512817382812,28.862876892089844
1,1865708,3.583695411682129,2.9926421642303467,54.64658737182617,29.550193786621094
1,1865710,-19.481670379638672,-26.128122329711914,-99.41346740722656,-0.17559494078159332
1,1865712,1.6025691032409668,12.58130168914795,-50.99264907836914,-20.795116424560547
1,1865714,4.548703193664551,-16.73488998413086,42.286624908447266,-16.128820419311523
1,1865716,11.62673568725586,2.148268461227417,26.632627487182617,12.520065307617188
1,1865718,-22.232757568359375,-12.928325653076172,-24.039791107177734,13.460461616516113
1,1865720,-7.352580547332764,-21.024232864379883,37.822628021240234,-17.70899200439453
1,1865722,14.50878620147705,41.05117416381836,-23.86652183532715,-7.227723598480225
1,1865724,-2.517899990081787,14.03360366821289,-71.65912628173828,23.27443504333496
1,1865726,37.16150665283203,-13.913678169250488,96.55281829833984,26.6242618560791
1,1865728,-1.9741240739822388,4.8966779708862305,67.55702209472656,-8.481574058532715
1,1865730,-55.87432098388672,-32.79323959350586,-106.9810791015625,-34.91147232055664
1,1865732,11.11488151550293,-14.523628234863281,-67.34072875976562,-10.206038475036621
1,1865734,31.606430053710938,25.67963218688965,51.14323043823242,23.213708877563477
1,1865736,-7.198349475860596,3.535792589187622,61.633056640625,9.38585376739502
1,1865738,-4.942439079284668,12.151864051818848,23.23366928100586,-18.77651596069336
1,1865740,3.5740625858306885,29.002098083496094,-22.72224998474121,-5.575376033782959
1,1865742,-12.573262214660645,-13.298393249511719,-83.30315399169922,-5.227616786956787
1,1865744,-27.741924285888672,-51.12529373168945,-38.80227279663086,-2.3968210220336914
1,1865746,1.6324554681777954,8.985684394836426,103.92399597167969,37.737911224365234
1,1865748,62.10777282714844,70.82510375976562,60.59850311279297,12.534867286682129
1,1865750,9.545356750488281,-14.25355052947998,-106.17263793945312,-53.47917938232422
1,1865752,-69.40000915527344,-70.21614837646484,-55.405372619628906,-21.130352020263672
1,1865754,17.201005935668945,32.059181213378906,93.93294525146484,49.885860443115234
1,1865756,29.033214569091797,33.997886657714844,45.437767028808594,20.373720169067383
1,1865758,-19.461952209472656,-38.88481521606445,-58.31154251098633,-25.260643005371094
1,1865760,17.13951873779297,16.308305740356445,27.29688835144043,-7.610467433929443
1,1865762,-26.892303466796875,19.220165252685547,5.8569254875183105,3.002854347229004
1,1865764,-28.918119430541992,-52.468101501464844,-88.7427978515625,-7.927524566650391
1,1865766,53.75945281982422,18.733657836914062,79.1172103881836,-0.862792432308197
1,1865768,4.225863456726074,18.85198974609375,70.62718963623047,10.608316421508789
1,1865770,-52.917213439941406,-49.111568450927734,-110.28275299072266,-4.373199939727783
1,1865772,-5.578535556793213,7.094497203826904,-54.094173431396484,1.334441900253296
1,1865774,35.993568420410156,23.990859985351562,64.69595336914062,7.532321929931641
1,1865776,23.764049530029297,25.260774612426758,37.172950744628906,-10.505664825439453
1,1866031,-6.134228706359863,-1.5465917587280273,7.057895183563232,4.5065107345581055
1,1866032,6.688045978546143,-36.58795166015625,32.04479217529297,1.0498541593551636
1,1866035,13.544095993041992,26.411405563354492,37.17652893066406,-10.096662521362305
1,1866036,-10.637290954589844,37.36787033081055,10.884389877319336,16.082494735717773
1,1866039,-50.91576385498047,-41.80910873413086,-184.82595825195312,15.173237800598145
1,1866040,-31.69684600830078,-50.057373046875,-170.68772888183594,-10.425867080688477
1,1866043,48.841651916503906,6.217331409454346,77.50518798828125,-4.927250862121582
1,1866044,34.98916244506836,48.93768310546875,119.60906219482422,5.510929584503174
1,1866047,2.6979308128356934,29.497201919555664,63.26704788208008,-29.26951789855957
1,1866049,9.663440704345703,-18.49667739868164,50.63816452026367,-16.916624069213867
1,1867420,-12.635754585266113,1.1446059942245483,56.16810607910156,28.819042205810547
1,1867421,-31.950700759887695,-4.290343761444092,-71.53816223144531,4.611877918243408
1,1867424,1.9278388023376465,-11.5082368850708,-25.2327823638916,0.05863258242607117
1,1867425,22.108423233032227,24.10709571838379,78.89730072021484,21.871337890625
1,1867428,-43.26447677612305,-12.586523056030273,-139.31356811523438,2.8594298362731934
1,1867429,-16.555463790893555,-50.452598571777344,-139.1261749267578,-36.46065902709961
1,1867432,45.965885162353516,-6.774401664733887,37.028717041015625,-24.545875549316406
1,1867433,-3.9479260444641113,30.114912033081055,63.06519317626953,21.80167007446289
1,1867436,-17.711532592773438,23.730085372924805,87.0117416381836,24.172542572021484
1,1867437,25.492944717407227,2.6609368324279785,57.15721893310547,22.526920318603516
1,1867440,10.454005241394043,-23.835298538208008,-9.690581321716309,-13.030128479003906
1,1867441,-28.290685653686523,-18.12929916381836,-55.258277893066406,-25.346656799316406
1,1867444,13.59972858428955,25.97806739807129,22.946460723876953,12.156418800354004
1,1867445,27.44325828552246,33.146915435791016,78.51074981689453,1.0630136728286743
1,1867448,-28.923812866210938,-21.954227447509766,-132.27340698242188,-9.269646644592285
1,1867449,-32.171939849853516,-37.95261764526367,-127.26570129394531,-9.646526336669922
1,1867452,8.457931518554688,-8.168615341186523,83.27308654785156,-3.5441341400146484
1,1867453,40.327335357666016,18.853782653808594,83.59236907958984,2.0942649841308594
1,1867456,21.386333465576172,27.650617599487305,11.767099380493164,26.004793167114258
1,1867457,-28.91192626953125,16.595109939575195,22.219623565673828,23.984952926635742
1,1867460,-12.826508522033691,1.057410717010498,1.3624248504638672,-36.168212890625
1,1867461,18.316165924072266,-42.1898078918457,-87.90979766845703,-9.399338722229004
1,1867464,5.391702651977539,5.583189487457275,63.2607421875,25.80280876159668
1,1867465,-8.337864875793457,44.588050842285156,85.42597961425781,-3.563061475753784
1,1867468,-46.57619857788086,-49.26592254638672,-163.83868408203125,-3.583508014678955
1,1867469,-25.219877243041992,-41.887203216552734,-82.87004089355469,-5.048710823059082
1,1867472,58.21513366699219,50.55058670043945,84.82422637939453,-10.094501495361328
1,1867473,31.1219539642334,27.325605392456055,59.705299377441406,-17.516855239868164
1,1867476,-20.557401657104492,-5.58777379989624,12.89672565460205,31.047252655029297
1,1867477,-11.208684921264648,8.071020126342773,-17.226076126098633,24.871234893798828
1,1867480,-20.009265899658203,-30.419689178466797,-6.08434534072876,-44.34038162231445
1,1867481,-7.391026973724365,-20.453510284423828,-21.09926986694336,-2.5449109077453613
1,1867484,53.63198471069336,48.281375885009766,51.531558990478516,5.180744647979736
1,1867485,31.6298885345459,22.08552360534668,70.86672973632812,10.188072204589844
1,1867488,-77.32129669189453,-38.64324951171875,-116.8154525756836,23.612581253051758
1,1867489,-38.55429458618164,-14.778996467590332,-56.893157958984375,-23.060306549072266
1,1867492,74.17208862304688,-2.147549867630005,74.24663543701172,-9.370771408081055
1,1867493,21.316631317138672,-13.062434196472168,17.514488220214844,0.9374875426292419
1,1867496,-31.029930114746094,24.67609977722168,-0.4643329977989197,-12.074592590332031
1,1867497,7.092974662780762,16.62668800354004,-6.571256637573242,8.642471313476562
1,1867500,-12.845773696899414,-36.19304656982422,-11.213184356689453,13.45004653930664
1,1867501,-29.371408462524414,-18.543113708496094,-41.909461975097656,17.453397750854492
1,1867504,37.42440414428711,55.17783737182617,42.77653884887695,-13.58902359008789
1,1867505,22.887380599975586,24.094318389892578,107.80158996582031,-25.67384910583496
1,1867508,-48.307071685791016,-47.666053771972656,-108.72750091552734,6.114895343780518
1,1867509,-12.13875961303711,-4.8715643882751465,-129.63352966308594,5.051614284515381
1,1867512,32.5633430480957,20.032001495361328,78.31880950927734,-1.8270996809005737
1,1867513,28.713926315307617,24.303937911987305,83.26445770263672,26.70248031616211
1,1867516,-10.350768089294434,-5.459807395935059,18.92201042175293,7.580113887786865
1,1867517,-25.49701690673828,-42.635520935058594,-7.002840518951416,-44.17439651489258
1,1867520,-7.5964035987854,-13.682157516479492,-64.45098114013672,7.142306327819824
1,1867521,-4.536257266998291,-3.0594851970672607,-75.40772247314453,12.255175590515137
1,1867524,40.17250061035156,15.48566722869873,77.13568115234375,-5.333876609802246
1,1867525,19.99188232421875,24.143024444580078,134.8852996826172,11.67208194732666
1,1867528,-55.16029739379883,-26.313377380371094,-112.44705963134766,-23.670347213745117
1,1867529,-26.575538635253906,-19.194509506225586,-111.73828125,3.062028169631958
1,1867532,34.88245391845703,42.68404006958008,86.61422729492188,39.356178283691406
1,1867533,21.863943099975586,1.1399487257003784,43.71553039550781,4.0003581047058105
1,1867536,-12.077179908752441,-9.187829971313477,-8.448578834533691,-9.985509872436523
1,1867537,12.820161819458008,40.53833770751953,9.72492504119873,-17.035419464111328
1,1867540,-4.668205738067627,-15.731588363647461,-20.881488800048828,-17.327054977416992
1,1867541,-46.19603729248047,-46.416282653808594,-66.50652313232422,20.53658103942871
1,1867544,20.078540802001953,34.58375930786133,62.824405670166016,-2.531114101409912
1,1867545,44.169673919677734,33.931251525878906,108.575927734375,-12.053934097290039
1,1867548,-31.551498413085938,-59.12570571899414,-122.49129486083984,17.10390281677246
1,1867549,-23.347023010253906,-24.922243118286133,-74.2513198852539,7.173307418823242
1,1867552,33.27702331542969,46.9466438293457,86.07351684570312,-0.557938277721405
1,1867553,17.437788009643555,28.08554458618164,18.340723037719727,-17.198322296142578
1,1867556,-30.463607788085938,-25.05357551574707,11.032469749450684,-2.2440671920776367
1,1867557,-16.628976821899414,-22.941162109375,17.15680694580078,3.398094415664673
1,1867560,3.593327522277832,7.471602916717529,-51.554351806640625,-7.015750885009766
1,1867561,7.793071269989014,-21.43501853942871,-66.90026092529297,7.917549133300781
1,1867564,39.65141296386719,15.538655281066895,90.193359375,-1.222885251045227
1,1867565,7.6392292976379395,37.28354263305664,113.8563461303711,-8.500231742858887
1,1867568,-71.82325744628906,-38.050743103027344,-155.18504333496094,6.8397932052612305
1,1867570,-35.17714309692383,-11.08168888092041,-122.10186004638672,-4.226935386657715
1,1867572,63.20977020263672,34.10578918457031,101.87187194824219,3.84940767288208
1,1867574,26.554784774780273,-14.202399253845215,59.11709213256836,24.61993408203125
1,1867576,-5.889654636383057,1.4719688892364502,35.92338180541992,-16.74571418762207
1,1867578,-0.9787546992301941,19.241439819335938,16.916698455810547,-15.490827560424805
1,1867580,-27.643985748291016,-13.273480415344238,-84.25943756103516,4.517314434051514
1,1867582,-11.776656150817871,-19.419116973876953,-70.7218017578125,7.289560794830322
1,1867583,14.250802040100098,-2.9060652256011963,25.010215759277344,20.679290771484375
1,1867586,39.00100326538086,36.618560791015625,144.96466064453125,-10.38419246673584
1,1867587,-2.9971630573272705,31.508684158325195,58.637718200683594,-19.768211364746094
1,1867590,-36.61294937133789,-24.063705444335938,-137.89877319335938,20.353281021118164
1,1867591,-12.578479766845703,-40.56024169921875,-53.97029113769531,5.004789352416992
1,1867594,8.940512657165527,-22.58368492126465,39.24439239501953,-31.420101165771484
1,1867595,20.029869079589844,12.48428726196289,-19.736778259277344,8.916936874389648
1,1867598,8.69023323059082,40.344017028808594,53.347103118896484,25.068147659301758
1,1867599,-3.4179835319519043,-8.753750801086426,37.92399978637695,-16.82581901550293
1,1867602,-40.17393112182617,-28.90648078918457,-139.71368408203125,-19.571189880371094
1,1867603,25.160383224487305,10.645538330078125,-49.199317932128906,35.01966094970703
1,1867606,58.27406692504883,16.30477523803711,171.58021545410156,7.189927101135254
1,1867607,-33.745445251464844,-2.4923171997070312,50.769683837890625,-64.3810043334961
1,1867610,-48.174110412597656,-4.689521312713623,-157.5517120361328,12.36246395111084
1,1867611,21.030872344970703,0.4689091742038727,-2.096848487854004,31.918935775756836
1,1867614,28.561094284057617,-17.483444213867188,117.44217681884766,-19.34870147705078
1,1867615,-33.558658599853516,23.326881408691406,7.750204086303711,10.310477256774902
1,1867618,-13.630616188049316,41.10426712036133,45.981178283691406,13.332284927368164
1,1867619,16.04227066040039,-40.23849105834961,-17.463457107543945,1.9701396226882935
1,1867622,-6.886692047119141,-32.49379348754883,-239.28196716308594,-5.962560176849365
1,1867623,28.507354736328125,32.7270622253418,-33.018611907958984,11.035146713256836
1,1867626,37.356109619140625,17.66400718688965,233.24533081054688,10.10008430480957
1,1867627,-42.926292419433594,-3.3727269172668457,27.23921775817871,-38.33155822753906
1,1867630,-18.295307159423828,-32.00885772705078,-128.79454040527344,10.998381614685059
1,1867631,32.28902816772461,-15.855483055114746,21.557411193847656,33.336002349853516
1,1867634,-4.8315110206604,35.332069396972656,67.86022186279297,-22.909700393676758
1,1867635,-37.730403900146484,-7.2385735511779785,7.286039352416992,-20.098190307617188
1,1867638,8.759614944458008,17.916980743408203,18.167072296142578,-18.727502822875977
1,1867639,33.2799072265625,14.504145622253418,-60.379764556884766,1.620439887046814
1,1867642,-41.46961212158203,-74.32383728027344,-69.31559753417969,20.71565055847168
1,1867643,6.3998637199401855,19.593276977539062,79.55187225341797,17.954204559326172
1,1867646,36.519283294677734,82.95460510253906,89.88361358642578,5.896154880523682
1,1867647,-47.347625732421875,-26.606006622314453,-53.36342239379883,-19.84478759765625
1,1867650,-25.72890853881836,-51.376686096191406,-129.54556274414062,5.1678361892700195
1,1867651,44.20347213745117,-2.199054479598999,1.388100504875183,9.79281234741211
1,1867654,42.0768928527832,8.474767684936523,130.50296020507812,-27.717172622680664
1,1867655,-27.125999450683594,16.565935134887695,13.22933578491211,-16.25634765625
1,1867658,-6.219784736633301,21.031658172607422,-28.41023063659668,24.180660247802734
1,1867659,11.840587615966797,-11.779809951782227,-7.673412322998047,8.338448524475098
1,1867662,-31.37750244140625,-44.51292419433594,-138.77914428710938,5.788300037384033
1,1867663,11.890485763549805,-8.067604064941406,-12.822619438171387,27.603137969970703
1,1867666,36.81466293334961,61.019859313964844,187.8914031982422,-23.423667907714844
1,1867667,1.6002949476242065,26.168670654296875,28.071128845214844,-27.987735748291016
1,1867670,-37.10318374633789,-80.15924835205078,-123.703857421875,33.75685119628906
1,1867671,-21.644834518432617,-14.88099193572998,0.9566669464111328,-1.9362001419067383
1,1867674,28.77044105529785,71.99962615966797,36.97018814086914,-16.346343994140625
1,1867675,-1.3918089866638184,-21.532114028930664,-21.197731018066406,21.394132614135742
1,1867678,-5.564560413360596,-11.303350448608398,40.984737396240234,-14.262035369873047
1,1867679,13.531991004943848,32.53864288330078,-22.603343963623047,-12.733404159545898
1,1867682,-29.940589904785156,-36.0610237121582,-39.4290885925293,18.045818328857422
1,1867683,1.7273242473602295,-8.086216926574707,58.55878448486328,-6.495290756225586
1,1867686,30.12445831298828,33.587154388427734,44.568904876708984,-15.815077781677246
1,1867687,9.242274284362793,-4.640285491943359,-27.65556526184082,25.770145416259766
1,1867690,0.1779467612504959,-27.853805541992188,-89.06494903564453,4.041844844818115
1,1867691,-27.161026000976562,3.76188325881958,-23.442245483398438,-31.916540145874023
1,1867694,-3.8281238079071045,28.880163192749023,27.83157730102539,27.010765075683594
1,1867695,26.7810115814209,-14.648372650146484,51.50703430175781,30.20150375366211
1,1867698,6.444061279296875,-9.647543907165527,76.72224426269531,-44.913475036621094
1,1867699,-15.10716438293457,16.0207576751709,-60.63861846923828,-22.721664428710938
1,1867702,-13.355292320251465,-20.69403648376465,-121.22183227539062,15.154264450073242
1,1867703,2.8046875,-0.4570249319076538,24.57880210876465,-17.128538131713867
1,1867706,-2.518918514251709,47.086761474609375,205.0355987548828,22.038509368896484
1,1867707,-18.27666664123535,-16.375749588012695,67.84593963623047,24.02756118774414
1,1867710,-3.66113018989563,-51.27759552001953,-263.3406066894531,-32.15750503540039
1,1867711,13.55056381225586,30.918745040893555,-111.44502258300781,10.625726699829102
1,1867714,-4.369758129119873,8.428123474121094,150.450439453125,-12.468339920043945
1,1867715,28.604724884033203,-16.195192337036133,67.02913665771484,-15.467568397521973
1,1867718,33.87254333496094,5.658705234527588,-1.7757714986801147,74.6971435546875
1,1867719,-49.17198944091797,-25.898008346557617,-38.16371536254883,-24.283763885498047
1,1867722,-31.82239532470703,-1.583068609237671,-72.84109497070312,-46.568870544433594
1,1867723,31.20781135559082,27.039642333984375,30.629892349243164,60.111289978027344
1,1867726,0.24946139752864838,30.184680938720703,138.59974670410156,-16.675920486450195
1,1867727,-7.988853454589844,2.283743143081665,20.752304077148438,-66.59484100341797
1,1867730,18.686723709106445,-29.933202743530273,-159.10205078125,25.272024154663086
1,1867731,4.300323963165283,-4.964423179626465,-50.95585250854492,44.121124267578125
1,1867734,3.0717523097991943,45.840362548828125,70.6827392578125,-7.438207149505615
1,1867735,19.688230514526367,23.578369140625,24.176469802856445,0.16485081613063812
1,1867738,15.915227890014648,-30.986801147460938,77.26783752441406,-3.2558064460754395
1,1867739,-34.96692657470703,-24.22989845275879,9.271489143371582,-16.842567443847656
1,1867742,-25.724069595336914,8.053420066833496,-173.25758361816406,-7.261209011077881
1,1867743,31.26885414123535,27.04541015625,37.615047454833984,3.825732946395874
1,1867746,-2.4329025745391846,0.05247381329536438,187.3566436767578,15.631782531738281
1,1867747,-49.71920394897461,-46.17668914794922,-99.84388732910156,0.05626988410949707
1,1867750,2.5432965755462646,-36.253761291503906,-191.58551025390625,-12.026552200317383
1,1867751,34.943580627441406,4.72081995010376,22.303621292114258,4.692785739898682
1,1867754,0.6443789601325989,4.107949733734131,140.2836151123047,25.891687393188477
1,1867755,14.956690788269043,8.670449256896973,69.51300811767578,27.991092681884766
1,1867758,-1.6628119945526123,42.52274703979492,35.30425262451172,-53.110557556152344
1,1867759,-51.911128997802734,-1.9086997509002686,-17.570430755615234,-51.004398345947266
1,1867762,-3.309169054031372,-60.07475662231445,-172.9747772216797,51.287086486816406
1,1867763,70.15898895263672,45.217872619628906,-60.48751449584961,25.622817993164062
1,1867766,-22.878938674926758,36.72178649902344,238.18280029296875,-31.067359924316406
1,1867767,-71.71297454833984,-48.1536750793457,112.17172241210938,-37.661956787109375
1,1867770,24.965124130249023,-2.41127347946167,-253.50462341308594,23.277803421020508
1,1867771,34.186927795410156,3.44826602935791,-175.2431640625,57.34202575683594
1,1867774,-2.1208548545837402,-13.137463569641113,25.738718032836914,14.80444049835205
1,1867775,41.3067512512207,-4.04052734375,30.45383071899414,-12.889361381530762
1,1867778,46.58306121826172,27.572158813476562,201.42257690429688,-37.22749328613281
1,1867782,-50.27131652832031,34.07599639892578,136.09750366210938,-5.297791481018066
1,1867782,-26.770402908325195,0.021279726177453995,-194.49803161621094,27.559280395507812
1,1867783,19.447351455688477,-50.2853889465332,-59.555931091308594,-12.028725624084473
1,1867786,-39.850521087646484,-22.794118881225586,169.05848693847656,-27.503639221191406
1,1867787,-32.02034378051758,39.17839431762695,50.585384368896484,-11.039687156677246
1,1867790,15.87873363494873,12.794098854064941,-65.11288452148438,27.798383712768555
1,1867791,9.78674030303955,3.5406806468963623,-9.492107391357422,5.129899024963379
1,1867794,-1.2533200979232788,-13.725648880004883,-73.55220794677734,-62.395774841308594
1,1867795,0.2057499885559082,-35.338687896728516,-131.4185791015625,-0.3059285879135132
1,1867798,-1.1827638149261475,17.338558197021484,38.68449401855469,54.88465118408203
1,1867799,5.187802314758301,5.771986484527588,50.211978912353516,26.4410343170166
1,1867802,12.777339935302734,-12.389100074768066,-27.884519577026367,-13.16123104095459
1,1867803,34.703548431396484,31.907907485961914,56.73868942260742,3.4646799564361572
1,1867806,21.888599395751953,15.087800979614258,71.76276397705078,43.23545455932617
1,1867807,-29.902990341186523,-23.360063552856445,-32.738182067871094,-25.889320373535156
1,1867810,-25.134164810180664,8.100943565368652,-47.889068603515625,-51.99078369140625
1,1867811,1.0058197975158691,22.835573196411133,55.59052276611328,-4.929778575897217
1,1867814,-9.87287712097168,-53.594688415527344,60.67456817626953,-11.693063735961914
1,1867815,-3.124638080596924,-15.059408187866211,-50.15241622924805,37.97800064086914
1,1867818,19.715253829956055,66.42611694335938,-21.342649459838867,47.956302642822266
1,1867819,-15.972901344299316,-18.5765438079834,-38.44430923461914,-48.11082077026367
1,1867822,-36.85471725463867,-32.35599136352539,-87.50906372070312,-1.706144094467163
1,1867823,29.720739364624023,32.129268646240234,53.50770950317383,33.56732177734375
1,1867826,70.41780853271484,3.5322508811950684,100.28286743164062,-28.510164260864258
1,1867827,28.160736083984375,-15.303019523620605,-13.60653018951416,-16.013931274414062
1,1867830,-53.82780075073242,-18.02165412902832,-96.4976806640625,12.988929748535156
1,1867831,-64.78514862060547,-9.980705261230469,4.577240943908691,4.391889572143555
1,1867834,28.369626998901367,33.470027923583984,108.6324691772461,-7.994046688079834
1,1867835,39.075199127197266,5.369987487792969,43.87409591674805,-1.3660893440246582
1,1867838,-34.7883415222168,-26.264354705810547,0.45411211252212524,-7.423361778259277
1,1867839,-48.13066482543945,-7.821476459503174,-99.9190444946289,4.704614639282227
1,1867842,3.1597115993499756,8.233841896057129,-104.5107421875,15.451519012451172
1,1867843,60.51869201660156,21.802783966064453,72.01155853271484,-4.311500549316406
1,1867846,28.66663360595703,8.118247032165527,86.02562713623047,-0.5943650007247925
1,1867847,-19.799970626831055,3.0532968044281006,-19.878177642822266,-5.414706707000732
1,1867850,-21.492225646972656,-20.08531951904297,-100.91364288330078,-12.835716247558594
1,1867851,1.2803144454956055,-7.205483913421631,-3.378770589828491,27.148916244506836
1,1867854,27.105735778808594,15.031557083129883,111.55257415771484,-1.7295584678649902
1,1867855,-2.955160617828369,-30.011554718017578,3.6439602375030518,-37.35258483886719
1,1867858,-16.5384464263916,4.799592971801758,17.728309631347656,24.242507934570312
1,1867859,-37.05704879760742,37.32936477661133,12.953852653503418,12.58927059173584
1,1867862,-18.041658401489258,-16.927215576171875,-155.03562927246094,-33.33966064453125
1,1867863,50.38187026977539,-0.6704511642456055,-47.667057037353516,7.989874839782715
1,1867866,34.91823959350586,21.06124496459961,164.8204345703125,41.676048278808594
1,1867867,-18.776033401489258,-17.171836853027344,55.78202819824219,13.2754487991333
1,1867870,-24.940614700317383,-35.77483367919922,-154.43923950195312,-17.84404945373535
1,1867871,22.434680938720703,-2.1442315578460693,2.5894663333892822,-20.991716384887695
1,1867874,1.5555115938186646,59.801788330078125,114.22870635986328,-13.096152305603027
1,1867875,-18.627483367919922,14.42435073852539,-35.947757720947266,5.8058552742004395
1,1867878,-2.1403720378875732,-21.18303108215332,24.54322052001953,13.768392562866211
1,1867879,-21.73788070678711,-19.45549201965332,-0.438309907913208,-3.86210036277771
1,1867882,-6.763957500457764,-36.969600677490234,-69.45690155029297,-31.868799209594727
1,1867883,4.686549186706543,16.030954360961914,74.77167510986328,-31.514144897460938
1,1867886,16.934268951416016,39.20759963989258,35.03403091430664,42.108070373535156
1,1867887,5.626756191253662,-15.01628303527832,-117.29557800292969,59.80786895751953
1,1867890,5.625762939453125,-41.8179817199707,-99.9010238647461,4.557972431182861
1,1867891,30.126827239990234,23.505779266357422,32.72041320800781,-15.016729354858398
1,1867894,11.216048240661621,23.813560485839844,117.4945068359375,-29.509084701538086
1,1867895,-12.063716888427734,-10.342390060424805,44.60506820678711,9.59227180480957
1,1867898,-8.289419174194336,34.774986267089844,22.502424240112305,25.70992660522461
1,1867899,-22.476778030395508,-13.91590404510498,-39.476707458496094,-48.7015380859375
1,1867902,-47.48527526855469,-70.35526275634766,-135.0596923828125,-54.13616180419922
1,1867903,34.41096115112305,32.146976470947266,67.25304412841797,27.03005027770996
1,1867906,50.428993225097656,64.79862213134766,117.52198791503906,40.97104263305664
1,1867907,-26.886573791503906,-5.633279800415039,-47.05542755126953,5.841919422149658
1,1867910,-45.98090744018555,-44.657081604003906,-67.32118225097656,-4.34194803237915
1,1867911,-8.598713874816895,-22.282730102539062,11.6752347946167,-26.523305892944336
1,1867914,40.06291961669922,42.98051452636719,58.930538177490234,1.307687759399414
1,1867915,10.403000831604004,19.62216567993164,-18.36094093322754,29.840456008911133
1,1867918,3.758654832839966,-23.62156105041504,-6.9807233810424805,12.781436920166016
1,1867919,7.145995140075684,-23.277326583862305,-15.231986045837402,0.5456503033638
1,1867922,-34.761260986328125,-18.360193252563477,-92.79578399658203,-10.607571601867676
1,1867923,9.402066230773926,32.11609649658203,26.71570587158203,5.320100784301758
1,1867926,94.7931137084961,31.023107528686523,101.6483154296875,-9.72542953491211
1,1867927,14.277742385864258,-38.83406448364258,-48.97956848144531,-20.282508850097656
1,1867930,-121.15254211425781,-52.91444778442383,-54.772335052490234,15.612080574035645
1,1867931,-23.40692138671875,27.959980010986328,76.59109497070312,6.084014892578125
1,1867934,38.60899353027344,49.44460678100586,61.299652099609375,1.3953897953033447
1,1867935,-44.70745086669922,-41.25387954711914,-14.505257606506348,-26.126060485839844
1,1867938,25.15342903137207,8.532642364501953,-68.8231201171875,-8.754364967346191
1,1867939,58.623050689697266,42.70384216308594,-86.12995910644531,62.596439361572266
1,1867942,-36.55276107788086,-36.18943786621094,-31.299903869628906,-5.782260417938232
1,1867943,-4.650969982147217,-16.830839157104492,110.5533676147461,-22.601318359375
1,1867946,47.28541564941406,39.90055465698242,144.1088409423828,-3.9988136291503906
1,1867947,-36.77893829345703,29.17112159729004,-30.988161087036133,-37.7594108581543
1,1867950,-77.52699279785156,-47.28470230102539,-126.18855285644531,-0.6604048013687134
1,1867951,24.808494567871094,-30.60650062561035,3.9046847820281982,16.566373825073242
1,1867954,72.4128189086914,40.406612396240234,59.24061965942383,12.532675743103027
1,1867955,0.38204944133758545,19.632747650146484,-25.15705680847168,16.664331436157227
1,1867958,0.93998122215271,-18.592769622802734,20.54854393005371,6.532382965087891
1,1867959,-2.3369393348693848,-18.423480987548828,-8.212615013122559,-11.618501663208008
1,1867962,-60.74763488769531,-25.5518856048584,-101.6923828125,-19.317476272583008
1,1867963,32.7852668762207,6.258775234222412,45.92089080810547,9.124940872192383
1,1867966,44.28278350830078,58.311866760253906,106.89360809326172,20.86534881591797
1,1867967,-58.7918815612793,-3.077418804168701,-48.63754653930664,-14.674483299255371
1,1867970,-7.6046142578125,-46.480857849121094,-97.50560760498047,-8.626785278320312
1,1867971,36.40194320678711,7.606564521789551,9.07734489440918,23.969295501708984
1,1867974,14.609322547912598,31.83591079711914,87.3310546875,-3.4047698974609375
1,1867975,-9.835079193115234,3.5844998359680176,5.217367649078369,-30.762136459350586
1,1867978,1.9355227947235107,-10.438054084777832,-13.057108879089355,3.975191354751587
1,1867980,0.5959662795066833,-28.152006149291992,-7.121463298797607,14.752962112426758
1,1867983,0.4700466990470886,2.863762855529785,-18.539535522460938,-2.9004478454589844
1,1867984,29.310686111450195,46.207763671875,68.80311584472656,-2.546245574951172
1,1867985,-41.22577667236328,-33.84502410888672,20.802204132080078,5.447075366973877
1,1867988,-59.69625473022461,-54.345497131347656,-100.87596893310547,9.630749702453613
1,1867989,35.87775421142578,36.798118591308594,-53.540985107421875,-6.734318733215332
1,1867992,28.45090103149414,32.230552673339844,34.671268463134766,6.771244049072266
1,1867993,-8.17908000946045,-11.81612777709961,25.051578521728516,16.412996292114258
1,1867996,17.69853401184082,6.682765483856201,36.546844482421875,-35.083580017089844
1,1867997,-11.71454906463623,7.161853313446045,11.845549583435059,-45.54521179199219
1,1868000,-34.19430160522461,-27.99696922302246,-41.43303298950195,37.062164306640625
1,1868001,-15.018917083740234,-23.392122268676758,-41.898590087890625,41.54694747924805
1,1868004,45.05031204223633,39.805816650390625,46.767738342285156,-23.617752075195312
1,1868005,34.31108856201172,39.2845573425293,91.93592834472656,-12.950984954833984
1,1868008,-52.671207427978516,-50.69072723388672,-93.28411865234375,-14.224970817565918
1,1868009,8.951096534729004,-16.749834060668945,-100.41669464111328,-11.964470863342285
1,1868012,42.41746520996094,40.94831466674805,117.54022216796875,69.534423828125
1,1868013,-30.061880111694336,-30.271684646606445,60.03026580810547,24.24867057800293
1,1868016,-27.57267189025879,-16.700016021728516,-57.59063720703125,-82.02498626708984
1,1868017,19.50019645690918,36.362388610839844,-16.05767250061035,-11.995538711547852
1,1868020,-3.9845879077911377,3.375849485397339,-30.986848831176758,54.75140380859375
1,1868021,-29.08017921447754,-48.81930923461914,-50.36837387084961,14.740259170532227
1,1868024,74.13997650146484,15.758845329284668,83.98873138427734,-41.4542236328125
1,1868025,55.633907318115234,108.9506607055664,142.76856994628906,-15.192255973815918
1,1868028,-100.21822357177734,-47.94352340698242,-107.20230102539062,31.59996795654297
1,1868029,-52.822288513183594,-88.00990295410156,-129.5744171142578,-6.976146697998047
1,1868032,46.18000411987305,41.837860107421875,81.71739196777344,-17.50578498840332
1,1868033,36.530399322509766,2.806034564971924,26.536935806274414,3.509021520614624
1,1868036,3.6494734287261963,20.09771156311035,-32.02959442138672,-0.22243182361125946
1,1868037,-28.4345760345459,22.617834091186523,34.320770263671875,18.8529109954834
1,1868040,-15.584872245788574,-45.39971160888672,-7.190643787384033,13.547196388244629
1,1868041,3.476414203643799,-53.005916595458984,-88.67037963867188,-25.08515167236328
1,1868044,15.621720314025879,43.9770393371582,60.59384536743164,-10.256491661071777
1,1868045,11.981415748596191,71.72148132324219,145.58485412597656,14.014623641967773
1,1868048,-16.06270408630371,-72.2654037475586,-103.85479736328125,-1.2635198831558228
1,1868049,-30.844398498535156,-36.36349105834961,-96.99162292480469,-9.127046585083008
1,1868052,13.75509262084961,42.67971420288086,73.6100845336914,15.026511192321777
1,1868053,53.39158630371094,17.484256744384766,34.61239242553711,6.749507904052734
1,1868056,-7.29868745803833,22.894895553588867,7.924726963043213,-0.3155219852924347
1,1868057,-19.6547908782959,-17.927806854248047,-41.55742645263672,21.05556869506836
1,1868060,-13.32171630859375,-23.246456146240234,-67.06726837158203,-4.599191188812256
1,1868061,-43.964271545410156,-11.674592971801758,-37.7998046875,-20.753292083740234
1,1868064,58.25430679321289,26.530616760253906,109.74820709228516,18.220502853393555
1,1868065,63.65202331542969,65.91604614257812,136.0023956298828,2.9435079097747803
1,1868068,-94.04505157470703,-73.78765869140625,-156.93161010742188,-54.37894821166992
1,1868069,-28.932106018066406,-53.19737243652344,-77.37980651855469,-22.990415573120117
1,1868072,77.2918701171875,68.49269104003906,130.44024658203125,50.27580642700195
1,1868073,-14.687575340270996,5.292163848876953,-7.37242317199707,20.74586296081543
1,1868076,-22.732133865356445,-4.226144313812256,-28.78862190246582,-16.41382598876953
1,1868077,37.235355377197266,3.433976411819458,27.063720703125,-4.74124002456665
1,1868080,-16.21877098083496,-38.548133850097656,-31.247533798217773,-31.80267906188965
1,1868081,-49.0845947265625,-31.56053352355957,-90.9759521484375,-0.5150267481803894
1,1868084,19.77560043334961,60.699562072753906,61.37731170654297,47.57042694091797
1,1868085,46.88352966308594,59.247005462646484,138.48329162597656,11.171462059020996
1,1868088,-35.0508918762207,-66.30921936035156,-101.36198425292969,-21.914831161499023
1,1868089,-23.571374893188477,-28.102767944335938,-90.15723419189453,-5.799662113189697
1,1868092,54.81733322143555,21.0694637298584,67.9774398803711,15.79045581817627
1,1868093,11.515189170837402,-0.6106703877449036,37.44646072387695,3.25860333442688
1,1868096,-37.03229904174805,29.171831130981445,20.06475257873535,-3.7692694664001465
1,1868097,-7.407192230224609,-8.640219688415527,5.726823806762695,-7.643815994262695
1,1868100,14.86037540435791,-39.89165115356445,-40.97886657714844,-30.80291175842285
1,1868101,-20.32855224609375,-3.5774760246276855,-79.33721160888672,9.000653266906738
1,1868104,16.03915023803711,38.936580657958984,56.52299880981445,34.19164276123047
1,1868105,57.00875473022461,24.289520263671875,140.61520385742188,0.48692792654037476
1,1868108,-43.24991226196289,-40.81418228149414,-114.18771362304688,-15.072246551513672
1,1868109,-62.839290618896484,-11.769369125366211,-116.58921813964844,-6.911143779754639
1,1868112,31.944120407104492,31.502267837524414,102.7848129272461,1.5468709468841553
1,1868113,29.933069229125977,0.20613087713718414,36.283592224121094,-10.249208450317383
1,1868116,-7.3185038566589355,7.2817206382751465,-24.136672973632812,26.320383071899414
1,1868117,5.386566638946533,6.979649543762207,39.716957092285156,13.898530960083008
1,1868120,-13.06579303741455,-19.13585090637207,-44.08623123168945,-59.91938018798828
1,1868121,-33.352294921875,-20.790754318237305,-108.59388732910156,-21.65929412841797
1,1868124,29.64552116394043,10.044893264770508,93.51254272460938,55.44134521484375
1,1868125,49.55609893798828,32.86444854736328,149.39559936523438,43.18718338012695
1,1868128,-54.536468505859375,-47.560672760009766,-130.0255584716797,-44.61602020263672
1,1868129,-44.417911529541016,-37.590850830078125,-131.4930877685547,-33.915008544921875
1,1868132,62.61866760253906,57.67764663696289,87.96320343017578,26.24734115600586
1,1868133,25.456533432006836,16.215791702270508,60.001121520996094,33.5627326965332
1,1868136,-41.97296905517578,-35.18934631347656,0.6584399938583374,20.357715606689453
1,1868137,-23.7172794342041,-10.154167175292969,-11.148831367492676,-47.398765563964844
1,1868140,2.690059185028076,23.73487091064453,-22.728897094726562,-25.74333953857422
1,1868141,19.619274139404297,13.90584945678711,-25.870891571044922,49.03391647338867
1,1868144,36.49713134765625,7.164413928985596,44.3524055480957,20.782238006591797
1,1868145,-0.7745134234428406,14.89391040802002,85.76606750488281,-10.380001068115234
1,1868148,-45.773189544677734,-39.9805908203125,-120.22686767578125,-29.47657012939453
1,1868149,9.911504745483398,-25.550939559936523,-88.35035705566406,-34.67552947998047
1,1868152,16.82269859313965,32.8166389465332,107.99440002441406,9.08662223815918
1,1868153,-0.992487907409668,16.930082321166992,47.65607833862305,0.6977759599685669
1,1868156,24.188447952270508,15.305116653442383,2.656207323074341,0.6515616178512573
1,1868157,-7.501602649688721,11.287247657775879,11.81376838684082,12.02953815460205
1,1868160,-39.983192443847656,-41.63766860961914,-40.08869934082031,8.576943397521973
1,1868161,-18.8295841217041,-57.475345611572266,-87.98377990722656,25.769287109375
1,1868164,43.49081039428711,17.759544372558594,58.77973175048828,-8.323193550109863
1,1868165,24.582122802734375,49.01737976074219,124.52426147460938,-44.723724365234375
1,1868168,-45.89289855957031,5.281553268432617,-129.7864227294922,26.274316787719727
1,1868170,-19.76169204711914,-12.15298843383789,-101.00833892822266,51.2535514831543
1,1868172,48.634708404541016,4.380075454711914,115.12857055664062,-51.1335334777832
1,1868174,19.656389236450195,-0.8241679072380066,31.489147186279297,-16.149539947509766
1,1868176,-20.849328994750977,-0.1394026130437851,-26.898380279541016,6.036645412445068
1,1868178,1.4599735736846924,13.899235725402832,29.248159408569336,-12.367425918579102
1,1868180,-20.571434020996094,-30.811948776245117,-31.666967391967773,33.203731536865234
1,1868182,-11.27236557006836,-7.287255764007568,-69.54167175292969,-4.915534973144531
1,1868183,31.89752960205078,46.32371520996094,31.557464599609375,-1.2223223447799683
1,1868186,10.651155471801758,11.150917053222656,109.15972900390625,3.0283544063568115
1,1868187,-39.06772232055664,-35.3946647644043,1.187310814857483,-2.8837130069732666
1,1868190,-20.670467376708984,-24.516054153442383,-103.69694519042969,12.136781692504883
1,1868191,30.46637725830078,13.15006160736084,8.43954849243164,-22.887765884399414
1,1868194,8.08395767211914,-5.7856831550598145,55.9749641418457,-9.042125701904297
1,1868197,-1.85960054397583,7.543957233428955,10.211726188659668,22.96418571472168
1,1868197,2.813472032546997,20.008686065673828,17.6363582611084,12.051708221435547
1,1868200,-28.708820343017578,-32.4434928894043,-61.43119430541992,-18.33492088317871
1,1868202,-11.203956604003906,-15.397442817687988,-80.22378540039062,-15.8268461227417
1,1868204,59.72805404663086,39.81217956542969,101.73759460449219,2.8003804683685303
1,1868206,18.971479415893555,23.370153427124023,72.23231506347656,4.289320468902588
1,1868208,-62.39912796020508,-31.86425018310547,-152.33897399902344,34.10579299926758
1,1868210,-11.702269554138184,-23.76124382019043,-54.17300796508789,6.398427486419678
1,1868212,23.027469635009766,-1.0206990242004395,100.63003540039062,-15.71668815612793
1,1868214,7.814263343811035,-9.286659240722656,23.963199615478516,-21.473102569580078
1,1868216,10.61923885345459,41.53099822998047,21.50563621520996,-4.595335960388184
1,1868218,18.579832077026367,58.97368621826172,50.02891159057617,29.820890426635742
1,1868220,-20.885086059570312,-37.68206787109375,-94.89258575439453,-15.774297714233398
1,1868222,-32.34336853027344,-59.617549896240234,-89.30109405517578,-9.645952224731445
1,1868224,29.37049674987793,24.28114891052246,131.22518920898438,10.515408515930176
1,1868226,24.967809677124023,47.249629974365234,102.86766815185547,-3.240508556365967
1,1868228,-48.01901626586914,-27.99100112915039,-153.607421875,-20.051984786987305
1,1868230,-42.41707992553711,-48.43992614746094,-89.1722640991211,-27.16191291809082
1,1868232,61.2894401550293,18.65902328491211,111.3561782836914,10.026106834411621
1,1868234,42.21672439575195,39.574501037597656,41.77336502075195,53.662532806396484
1,1868236,-38.24930191040039,-3.7649314403533936,-7.2979960441589355,6.875638484954834
1,1868238,-21.19999122619629,-25.908721923828125,-3.4743964672088623,-42.50769805908203
1,1868240,-15.869978904724121,4.2174882888793945,-47.893802642822266,11.992929458618164
1,1868242,-0.8046178221702576,-12.575952529907227,-47.799583435058594,3.5219967365264893
1,1868244,57.67860412597656,28.384279251098633,82.38313293457031,5.046750068664551
1,1868246,14.396824836730957,42.658199310302734,94.65361022949219,16.758886337280273
1,1868248,-64.179931640625,-68.6594009399414,-141.34326171875,-1.5518494844436646
1,1868250,-22.31184959411621,-33.84822463989258,-94.42290496826172,15.71167278289795
1,1868252,56.73832702636719,54.22854995727539,115.17245483398438,-29.561098098754883
1,1868254,21.644498825073242,8.213882446289062,35.30464553833008,-21.930986404418945
1,1868256,-19.4287109375,-20.579734802246094,-10.27396297454834,13.999040603637695
1,1868258,19.687931060791016,13.626168251037598,41.81226348876953,-6.985060214996338
1,1868260,-23.787391662597656,23.04024314880371,-51.30760192871094,11.475981712341309
1,1868262,-42.10834884643555,-7.43163537979126,-82.62689971923828,3.9451353549957275
1,1868264,18.16988182067871,-23.794967651367188,86.4755630493164,-32.796783447265625
1,1868266,22.16425323486328,-8.895198822021484,107.31898498535156,7.676307678222656
1,1868268,-7.4344072341918945,-14.515103340148926,-130.82498168945312,59.48618698120117
1,1868270,-1.0518147945404053,12.703701972961426,-85.99602508544922,29.779489517211914
1,1868272,21.958633422851562,15.16936206817627,88.464111328125,-67.9842529296875
1,1868274,-13.88361644744873,-16.993206024169922,14.36114501953125,-74.356201171875
1,1868276,-19.18206214904785,21.998249053955078,23.190217971801758,51.6797981262207
1,1868278,5.349451541900635,12.841623306274414,27.814178466796875,54.8665657043457
1,1868280,-0.08700713515281677,-34.17745590209961,-83.49595642089844,0.8600854277610779
1,1868282,17.682912826538086,1.0887869596481323,-64.99624633789062,-6.3668107986450195
1,1868284,11.436172485351562,11.199766159057617,92.71430969238281,-32.75765609741211
1,1868286,-21.36070442199707,-3.072709560394287,118.22936248779297,-11.899324417114258
1,1868288,-24.083969116210938,5.825160503387451,-104.48670959472656,-17.02336311340332
1,1868290,4.967264175415039,18.912315368652344,-72.97502899169922,18.70855140686035
1,1868292,29.04539680480957,5.46757698059082,81.08549499511719,33.513431549072266
1,1868294,8.89443302154541,-33.301578521728516,-22.691179275512695,-30.66750144958496
1,1868296,-18.365406036376953,19.127201080322266,5.704906940460205,-10.4273042678833
1,1868298,-4.211184024810791,7.368696689605713,44.32502365112305,36.66593933105469
1,1868300,-2.579366683959961,-74.80309295654297,-57.18986892700195,36.419769287109375
1,1868302,-10.206878662109375,-2.364593029022217,-87.1938247680664,-35.2765007019043
1,1868304,45.36332702636719,101.03435516357422,101.30345153808594,-49.50877380371094
1,1868306,26.528564453125,38.723751068115234,142.95083618164062,19.524850845336914
1,1868308,-69.14910125732422,-90.2528305053711,-171.68199157714844,24.454992294311523
1,1868310,-32.68589782714844,-54.72102737426758,-104.75040435791016,-23.356128692626953
1,1868312,47.57781982421875,78.0550537109375,145.52011108398438,-0.6473900675773621
1,1868314,6.255186557769775,36.204689025878906,25.5656681060791,31.841175079345703
1,1868316,-10.867510795593262,-60.134788513183594,-40.17885208129883,4.1974196434021
1,1868318,14.313344955444336,-7.3190155029296875,31.313209533691406,-6.255541801452637
1,1868320,-31.714841842651367,-1.6104234457015991,-39.36840057373047,-20.391122817993164
1,1868322,-21.62082862854004,-33.39115524291992,-99.61861419677734,-18.373384475708008
1,1868324,32.02922058105469,39.291236877441406,95.33907318115234,7.166682720184326
1,1868326,39.64872741699219,52.29505157470703,151.6569061279297,4.317911148071289
1,1868328,-7.743398666381836,-35.79240417480469,-141.43080139160156,23.6179141998291
1,1868330,-35.98851013183594,-17.755393981933594,-90.3525619506836,23.139646530151367
1,1868332,4.083106994628906,31.436473846435547,112.48410034179688,-32.534610748291016
1,1868334,4.892868518829346,-6.157130241394043,8.317474365234375,-20.402769088745117
1,1868336,13.095196723937988,-2.603425979614258,-2.8443455696105957,17.45538330078125
1,1868338,0.07118728756904602,8.295127868652344,-0.5770171880722046,15.671100616455078
1,1868340,-17.483238220214844,-20.523117065429688,-63.629493713378906,21.899438858032227
1,1868342,4.8591508865356445,-25.627281188964844,-45.900917053222656,-28.112594604492188
1,1868344,-9.921223640441895,11.426847457885742,86.52828979492188,-60.722713470458984
1,1868346,18.181283950805664,40.294368743896484,114.67278289794922,35.84941101074219
1,1868348,-0.16317886114120483,-5.681557655334473,-141.2060089111328,36.79737854003906
1,1868350,-16.936887741088867,-28.20762062072754,-72.49217987060547,-30.330984115600586
1,1868352,26.02648162841797,4.882838726043701,113.04975891113281,5.398765563964844
1,1868354,-6.839766979217529,0.24919123947620392,-3.8123323917388916,38.794105529785156
1,1868356,5.988420009613037,9.228982925415039,4.780843734741211,-20.510223388671875
1,1868358,11.15302848815918,8.120532989501953,36.68413162231445,-44.25898361206055
1,1868360,-55.45780944824219,-23.51508140563965,-84.77082061767578,5.94113826751709
1,1868362,-1.320534586906433,3.8278989791870117,-90.38416290283203,0.6051785945892334
1,1868364,52.84748458862305,49.83230972290039,143.9491424560547,49.8939208984375
1,1868366,-3.019071578979492,12.627214431762695,137.7576904296875,24.210769653320312
1,1868368,-13.372746467590332,-82.20277404785156,-158.1039276123047,-61.19092559814453
1,1868370,-21.810306549072266,-77.67436218261719,-97.40708923339844,0.21586033701896667
1,1868372,19.854896545410156,99.61470031738281,114.4921875,36.098426818847656
1,1868374,49.26002502441406,111.4803466796875,28.894529342651367,-10.718567848205566
1,1868375,-53.0828971862793,-74.22710418701172,-64.94254302978516,-22.195730209350586
1,1868378,-21.149141311645508,-86.16844177246094,-3.6450815200805664,24.071670532226562
1,1868379,37.012569427490234,-7.301543712615967,5.757903575897217,-5.582427024841309
1,1868382,-23.042781829833984,34.7596549987793,-41.05184555053711,-29.34322738647461
1,1868383,6.61855936050415,43.35846710205078,18.167049407958984,9.065827369689941
1,1868386,43.14741516113281,30.8806095123291,112.19271850585938,33.46295166015625
1,1868387,-7.857410907745361,5.602239608764648,13.012979507446289,8.086410522460938
1,1868390,-48.086368560791016,-58.88825988769531,-125.22136688232422,-56.806400299072266
1,1868391,-22.00187110900879,-45.920780181884766,-20.30459976196289,-8.682687759399414
1,1868394,31.78049087524414,55.986961364746094,61.39209747314453,30.28728675842285
1,1868395,28.055824279785156,43.48265838623047,3.6679632663726807,11.092853546142578
1,1868398,-3.8059403896331787,-16.855010986328125,40.47898483276367,16.170766830444336
1,1868399,-25.159286499023438,-27.48026466369629,-29.061527252197266,-24.877199172973633
1,1868402,-30.1319580078125,-41.395721435546875,-123.05274963378906,-25.893754959106445
1,1868403,36.45096206665039,15.421611785888672,49.91571044921875,26.179397583007812
1,1868406,32.344268798828125,33.021575927734375,124.57539367675781,19.956010818481445
1,1868407,-44.78425979614258,-18.792469024658203,-30.124353408813477,-6.247900009155273
1,1868410,-16.324695587158203,-33.00871658325195,-83.42097473144531,-27.502811431884766
1,1868411,28.272075653076172,-1.8471238613128662,30.677406311035156,-25.252479553222656
1,1868414,-2.646486282348633,51.720619201660156,28.69806671142578,38.32786178588867
1,1868415,-20.4160099029541,0.3337569236755371,-46.19193649291992,1.636365532875061
1,1868418,38.504722595214844,-23.920324325561523,49.11551284790039,-17.132356643676758
1,1868419,12.3959321975708,4.930930137634277,-3.7180380821228027,41.483062744140625
1,1868422,-40.277042388916016,7.748764991760254,-60.65386199951172,-15.810161590576172
1,1868426,0.21058495342731476,33.16397476196289,91.43260955810547,-21.168689727783203
1,1868426,13.471911430358887,-13.484914779663086,24.19809341430664,5.405374050140381
1,1868427,-2.509294271469116,-3.3392386436462402,-76.48001861572266,15.163637161254883
1,1868430,1.1712125539779663,17.379213333129883,-20.470674514770508,-2.016190767288208
1,1868431,12.19216251373291,-18.348026275634766,17.996578216552734,-14.678581237792969
1,1868434,-8.954940795898438,-12.736328125,20.929780960083008,37.52039337158203
1,1868435,-15.11976146697998,-0.06332331150770187,-1.3435122966766357,-11.915706634521484
1,1868438,31.188154220581055,15.841267585754395,19.750446319580078,-36.07084274291992
1,1868439,3.8253488540649414,-24.457395553588867,-51.63645935058594,23.271987915039062
1,1868442,-35.24882888793945,-13.364795684814453,-65.95487213134766,-2.9268946647644043
1,1868443,34.888221740722656,49.74534606933594,76.5151596069336,-15.609941482543945
1,1868446,10.52651309967041,-22.68707275390625,37.98881912231445,24.12173080444336
1,1868447,-49.13766860961914,-40.8681526184082,-39.75852966308594,-5.480362415313721
1,1868450,3.3308136463165283,43.091678619384766,-34.91636276245117,-18.74019432067871
1,1868451,16.645099639892578,13.094655990600586,23.339475631713867,6.986038684844971
1,1868454,-1.1943929195404053,-13.844219207763672,68.17122650146484,-5.985021591186523
1,1868455,0.7527767419815063,9.039164543151855,-18.603466033935547,-3.6344549655914307
1,1868458,8.78133773803711,1.549378514289856,-5.439454078674316,26.570682525634766
1,1868459,-2.9425606727600098,-28.6298828125,-25.016742706298828,-0.5467003583908081
1,1868462,-27.93943214416504,-42.90895462036133,-70.97628784179688,-13.739680290222168
1,1868463,11.721693992614746,35.34834671020508,87.93608856201172,10.268970489501953
1,1868466,15.93745231628418,58.45699691772461,95.52368927001953,-3.8343424797058105
1,1868467,-12.29647159576416,-35.404537200927734,-83.47598266601562,-0.35044723749160767
1,1868470,2.516261339187622,-43.268341064453125,-86.09696960449219,23.249160766601562
1,1868471,-4.6968584060668945,6.733282566070557,36.516727447509766,10.609715461730957
1,1868474,7.484814643859863,43.231605529785156,53.53415298461914,-35.41991424560547
1,1868475,-3.079402208328247,31.292776107788086,-13.506143569946289,-15.110313415527344
1,1868478,-16.820537567138672,-40.011592864990234,2.137272357940674,10.437355995178223
1,1868479,8.964688301086426,-4.75507116317749,-33.17205810546875,4.287461757659912
1,1868482,22.83016586303711,28.20030403137207,-69.77552032470703,6.64301872253418
1,1868483,37.61262512207031,-19.3027286529541,94.53878021240234,-13.950567245483398
1,1868486,-35.84202194213867,-7.655439376831055,67.02310943603516,3.2183115482330322
1,1868487,-48.888153076171875,13.772007942199707,-69.0528793334961,-2.0265042781829834
1,1868490,37.07697677612305,-17.3348388671875,-65.2246322631836,-27.952653884887695
1,1868491,4.36966609954834,-20.187009811401367,-2.064393997192383,39.72599792480469
1,1868494,-17.817276000976562,20.540525436401367,87.05199432373047,30.898332595825195
1,1868495,13.995596885681152,10.422337532043457,12.123560905456543,-45.61257553100586
1,1868498,3.058229446411133,-5.580482482910156,-5.589962482452393,-2.4717626571655273
1,1868499,-17.444238662719727,17.123252868652344,-15.515572547912598,23.968835830688477
1,1868502,-6.3499250411987305,-23.5897274017334,-79.94831085205078,-11.169890403747559
1,1868503,24.54758071899414,-18.43366813659668,59.75808334350586,-14.452733039855957
1,1868506,-11.981091499328613,41.59458923339844,81.18721771240234,17.6876220703125
1,1868507,-8.157272338867188,-4.399887561798096,-53.10145950317383,20.225826263427734
1,1868510,27.98862648010254,-30.77947425842285,-73.88666534423828,-18.56817626953125
1,1868511,-4.184721946716309,-8.374667167663574,18.366479873657227,-22.116065979003906
1,1868514,-13.409689903259277,22.002473831176758,56.21355438232422,32.58549118041992
1,1868515,-9.317206382751465,31.692188262939453,-23.854324340820312,16.016138076782227
1,1868518,7.1216864585876465,-5.628963947296143,16.454721450805664,-48.1702766418457
1,1868519,-7.906296730041504,-20.586658477783203,3.5082755088806152,-5.8801727294921875
1,1868522,-16.756227493286133,-2.0102758407592773,-80.28783416748047,25.795217514038086
1,1868523,39.02934646606445,9.035476684570312,59.07014083862305,-4.791049957275391
1,1868526,17.565378189086914,-18.461999893188477,52.80867004394531,13.467904090881348
1,1868527,-34.1182975769043,-18.59916877746582,-85.70591735839844,6.962291240692139
1,1868530,-4.6202239990234375,9.348876953125,-40.263038635253906,-55.04848861694336
1,1868531,34.10552978515625,47.0346794128418,46.2479248046875,-6.8179850578308105
1,1868534,2.0325119495391846,15.529308319091797,75.74320983886719,50.02385330200195
1,1868535,-19.28237533569336,-60.2154426574707,5.984472274780273,-9.907671928405762
1,1868538,10.841583251953125,7.815897464752197,-35.80620193481445,10.421690940856934
1,1868539,-21.753530502319336,28.425886154174805,-59.577964782714844,40.31257629394531
1,1868542,-16.142459869384766,-28.871667861938477,-44.95424270629883,-40.95228576660156
1,1868543,35.7159538269043,18.88918113708496,102.64582824707031,-25.431594848632812
1,1868546,17.750438690185547,29.392831802368164,88.86795043945312,29.686054229736328
1,1868547,-35.94643783569336,-9.941216468811035,-84.91846466064453,-1.790724754333496
1,1868550,-34.75337219238281,-45.19802474975586,-90.94794464111328,-17.73061180114746
1,1868551,24.8101863861084,-22.04644775390625,29.271120071411133,-7.193543434143066
1,1868554,19.86956214904785,19.98394203186035,41.06267547607422,5.618710041046143
1,1868555,-15.042415618896484,-2.891354560852051,-3.29616117477417,6.910463809967041
1,1868558,19.69492530822754,41.80454635620117,46.242462158203125,-8.335171699523926
1,1868559,2.3060030937194824,-5.227413177490234,-15.792543411254883,6.749755859375
1,1868562,-32.38572311401367,-53.564273834228516,-89.74141693115234,-0.3043993413448334
1,1868563,40.065093994140625,52.82338333129883,64.87971496582031,-4.84739875793457
1,1868566,-0.10440430790185928,9.531377792358398,57.44758224487305,27.74347686767578
1,1868567,-46.99888229370117,-58.21581268310547,-74.89543914794922,-4.292286396026611
1,1868570,20.128477096557617,31.393512725830078,-32.459022521972656,-13.746846199035645
1,1868571,30.47536277770996,45.630035400390625,53.293025970458984,12.512181282043457
1,1868574,6.91527795791626,-29.355791091918945,14.85258960723877,-15.760221481323242
1,1868575,-34.82097625732422,-2.2932028770446777,-35.11029052734375,-0.8938137292861938
1,1868578,-13.729559898376465,34.12995529174805,52.6222038269043,31.32126235961914
1,1868579,29.282011032104492,-33.6528434753418,-30.795513153076172,1.693433165550232
1,1868582,-15.517692565917969,-49.36426544189453,-93.36972045898438,-28.91211700439453
1,1868583,-1.0309994220733643,26.35848045349121,94.56736755371094,-20.19610023498535
1,1868586,17.36081314086914,22.647674560546875,78.57434844970703,4.501956939697266
1,1868587,-27.615928649902344,-30.17272186279297,-72.6294174194336,6.973544597625732
1,1868590,-8.224499702453613,-6.458759784698486,-82.93636322021484,9.151735305786133
1,1868591,12.538605690002441,43.252891540527344,25.299297332763672,14.161751747131348
1,1868594,10.032299995422363,3.6857993602752686,75.62152862548828,9.191126823425293
1,1868595,7.190009593963623,-46.34699249267578,-13.890684127807617,-26.28089141845703
1,1868598,-4.881698131561279,29.139719009399414,21.455080032348633,-12.850722312927246
