Aktueller Finger,timestamp_ms,sensor_0,sensor_1,sensor_2,sensor_3
0,1772559,5.670147895812988,8.813791275024414,154.78269958496094,2.6083829402923584
0,1772559,39.60124206542969,25.44513702392578,133.66148376464844,42.96192932128906
0,1772562,-41.31876754760742,56.69377136230469,0.20250679552555084,-4.518661022186279
0,1772564,-47.46437454223633,0.1970306783914566,29.962284088134766,12.071649551391602
0,1772566,18.081228256225586,-35.24317932128906,207.8378448486328,20.212583541870117
0,1772568,11.075864791870117,38.93402099609375,187.92532348632812,-20.144424438476562
0,1772570,-41.049293518066406,-87.92855072021484,-351.85443115234375,-9.085784912109375
0,1772572,-17.087491989135742,-96.76502227783203,-326.9567565917969,-25.381141662597656
0,1772574,49.88167190551758,117.42781066894531,123.91461181640625,-10.676380157470703
0,1772576,20.089550018310547,14.732426643371582,13.851347923278809,38.35963821411133
0,1772578,-30.28230094909668,-33.91260528564453,-2.3592898845672607,-0.9404752254486084
0,1772580,-1.799580454826355,19.315940856933594,106.05078887939453,-8.335577011108398
0,1772582,-10.336413383483887,2.949828863143921,42.702980041503906,7.0181732177734375
0,1772584,-8.43682861328125,26.83500862121582,-4.318875312805176,-11.956613540649414
0,1772586,51.37491989135742,21.263408660888672,156.95066833496094,9.450429916381836
0,1772588,-2.1779427528381348,43.81385040283203,219.4316864013672,3.1103057861328125
0,1772590,-55.92832565307617,-60.48534393310547,-289.883056640625,-18.30156898498535
0,1772592,12.809216499328613,-92.27114868164062,-301.2376403808594,11.337817192077637
0,1772594,42.15237808227539,46.63163757324219,103.30337524414062,9.902649879455566
0,1772596,-21.84345817565918,6.515223503112793,30.304134368896484,-16.156475067138672
0,1772598,-10.917675971984863,8.323637008666992,30.348464965820312,1.887210726737976
0,1772600,34.471351623535156,48.63499450683594,64.8126449584961,6.322542190551758
0,1772602,-16.93368911743164,-28.14885139465332,-9.480857849121094,-19.43514060974121
0,1772604,-20.981945037841797,-44.51203536987305,-48.857608795166016,12.433756828308105
0,1772605,34.70481872558594,21.844139099121094,12.137657165527344,7.184758186340332
0,1772608,-26.157894134521484,66.5940933227539,220.1353759765625,-10.221841812133789
0,1772609,-47.72380828857422,-16.600963592529297,43.157711029052734,-5.311132431030273
0,1772612,47.25600051879883,-65.93256378173828,-302.8851013183594,-3.249652147293091
0,1772613,23.731361389160156,-27.30990982055664,-79.3615493774414,14.169920921325684
0,1772616,-6.024960994720459,18.70226287841797,144.37086486816406,1.9617390632629395
0,1772617,13.378089904785156,13.612056732177734,-27.12122344970703,16.463462829589844
0,1772620,-29.09963607788086,19.469602584838867,-1.7581522464752197,5.83386754989624
0,1772621,-19.54368019104004,24.054729461669922,37.61320877075195,-34.623844146728516
0,1772624,18.355304718017578,-59.625404357910156,-63.080833435058594,-0.4361738860607147
0,1772625,36.077335357666016,46.0714111328125,34.259891510009766,17.74754524230957
0,1772628,-18.24872589111328,66.50530242919922,171.0849609375,13.317314147949219
0,1772629,-66.74626159667969,-79.21353912353516,20.364768981933594,8.394986152648926
0,1772632,29.862417221069336,-41.565589904785156,-254.61639404296875,-22.913389205932617
0,1772633,35.516151428222656,23.879566192626953,-65.3117904663086,-11.006271362304688
0,1772637,1.5404337644577026,56.58950424194336,160.79190063476562,12.032110214233398
0,1772638,12.767182350158691,5.7231316566467285,9.9545316696167,9.746211051940918
0,1772640,-32.33489227294922,-44.56830596923828,27.150209426879883,-19.296913146972656
0,1772642,-9.271601676940918,0.8518822193145752,9.1691255569458,-23.467422485351562
0,1772644,22.091197967529297,0.16412803530693054,-119.37879180908203,17.473146438598633
0,1772646,28.638687133789062,-4.783957004547119,54.67341995239258,8.08447265625
0,1772648,0.33393195271492004,31.315242767333984,134.9830322265625,-0.2625349462032318
0,1772650,-63.311180114746094,-10.626947402954102,-93.48955535888672,-10.818129539489746
0,1772652,-12.261909484863281,-76.21046447753906,-177.47019958496094,-5.753003120422363
0,1772654,45.75754165649414,-6.761891841888428,32.07815170288086,37.44913864135742
0,1772656,-0.869803786277771,53.608558654785156,119.10638427734375,-5.449321269989014
0,1772658,-11.300518035888672,39.1259880065918,12.96706485748291,-15.23836898803711
0,1772660,-7.943304538726807,9.682320594787598,54.14945602416992,4.659637451171875
0,1772662,-24.5457820892334,-70.02133178710938,-23.652807235717773,-0.5916662812232971
0,1772664,20.266204833984375,-23.074825286865234,-147.88235473632812,-25.640043258666992
0,1772666,53.50356674194336,101.36227416992188,80.52006530761719,-0.14698787033557892
0,1772668,-9.722068786621094,37.13693618774414,178.60076904296875,47.591033935546875
0,1772670,-66.1688461303711,-68.52536010742188,-81.07881164550781,-12.802145004272461
0,1772672,23.308900833129883,-47.475494384765625,-212.9772491455078,-6.619051456451416
0,1772674,51.201812744140625,9.801186561584473,8.991058349609375,1.857342004776001
0,1772676,-43.97502517700195,26.688941955566406,149.88299560546875,-22.424415588378906
0,1772678,-24.90843391418457,5.4743123054504395,-6.094166278839111,23.50904083251953
0,1772680,41.821468353271484,1.8055484294891357,17.921424865722656,7.967885494232178
0,1772682,3.109057664871216,-12.418344497680664,9.0028076171875,-15.687870979309082
0,1772684,-21.55789566040039,-26.58415412902832,-123.521728515625,7.339676856994629
0,1772686,46.68906021118164,31.08005714416504,82.97288513183594,-1.896738886833191
0,1772688,-4.054042816162109,37.86910629272461,142.35337829589844,15.16466999053955
0,1772690,-61.03300476074219,-41.47462844848633,-111.85147094726562,-1.8944478034973145
0,1772692,5.128006935119629,-35.343448638916016,-153.4753875732422,-51.093833923339844
0,1772694,18.572669982910156,25.272001266479492,39.028221130371094,-0.5958606600761414
0,1772696,21.057998657226562,27.36919593811035,111.20057678222656,17.888500213623047
0,1772698,8.108351707458496,0.518255352973938,10.767088890075684,8.144740104675293
0,1772700,-22.79616928100586,10.073988914489746,25.21234893798828,35.757179260253906
0,1772702,-4.113244533538818,-5.282340049743652,-53.0032958984375,-17.947416305541992
0,1772704,15.667312622070312,-49.33879470825195,-127.85667419433594,-8.094159126281738
0,1772706,19.339691162109375,23.251062393188477,100.5522232055664,7.392847537994385
0,1772708,-33.92116165161133,59.29696273803711,152.27557373046875,-23.639324188232422
0,1772710,-38.69914245605469,-23.920841217041016,-75.59130096435547,12.108991622924805
0,1772712,46.40264129638672,-39.75383377075195,-156.49844360351562,4.427687168121338
0,1772714,11.895243644714355,-2.2891883850097656,18.62775421142578,-5.824306964874268
0,1772716,-13.591004371643066,4.053533554077148,106.84693145751953,-6.245846271514893
0,1772718,6.2059431076049805,10.027709007263184,-23.223167419433594,-3.5257961750030518
0,1772720,-16.87628746032715,9.5844087600708,30.28529167175293,-0.9344495534896851
0,1772722,-11.808505058288574,-8.55221939086914,3.4338436126708984,1.8247812986373901
0,1772724,-13.057698249816895,-9.422906875610352,-152.51248168945312,6.96163272857666
0,1772726,44.398616790771484,21.920026779174805,93.79373168945312,-7.582281589508057
0,1772728,19.817344665527344,5.309748649597168,167.049072265625,13.972822189331055
0,1772731,-62.17985534667969,-83.71345520019531,-212.9226837158203,24.15802764892578
0,1772731,-5.243144989013672,-10.278529167175293,-86.15924072265625,-14.781569480895996
0,1772734,51.14181900024414,82.187744140625,199.4800567626953,-1.3877005577087402
0,1772735,0.08962415903806686,-0.5273272395133972,-14.824042320251465,17.480981826782227
0,1772738,-23.809907913208008,-3.3079731464385986,-33.49018478393555,-19.659034729003906
0,1772739,22.38766098022461,15.653955459594727,4.8325982093811035,-24.875347137451172
0,1772742,-18.139408111572266,-27.569095611572266,-78.334228515625,6.2383270263671875
0,1772743,-21.04701042175293,-28.098012924194336,-60.89601516723633,41.27439880371094
0,1772746,38.785560607910156,12.25503158569336,130.21084594726562,-25.865737915039062
0,1772747,40.125648498535156,57.8270149230957,248.95982360839844,-42.59311294555664
0,1772750,-41.56903839111328,-7.777469158172607,-155.06324768066406,40.145145416259766
0,1772751,-66.05988311767578,-49.70021057128906,-215.7196807861328,27.998703002929688
0,1772754,54.0096321105957,35.75236129760742,84.27261352539062,-12.138175010681152
0,1772755,21.26677703857422,-4.7472243309021,64.19296264648438,-31.994617462158203
0,1772758,-34.815067291259766,-23.589527130126953,52.24214553833008,11.998771667480469
0,1772759,27.04905128479004,55.25676727294922,-15.981223106384277,34.39472961425781
0,1772762,-25.358219146728516,10.054364204406738,-79.42089080810547,-30.47563934326172
0,1772763,-14.135141372680664,-46.27473831176758,-86.43544006347656,-16.71729850769043
0,1772766,48.41069793701172,10.423332214355469,64.8713150024414,1.3754141330718994
0,1772767,0.4683014154434204,25.130619049072266,217.03338623046875,-24.824066162109375
0,1772770,-28.223690032958984,-86.63245391845703,-130.36813354492188,29.103727340698242
0,1772771,-19.25551986694336,-19.912660598754883,-173.76739501953125,23.282604217529297
0,1772774,32.46620178222656,94.59878540039062,108.5318374633789,-28.681171417236328
0,1772775,1.235399842262268,15.798783302307129,43.6920280456543,3.899909734725952
0,1772778,-55.06576919555664,-21.032756805419922,12.893925666809082,3.335322141647339
0,1772779,23.57059669494629,-27.768634796142578,0.9095706939697266,-0.7807372212409973
0,1772782,24.31971549987793,-35.92972946166992,-91.24613189697266,12.276891708374023
0,1772783,-12.31240177154541,-19.074182510375977,-94.40137481689453,11.608990669250488
0,1772786,40.87797927856445,48.290096282958984,115.6859359741211,39.76536560058594
0,1772787,15.15522289276123,72.3213119506836,219.38096618652344,-15.797685623168945
0,1772790,-62.41841125488281,-58.68002700805664,-162.2708282470703,-74.70524597167969
0,1772791,-7.4918718338012695,-32.71190643310547,-151.38182067871094,-20.717601776123047
0,1772794,42.193206787109375,74.32923889160156,129.21286010742188,55.75240707397461
0,1772795,-13.6926908493042,-20.514774322509766,13.796407699584961,41.5953254699707
0,1772798,2.4482011795043945,-40.842369079589844,12.128491401672363,-56.920433044433594
0,1772799,6.770658493041992,23.365488052368164,26.862619400024414,-15.929537773132324
0,1772802,-48.084983825683594,-27.436609268188477,-63.22258377075195,66.30148315429688
0,1772803,21.718759536743164,-17.083120346069336,-128.34027099609375,-4.530237674713135
0,1772806,58.066890716552734,76.0425796508789,89.84996795654297,-40.45882034301758
0,1772807,-36.2341423034668,37.198974609375,251.66351318359375,-14.237872123718262
0,1772810,-34.567012786865234,-70.42843627929688,-175.83499145507812,-0.9546844959259033
0,1772811,26.87344741821289,-45.50550079345703,-193.1610870361328,29.503849029541016
0,1772814,6.702324867248535,5.441506385803223,104.80735778808594,17.875391006469727
0,1772815,-13.843310356140137,25.93635368347168,58.31576156616211,-6.735391139984131
0,1772818,1.3430557250976562,56.84044647216797,73.99593353271484,-22.069297790527344
0,1772819,-14.423645973205566,-16.904878616333008,2.686833620071411,-16.082128524780273
0,1772822,-3.375047445297241,-46.14769744873047,-96.18810272216797,0.14084498584270477
0,1772823,21.387142181396484,-11.659953117370605,-88.35845184326172,17.261335372924805
0,1772826,10.299528121948242,16.503599166870117,63.55445098876953,44.42232131958008
0,1772827,-3.2963292598724365,80.0547866821289,211.6136932373047,-33.24609375
0,1772830,-11.189249038696289,-55.89253616333008,-147.78480529785156,-47.41303634643555
0,1772831,4.132992267608643,-93.96627807617188,-185.15072631835938,64.02220153808594
0,1772834,10.348907470703125,55.469852447509766,133.6446533203125,17.655210494995117
0,1772836,9.413348197937012,28.769134521484375,47.40764617919922,-72.23230743408203
0,1772838,-16.049203872680664,11.909968376159668,51.699371337890625,19.88327407836914
0,1772840,-8.384418487548828,27.53571319580078,66.0914306640625,57.14354705810547
0,1772842,14.765450477600098,-32.090457916259766,-134.1846466064453,-24.281293869018555
0,1772843,-29.20556640625,-48.4351806640625,-179.85853576660156,-32.030731201171875
0,1772846,9.593814849853516,39.19955062866211,136.09912109375,-5.271274566650391
0,1772847,39.61124038696289,43.88700866699219,250.64210510253906,-15.004753112792969
0,1772850,-39.15595245361328,-52.80059051513672,-198.77545166015625,12.781988143920898
0,1772851,-40.23154830932617,-24.529481887817383,-164.72132873535156,53.06435012817383
0,1772854,45.798255920410156,43.447715759277344,159.95687866210938,-6.40958309173584
0,1772855,35.36872100830078,30.233800888061523,46.27747344970703,-23.377342224121094
0,1772858,-26.015859603881836,-20.261991500854492,-0.28572535514831543,7.227932929992676
0,1772859,-5.556214809417725,-9.459314346313477,-15.249131202697754,-23.076189041137695
0,1772862,-6.098217487335205,-38.177181243896484,-42.463863372802734,-18.514795303344727
0,1772863,-6.872893333435059,-50.755165100097656,-69.25830841064453,40.68330764770508
0,1772866,17.30042266845703,87.18923950195312,38.4821891784668,11.597246170043945
0,1772867,-1.4209386110305786,77.63799285888672,202.9324951171875,-33.74717330932617
0,1772870,-15.860175132751465,-78.99440002441406,-130.13548278808594,11.395315170288086
0,1772871,-10.104459762573242,-61.14107131958008,-195.4765625,2.822298765182495
0,1772874,19.30841827392578,46.41214370727539,118.24485778808594,-21.882564544677734
0,1772875,27.275779724121094,27.95830535888672,86.00088500976562,16.460420608520508
0,1772878,-16.384809494018555,8.487554550170898,12.229520797729492,25.23406219482422
0,1772879,-6.33818244934082,-1.3777443170547485,-8.067008018493652,17.46619987487793
0,1772882,1.4636716842651367,-50.069278717041016,-85.31001281738281,-19.977514266967773
0,1772883,-27.227333068847656,-26.89494514465332,-127.20589447021484,-70.70722961425781
0,1772886,36.514041900634766,39.405975341796875,142.5716094970703,16.142580032348633
0,1772887,31.359148025512695,35.933197021484375,241.68731689453125,48.776100158691406
0,1772890,-75.623779296875,-26.21057891845703,-197.14108276367188,-29.545581817626953
0,1772891,-22.66968536376953,-28.968875885009766,-150.82228088378906,-3.778658151626587
0,1772894,74.29228210449219,29.144298553466797,140.05520629882812,17.429851531982422
0,1772895,3.686753511428833,33.954750061035156,37.00627517700195,-10.836824417114258
0,1772898,-51.683101654052734,-28.86880111694336,-29.494844436645508,2.8984272480010986
0,1772899,24.206483840942383,-21.584821701049805,-13.808980941772461,33.948341369628906
0,1772902,30.813072204589844,26.990966796875,3.2561676502227783,26.592676162719727
0,1772903,-34.38334655761719,-26.535099029541016,-94.93209838867188,-23.315000534057617
0,1772906,6.399877071380615,-0.1202172115445137,60.43720245361328,-48.97331237792969
0,1772907,34.46314239501953,66.33183288574219,236.1602325439453,-13.533577919006348
0,1772910,-27.253705978393555,-13.74499225616455,-184.8878173828125,34.29336166381836
0,1772911,-19.434444427490234,-31.381256103515625,-190.08157348632812,50.5258674621582
0,1772914,45.62434005737305,-2.4918107986450195,157.84158325195312,-11.940032005310059
0,1772915,11.574036598205566,-14.545170783996582,53.989620208740234,-77.65677642822266
0,1772918,-55.49409866333008,0.26378077268600464,-50.10688781738281,4.620423316955566
0,1772919,-19.94487953186035,20.337848663330078,17.501089096069336,31.117521286010742
0,1772922,26.267902374267578,-4.513011932373047,-5.5261125564575195,13.230451583862305
0,1772923,13.032386779785156,-43.34674835205078,-129.7337188720703,23.520986557006836
0,1772926,4.859418869018555,27.169965744018555,86.319580078125,-48.57020568847656
0,1772927,-4.3901519775390625,54.672943115234375,247.20004272460938,-21.976463317871094
0,1772930,-38.88981246948242,-71.10140228271484,-197.8856201171875,22.8839054107666
0,1772931,7.290492534637451,-8.467144966125488,-180.45567321777344,35.36494064331055
0,1772934,49.53019714355469,65.59457397460938,187.38604736328125,11.501672744750977
0,1772935,20.11912727355957,-19.997386932373047,47.11577224731445,-60.9453125
0,1772938,-26.104867935180664,9.42260456085205,-41.79085922241211,25.61435317993164
0,1772939,-36.20869064331055,-15.484373092651367,-1.6603294610977173,9.192420959472656
0,1772942,2.0570101737976074,-22.95785140991211,-35.95519256591797,-46.5610466003418
0,1772943,-1.4936907291412354,-7.073110580444336,-92.71344757080078,63.9000129699707
0,1772946,10.04089069366455,16.92495346069336,98.058349609375,25.87258529663086
0,1772947,-9.648193359375,71.268310546875,207.11508178710938,-26.056129455566406
0,1772950,-23.504650115966797,-37.88267135620117,-238.18125915527344,-9.857044219970703
0,1772951,16.659616470336914,-56.25870132446289,-171.24636840820312,-10.78530216217041
0,1772954,38.51533889770508,8.411113739013672,200.37747192382812,-3.702916145324707
0,1772955,20.277902603149414,40.47751235961914,89.51033782958984,-9.037886619567871
0,1772958,-50.46019744873047,28.6195068359375,-22.81816291809082,-7.570841312408447
0,1772959,-20.93809700012207,-37.59379959106445,-29.43370819091797,-9.40603256225586
0,1772962,38.9940071105957,-9.37983512878418,-22.199981689453125,23.002044677734375
0,1772963,14.307656288146973,-9.345126152038574,-107.33148193359375,-2.326547145843506
0,1772966,-4.948009490966797,20.603097915649414,91.59739685058594,4.776316165924072
0,1772969,-30.545047760009766,-8.895516395568848,103.09715270996094,19.476118087768555
0,1772969,9.058484077453613,-51.71354675292969,-190.67733764648438,-45.55390167236328
0,1772972,40.3711051940918,38.42627716064453,-0.6572269797325134,23.339479446411133
0,1772974,-26.525991439819336,-1.8965810537338257,83.88457489013672,52.13040542602539
0,1772976,-11.211309432983398,11.579597473144531,55.66132736206055,-45.01158142089844
0,1772978,14.842754364013672,34.06383514404297,27.120838165283203,-16.373104095458984
0,1772980,-21.222789764404297,-7.873950004577637,16.70625877380371,32.36408996582031
0,1772982,-13.892266273498535,-32.39267349243164,-42.62881088256836,-27.327219009399414
0,1772984,28.957515716552734,-15.54465389251709,-140.60292053222656,-11.015169143676758
0,1772986,29.83513641357422,56.730194091796875,113.33069610595703,41.186439514160156
0,1772988,-12.244169235229492,-1.1306697130203247,115.73023986816406,6.113215446472168
0,1772990,-15.378993034362793,-24.923606872558594,-144.61810302734375,-26.836549758911133
0,1772992,-6.3133625984191895,-18.272743225097656,-142.10411071777344,-16.258813858032227
0,1772994,-0.47821545600891113,-15.474591255187988,75.41372680664062,8.695379257202148
0,1772996,8.102622985839844,54.49702453613281,136.04112243652344,10.744537353515625
0,1772998,4.350265979766846,25.81241226196289,-7.843266010284424,-8.428255081176758
0,1773000,-32.43364715576172,-33.061885833740234,20.71469497680664,-28.956192016601562
0,1773002,-25.259014129638672,-39.00395965576172,-58.24721908569336,21.748437881469727
0,1773004,56.001956939697266,-23.256919860839844,-152.17813110351562,37.23877716064453
0,1773006,44.842803955078125,38.10708236694336,139.378173828125,-37.270198822021484
0,1773008,-54.72270965576172,55.12619400024414,148.36654663085938,-1.2491493225097656
0,1773010,-62.69303894042969,-41.7310791015625,-134.91477966308594,34.675628662109375
0,1773012,32.60342788696289,-63.672176361083984,-106.72174072265625,-17.994739532470703
0,1773014,47.84941482543945,53.39278793334961,50.13273620605469,-0.10593540221452713
0,1773016,7.89658260345459,46.42564010620117,78.35266876220703,29.95791244506836
0,1773018,-14.19639778137207,-46.02116012573242,-5.5496826171875,-18.580129623413086
0,1773020,-32.63225173950195,-2.141871452331543,32.68792724609375,-13.74721908569336
0,1773022,16.184110641479492,-0.009551621042191982,-38.95266342163086,19.98026466369629
0,1773024,33.178199768066406,-21.13508415222168,-142.1185760498047,-16.565710067749023
0,1773026,1.4049535989761353,50.19083023071289,142.2379608154297,-8.610660552978516
0,1773028,-23.780506134033203,14.845632553100586,126.09654998779297,2.982726573944092
0,1773030,-33.88166427612305,-56.9928092956543,-166.6719512939453,-16.586666107177734
0,1773032,24.931501388549805,-16.58721160888672,-109.7409439086914,5.1145148277282715
0,1773034,25.609966278076172,42.069740295410156,115.99636840820312,26.686365127563477
0,1773036,-18.578536987304688,17.111038208007812,118.41919708251953,-25.793163299560547
0,1773038,-1.3570247888565063,-4.214690208435059,-71.39420318603516,-33.58150100708008
0,1773040,-0.5527603030204773,-16.309459686279297,-47.621246337890625,52.601165771484375
0,1773042,-34.09540557861328,-49.37583541870117,-46.45147705078125,49.52334213256836
0,1773044,5.86158561706543,19.441757202148438,-63.19525146484375,-25.133882522583008
0,1773046,55.413055419921875,62.75770950317383,152.42239379882812,-59.32414627075195
0,1773048,-24.62204360961914,-27.25813865661621,102.86907958984375,0.03313444182276726
0,1773050,-45.2624397277832,-42.29384994506836,-137.32638549804688,38.60929870605469
0,1773052,47.21538543701172,13.290456771850586,-104.44490814208984,-5.3516669273376465
0,1773054,37.65492248535156,11.415894508361816,85.54011535644531,3.230221748352051
0,1773056,-28.202835083007812,31.139047622680664,114.75907135009766,13.554292678833008
0,1773058,-16.372102737426758,25.176095962524414,-47.293209075927734,-41.59051513671875
0,1773060,-10.387660026550293,-32.551368713378906,-33.61836624145508,-24.587421417236328
0,1773062,-3.8251824378967285,-37.322452545166016,-24.703561782836914,16.757648468017578
0,1773064,38.437801361083984,6.545140743255615,-100.06409454345703,31.503297805786133
0,1773066,-0.7321051359176636,36.985347747802734,106.83949279785156,28.021448135375977
0,1773068,-24.735063552856445,29.294843673706055,146.74200439453125,-36.74363327026367
0,1773070,-26.369400024414062,-21.645267486572266,-94.98578643798828,-5.217103958129883
0,1773072,-15.635204315185547,-83.69998168945312,-121.7715835571289,13.129262924194336
0,1773074,31.263883590698242,-4.6702961921691895,34.69306564331055,-14.580896377563477
0,1773076,31.406267166137695,56.726898193359375,38.28910446166992,25.222766876220703
0,1773078,15.646700859069824,-20.390743255615234,1.5075215101242065,22.517452239990234
0,1773080,-19.21421241760254,25.637487411499023,106.31973266601562,-23.47151756286621
0,1773082,-15.943994522094727,36.013084411621094,-56.32078552246094,-46.67802429199219
0,1773084,-1.864717721939087,-46.08548355102539,-149.71177673339844,26.439374923706055
0,1773086,14.484467506408691,9.89791488647461,131.4272918701172,27.457395553588867
0,1773088,-28.238529205322266,17.463157653808594,93.64753723144531,-29.635116577148438
0,1773090,-22.593435287475586,-44.380027770996094,-117.44061279296875,25.25691032409668
0,1773092,58.904911041259766,-9.206978797912598,-105.99706268310547,-7.061242580413818
0,1773094,-4.122710704803467,55.00301742553711,30.646841049194336,-57.64759063720703
0,1773096,0.2408725470304489,34.20315933227539,103.40196990966797,33.943580627441406
0,1773098,-7.299984455108643,-62.60001754760742,5.349315643310547,63.61470413208008
0,1773100,-44.808326721191406,-41.360626220703125,-3.592104196548462,-31.5915584564209
0,1773102,10.2304048538208,7.2730183601379395,-65.8791275024414,-41.25995635986328
0,1773104,102.16697692871094,43.22819519042969,-76.7848892211914,-30.238975524902344
0,1773106,51.935401916503906,75.80056762695312,141.25619506835938,1.3175265789031982
0,1773107,-145.85044860839844,-25.029075622558594,127.18871307373047,78.06070709228516
0,1773111,-62.28636169433594,-66.66217041015625,-213.89669799804688,14.76163387298584
0,1773112,56.75442123413086,-22.642927169799805,-161.83201599121094,-1.1189863681793213
0,1773113,21.318662643432617,6.308121204376221,242.8665008544922,-13.825934410095215
0,1773116,2.4346818923950195,3.3786308765411377,52.10614776611328,-33.860679626464844
0,1773117,-18.85238265991211,6.588193416595459,-85.00395965576172,22.424514770507812
0,1773120,-2.803124189376831,36.80546569824219,115.57868194580078,-29.54325294494629
0,1773121,8.439478874206543,2.159963846206665,-81.6543197631836,-23.98076629638672
0,1773124,-14.719351768493652,-54.1085090637207,-185.3490447998047,69.3978271484375
0,1773125,20.755504608154297,13.483316421508789,127.2503662109375,17.778369903564453
0,1773128,13.726808547973633,45.31993865966797,162.63943481445312,-35.72805404663086
0,1773129,-26.70180892944336,-19.630102157592773,-74.88821411132812,-11.797231674194336
0,1773132,20.10517692565918,2.534580945968628,-123.65460968017578,-25.242353439331055
0,1773133,16.752155303955078,-11.698314666748047,-15.874074935913086,-0.8549938201904297
0,1773136,-2.4688868522644043,-14.028539657592773,99.30721282958984,34.446929931640625
0,1773137,-11.157504081726074,34.980674743652344,43.6331672668457,-4.060831546783447
0,1773140,-21.766721725463867,18.243494033813477,3.5947394371032715,-17.742216110229492
0,1773141,4.914854049682617,-1.850449800491333,-73.83055877685547,16.56446075439453
0,1773144,14.17541790008545,-42.995445251464844,-122.5239028930664,3.337185859680176
0,1773145,38.342227935791016,11.453436851501465,124.90800476074219,5.980500221252441
0,1773148,-25.349851608276367,34.97935485839844,137.73550415039062,1.8432421684265137
0,1773149,-62.28230667114258,-69.81396484375,-96.62239074707031,-24.505233764648438
0,1773152,49.22261428833008,-20.41490364074707,-111.79643249511719,2.722607135772705
0,1773153,31.002309799194336,63.1745719909668,41.82143783569336,5.480469226837158
0,1773156,-31.089107513427734,28.142391204833984,84.17613220214844,6.315670013427734
0,1773157,-7.09797477722168,-47.26910400390625,-19.82172393798828,-11.064711570739746
0,1773160,13.931666374206543,5.223042964935303,34.29579544067383,-3.876648426055908
0,1773161,-13.445128440856934,32.91101837158203,-60.35478591918945,28.07346534729004
0,1773164,-1.1496862173080444,-61.20905685424805,-161.9947967529297,-22.110248565673828
0,1773165,52.71076202392578,36.72975540161133,160.23695373535156,-15.559575080871582
0,1773168,-32.70576095581055,66.66300201416016,151.10919189453125,35.72997283935547
0,1773169,-63.82258987426758,-56.44845199584961,-162.21669006347656,9.527460098266602
0,1773172,46.314144134521484,-49.893577575683594,-107.90090942382812,-54.167930603027344
0,1773173,28.992162704467773,6.7140913009643555,80.75944519042969,-0.9832295179367065
0,1773176,-6.472969055175781,51.90226364135742,81.06867218017578,56.501670837402344
0,1773177,1.6770727634429932,11.795931816101074,-20.82157325744629,-4.58817720413208
0,1773180,-43.70769500732422,-53.81547164916992,0.19768141210079193,-18.696096420288086
0,1773181,-17.553009033203125,-36.84499740600586,-43.53597640991211,13.947626113891602
0,1773184,27.53816032409668,18.47917938232422,-81.2507095336914,-6.901803016662598
0,1773185,28.015365600585938,42.93752670288086,133.85308837890625,-43.91228103637695
0,1773188,-14.269405364990234,8.518080711364746,114.51426696777344,24.542924880981445
0,1773189,-30.659713745117188,1.7353545427322388,-108.17037963867188,48.74534225463867
0,1773192,40.61283874511719,-21.10589599609375,-138.1962432861328,-27.196044921875
0,1773193,46.1097526550293,-2.0755741596221924,24.268997192382812,-6.999969482421875
0,1773196,-27.879037857055664,27.600330352783203,123.91817474365234,10.643380165100098
0,1773197,-62.18312072753906,-4.938677787780762,-5.975989818572998,-37.4208869934082
0,1773200,5.445146560668945,-1.132474660873413,21.42047119140625,10.150449752807617
0,1773201,24.500816345214844,-32.11982345581055,-25.946979522705078,27.857759475708008
0,1773204,-2.3143420219421387,-16.77421760559082,-157.44595336914062,-15.596302032470703
0,1773205,35.286746978759766,47.34352111816406,104.58656311035156,25.463489532470703
0,1773208,-24.38705062866211,3.1400039196014404,148.817626953125,-25.960647583007812
0,1773209,-42.00052261352539,-6.796778202056885,-88.5031967163086,-29.97627067565918
0,1773212,32.980552673339844,-1.8571312427520752,-129.2346649169922,21.79671859741211
0,1773213,30.131534576416016,-16.056631088256836,15.582852363586426,-23.002527236938477
0,1773216,8.722274780273438,45.183902740478516,124.45342254638672,33.618072509765625
0,1773217,-21.532669067382812,1.1752665042877197,-9.02016544342041,32.84446716308594
0,1773220,-33.591121673583984,-40.94126510620117,-33.43525314331055,-43.87504959106445
0,1773221,-28.35159683227539,-21.60768699645996,-34.39405822753906,7.106274127960205
0,1773224,30.09991455078125,2.2501561641693115,-83.70582580566406,16.819683074951172
0,1773225,82.65221405029297,49.786643981933594,118.83834075927734,-69.13155364990234
0,1773228,-33.70039367675781,-3.426999807357788,117.23611450195312,-0.10754808038473129
0,1773229,-86.61239624023438,-47.914676666259766,-135.09996032714844,83.59577941894531
0,1773232,25.159099578857422,-0.9960647821426392,-117.6448745727539,-5.329978942871094
0,1773233,48.61200714111328,26.247297286987305,69.93955993652344,-24.42938804626465
0,1773236,6.073478698730469,15.77458381652832,87.68989562988281,15.712018013000488
0,1773237,-2.81416654586792,-5.4073381423950195,-18.09307861328125,2.70540714263916
0,1773240,-37.24250411987305,0.08066947013139725,29.521408081054688,-25.6707820892334
0,1773242,-18.617088317871094,-5.7859039306640625,-31.453857421875,-5.199193954467773
0,1773244,52.55788803100586,-27.656349182128906,-121.6799545288086,30.23548126220703
0,1773246,31.997896194458008,34.473690032958984,120.39215850830078,-0.12049876153469086
0,1773248,-58.541404724121094,14.568799018859863,92.15287780761719,6.668512344360352
0,1773250,-41.240909576416016,-52.5151252746582,-132.09584045410156,-15.19228458404541
0,1773252,46.340938568115234,7.660836696624756,-46.69001388549805,-31.240041732788086
0,1773254,38.023033142089844,24.113344192504883,74.99979400634766,6.797963619232178
0,1773255,-34.42781066894531,-26.38291358947754,45.51039505004883,-7.3959174156188965
0,1773258,-26.22187042236328,7.948395252227783,-13.813278198242188,20.515487670898438
0,1773259,37.20563507080078,30.691259384155273,-45.40861129760742,20.229047775268555
0,1773262,2.6414663791656494,-27.008636474609375,-71.77495574951172,-37.81681823730469
0,1773263,-24.30898666381836,-35.37235641479492,-80.70423889160156,1.3810031414031982
0,1773268,9.366397857666016,16.12757682800293,125.9057846069336,31.61014747619629
0,1773268,10.456336975097656,48.09333801269531,238.05674743652344,-17.331262588500977
0,1773269,-14.280710220336914,4.840968132019043,-76.45592498779297,-8.164632797241211
0,1773272,-3.4234869480133057,-28.78972816467285,-183.7742462158203,31.52751922607422
0,1773273,5.860699653625488,23.9542179107666,13.45544147491455,-2.306337594985962
0,1773276,4.420019149780273,43.31438446044922,103.32350158691406,-6.007452964782715
0,1773277,5.32359504699707,-23.29319190979004,6.832632541656494,25.365678787231445
0,1773280,-23.160648345947266,-37.510074615478516,-26.9184513092041,-21.14548683166504
0,1773281,-5.647447109222412,7.190035820007324,-41.96126174926758,-31.268932342529297
0,1773284,23.94351577758789,-20.363771438598633,-118.31941223144531,10.785574913024902
0,1773285,40.56555938720703,-10.184709548950195,53.23677444458008,12.931304931640625
0,1773288,5.045349597930908,50.01224899291992,171.37933349609375,3.6877288818359375
0,1773289,-55.70555877685547,-34.4998779296875,-27.86929702758789,-1.2847793102264404
0,1773292,-7.312006950378418,-55.33123779296875,-139.85836791992188,-28.556459426879883
0,1773293,30.33709144592285,57.90595245361328,19.21136474609375,-16.73106575012207
0,1773296,-20.298330307006836,0.6540899276733398,54.9447021484375,25.076662063598633
0,1773297,-14.428901672363281,-30.64907455444336,-27.85453224182129,13.23650074005127
0,1773300,30.6389217376709,51.235111236572266,69.32650756835938,-15.055606842041016
0,1773301,8.694727897644043,-12.253975868225098,-28.272302627563477,2.970780849456787
0,1773304,-4.470965385437012,-38.644691467285156,-155.8983917236328,31.41948699951172
0,1773305,-2.168159246444702,34.57236862182617,108.90473937988281,-4.3207621574401855
0,1773308,-52.649288177490234,21.61358070373535,171.45181274414062,-18.99793243408203
0,1773309,4.624972343444824,-17.947786331176758,-72.44113159179688,22.06928253173828
0,1773312,66.00071716308594,-7.214801788330078,-143.14808654785156,-7.656035423278809
0,1773313,-38.169761657714844,38.720947265625,20.55348777770996,-49.52717590332031
0,1773316,-12.139605522155762,-28.225221633911133,66.26861572265625,17.485363006591797
0,1773317,36.24648666381836,-47.90943145751953,-30.738910675048828,40.21366500854492
0,1773320,-25.454755783081055,53.40433883666992,79.65245819091797,3.425586462020874
0,1773321,5.998000621795654,-15.58259105682373,-18.102506637573242,-12.818280220031738
0,1773324,-5.426463603973389,-48.74589538574219,-191.34934997558594,-19.40513801574707
0,1773325,-11.860386848449707,50.354827880859375,109.67044067382812,-4.8488359451293945
0,1773328,31.575653076171875,61.0618896484375,201.6992950439453,1.2127479314804077
0,1773329,-4.11750602722168,-26.47029685974121,-91.524169921875,13.616920471191406
0,1773332,-10.966745376586914,-77.19842529296875,-177.5337677001953,0.7651448249816895
0,1773333,17.243465423583984,8.474990844726562,39.05125427246094,-11.805318832397461
0,1773336,8.71423625946045,40.004486083984375,120.11491394042969,4.822473526000977
0,1773337,-15.703213691711426,-13.25845718383789,-46.160091400146484,5.87093448638916
0,1773340,-9.177306175231934,35.00153732299805,30.551639556884766,23.365236282348633
0,1773341,-6.615758895874023,-13.445107460021973,-6.525594711303711,-23.392702102661133
0,1773344,8.81580638885498,-71.47042083740234,-181.20773315429688,-35.05919647216797
0,1773345,38.48649597167969,60.75559997558594,75.9540786743164,41.51442337036133
0,1773348,-11.558834075927734,51.037628173828125,200.2272491455078,0.7569334506988525
0,1773349,-59.53074264526367,-56.93968200683594,-71.63085174560547,-33.19023132324219
0,1773352,5.497921466827393,-26.26938247680664,-164.12545776367188,11.274208068847656
0,1773353,42.077579498291016,33.7734489440918,41.51460266113281,15.205824851989746
0,1773356,-1.9768657684326172,3.188624858856201,88.80999755859375,0.3561292290687561
0,1773357,-24.38720703125,-30.491792678833008,-5.565271377563477,8.23353099822998
0,1773360,-8.343210220336914,42.13721466064453,79.91346740722656,9.901267051696777
0,1773361,26.969322204589844,7.689402103424072,-46.92340850830078,-21.01798439025879
0,1773364,3.906602621078491,-64.94414520263672,-205.59376525878906,-25.939735412597656
0,1773365,-0.8413918614387512,38.73961639404297,93.12755584716797,20.485010147094727
0,1773368,5.979144096374512,41.36454391479492,195.64556884765625,27.594942092895508
0,1773369,-23.983551025390625,-58.576454162597656,-75.6633529663086,-1.965657353401184
0,1773372,-2.6221249103546143,-2.6750786304473877,-127.89599609375,-15.245519638061523
0,1773373,3.000697135925293,27.002588272094727,16.937108993530273,-15.960670471191406
0,1773376,4.087160587310791,-19.996177673339844,69.50343322753906,-13.143194198608398
0,1773377,8.408651351928711,2.721442937850952,7.10865592956543,13.006261825561523
0,1773380,17.446632385253906,38.018184661865234,59.04676055908203,34.8787956237793
0,1773381,-4.7742509841918945,2.5434741973876953,-32.63715362548828,-7.957739353179932
0,1773384,-46.16124725341797,-36.994384765625,-170.0860137939453,-38.51689910888672
0,1773385,16.77191734313965,11.58156967163086,95.00930786132812,6.060001373291016
0,1773388,21.70783805847168,12.256352424621582,141.00413513183594,17.8328800201416
0,1773389,-19.791501998901367,9.149259567260742,-74.49594116210938,-17.0474910736084
0,1773392,13.877654075622559,-19.09247398376465,-120.01473999023438,25.938180923461914
0,1773393,8.59872055053711,-42.5558967590332,-8.944141387939453,33.2271728515625
0,1773396,-1.0171678066253662,33.79905319213867,102.10803985595703,-22.25742530822754
0,1773397,-0.7003123760223389,-0.6582541465759277,7.096001148223877,-32.21638870239258
0,1773400,-39.638343811035156,6.662979602813721,19.962488174438477,-24.160110473632812
0,1773401,-7.057706356048584,-6.8208417892456055,-40.011043548583984,11.93461799621582
0,1773404,45.34832763671875,-48.07172775268555,-106.2286148071289,38.279502868652344
0,1773405,8.027467727661133,59.974815368652344,130.3893585205078,25.030786514282227
0,1773408,-26.86487579345703,24.105823516845703,80.78205871582031,-38.671512603759766
0,1773409,-21.03066062927246,-57.500465393066406,-108.74539947509766,-19.670202255249023
0,1773412,34.65762710571289,-11.639243125915527,-119.1639633178711,43.604183197021484
0,1773413,32.70766830444336,26.014345169067383,33.90336990356445,7.015476226806641
0,1773416,-45.438541412353516,38.59927749633789,144.30343627929688,-8.45451545715332
0,1773417,-3.7520148754119873,-11.484381675720215,2.051826238632202,-50.45431137084961
0,1773420,21.521408081054688,-40.140464782714844,9.474237442016602,-19.488906860351562
0,1773421,-4.317416667938232,4.85261869430542,-30.1472225189209,65.83539581298828
0,1773424,23.217628479003906,9.0731201171875,-119.99139404296875,-10.355905532836914
0,1773425,-4.328587532043457,11.568379402160645,85.43402099609375,-29.16292381286621
0,1773428,-47.5128288269043,-13.27575397491455,86.15980529785156,37.995819091796875
0,1773429,-17.64345359802246,-30.228160858154297,-115.86886596679688,14.860404968261719
0,1773432,53.38941955566406,34.19116973876953,-78.66451263427734,-33.7454948425293
0,1773433,20.602191925048828,30.058780670166016,59.16312026977539,-34.566925048828125
0,1773439,-18.9112548828125,-1.034669280052185,163.5670928955078,-12.758475303649902
0,1773439,1.2754396200180054,22.79033088684082,51.97941970825195,1.9411382675170898
0,1773440,-43.269432067871094,-39.40576934814453,-160.41036987304688,36.172847747802734
0,1773441,-25.7144775390625,-38.846168518066406,-144.61009216308594,33.12616729736328
0,1773444,47.601192474365234,40.82061767578125,13.544511795043945,2.8296501636505127
0,1773445,32.21409606933594,23.25417137145996,178.9710693359375,-3.105095386505127
0,1773448,-43.05092239379883,-11.437517166137695,36.877960205078125,-39.69264602661133
0,1773449,1.7222520112991333,-27.379562377929688,-147.7580108642578,2.5043232440948486
0,1773452,52.389129638671875,-25.610380172729492,-66.19488525390625,61.641815185546875
0,1773453,-8.840362548828125,15.111437797546387,54.827030181884766,-12.334595680236816
0,1773456,-19.710891723632812,27.7009220123291,83.47521209716797,-37.62935256958008
0,1773457,-5.900646686553955,-31.138185501098633,-11.416086196899414,-6.590621471405029
0,1773460,-6.799198627471924,-3.596142292022705,32.463539123535156,5.8765974044799805
0,1773461,-23.094079971313477,24.69510269165039,-46.92845916748047,0.8934144377708435
0,1773464,25.033098220825195,-21.32524871826172,-76.53460693359375,2.2730865478515625
0,1773465,54.986717224121094,34.02494812011719,181.417236328125,10.297718048095703
0,1773468,-56.18545913696289,28.92094612121582,36.479408264160156,-39.573524475097656
0,1773469,-54.3066520690918,-52.0766716003418,-171.8924560546875,-8.377769470214844
0,1773472,39.77980041503906,-11.195295333862305,-53.578250885009766,59.84938049316406
0,1773473,23.2724552154541,37.108802795410156,75.3929672241211,-2.4536936283111572
0,1773476,-1.9385265111923218,4.293019771575928,65.03743743896484,-19.06511116027832
0,1773477,3.872866630554199,-7.974442005157471,-36.44975662231445,7.365805625915527
0,1773480,-14.688216209411621,9.5879545211792,39.7288703918457,-22.36573600769043
0,1773481,-7.044363498687744,-19.531044006347656,-51.61772155761719,24.036117553710938
0,1773484,24.32328987121582,-40.31555938720703,-150.69851684570312,44.09186935424805
0,1773485,8.515377044677734,21.04868507385254,149.8354034423828,-9.08716106414795
0,1773488,-13.274544715881348,23.856353759765625,106.21477508544922,-59.76686096191406
0,1773489,-11.123468399047852,-26.877994537353516,-135.80735778808594,-42.167964935302734
0,1773492,19.660926818847656,5.745646953582764,-35.563514709472656,66.35323333740234
0,1773493,21.74017333984375,3.0336556434631348,55.89536666870117,33.63747024536133
0,1773496,-30.843074798583984,20.482114791870117,53.347835540771484,-63.79682159423828
0,1773497,-24.3460636138916,18.330774307250977,13.884781837463379,-5.700052738189697
0,1773500,-0.8125268816947937,-55.58925247192383,-11.197312355041504,24.205507278442383
0,1773501,14.111473083496094,-3.716677665710449,-64.18196868896484,1.5155863761901855
0,1773504,40.0105094909668,63.38589859008789,-57.96917724609375,5.192055702209473
0,1773505,3.5895884037017822,22.442447662353516,134.24514770507812,-14.869296073913574
0,1773508,-60.25381851196289,-44.52812576293945,40.40609359741211,0.3799723982810974
0,1773509,-19.985685348510742,-26.807226181030273,-135.86602783203125,15.678374290466309
0,1773512,47.39594268798828,5.716884613037109,-65.07080841064453,-10.43933391571045
0,1773513,6.29589319229126,-11.709220886230469,53.86708068847656,-6.306975841522217
0,1773516,-22.34250259399414,21.68807601928711,98.39820861816406,15.551830291748047
0,1773517,10.272868156433105,30.835905075073242,-17.4256534576416,6.6119065284729
0,1773520,2.593212842941284,-22.01569175720215,-25.068998336791992,5.103115081787109
0,1773521,-5.9407548904418945,-43.5735969543457,-29.337995529174805,-7.157675266265869
0,1773524,19.10401725769043,15.363015174865723,-50.650665283203125,-15.065275192260742
0,1773525,17.94369125366211,80.41621398925781,131.7639923095703,7.653763771057129
0,1773528,-50.311649322509766,-36.92826461791992,41.52833938598633,-19.100271224975586
0,1773529,-32.203033447265625,-63.125579833984375,-144.9113311767578,-15.520071983337402
0,1773532,43.41732406616211,25.435897827148438,-72.15653228759766,28.18950653076172
0,1773533,25.770721435546875,-7.829477787017822,45.312705993652344,15.706184387207031
0,1773536,23.967605590820312,31.605039596557617,143.4455108642578,19.12427520751953
0,1773537,-27.961557388305664,7.531338214874268,-6.449779033660889,6.451085090637207
0,1773540,-35.503562927246094,-30.42212677001953,-44.84954833984375,-29.57096290588379
0,1773541,-0.879063606262207,13.107348442077637,-41.4583854675293,-18.640975952148438
0,1773544,-2.0961086750030518,4.634525775909424,-100.75751495361328,-1.4628773927688599
0,1773545,53.63847351074219,26.78235626220703,173.552978515625,10.346335411071777
0,1773548,-16.132781982421875,5.355661869049072,87.17095947265625,8.87730598449707
0,1773549,-49.88662338256836,-39.00147247314453,-157.47410583496094,-2.3557238578796387
0,1773552,41.170257568359375,-17.493362426757812,-54.156009674072266,-23.20734977722168
0,1773553,10.997137069702148,4.3763508796691895,54.44222640991211,-0.0355704165995121
0,1773556,-15.130687713623047,2.3927645683288574,67.88268280029297,30.51614761352539
0,1773557,2.869433879852295,29.4814395904541,-28.4337215423584,-10.099465370178223
0,1773560,-15.24116039276123,28.645000457763672,10.675244331359863,-25.632781982421875
0,1773561,7.003453254699707,-56.16458511352539,-55.66408920288086,15.995149612426758
0,1773564,15.53546142578125,-36.116600036621094,-96.3427963256836,52.35212707519531
0,1773565,7.763707637786865,47.683536529541016,153.62496948242188,-0.6871961951255798
0,1773568,-9.153788566589355,16.956727981567383,75.01560974121094,-55.803462982177734
0,1773570,-29.024288177490234,-16.497257232666016,-117.10564422607422,-3.7309329509735107
0,1773572,18.433828353881836,-4.3365397453308105,-102.23541259765625,30.064769744873047
0,1773574,3.600220203399658,9.397074699401855,25.80607795715332,-5.994056701660156
0,1773576,-29.78226089477539,11.027671813964844,135.8918914794922,-2.305466890335083
0,1773578,10.339102745056152,-11.848930358886719,16.228071212768555,-5.001926898956299
0,1773580,18.869922637939453,-2.5577545166015625,-5.583603382110596,-16.8594913482666
0,1773582,9.40366268157959,-6.979897499084473,-72.32880401611328,22.456064224243164
0,1773583,8.559757232666016,-50.00356674194336,-194.69943237304688,-10.114808082580566
0,1773586,3.281938076019287,17.921171188354492,176.96185302734375,-4.8237385749816895
0,1773587,-6.755038261413574,64.92933654785156,284.3816223144531,37.535736083984375
0,1773590,-16.873748779296875,-26.968524932861328,-203.45216369628906,-27.543493270874023
0,1773591,-13.317930221557617,-25.52881622314453,-178.75198364257812,-29.890682220458984
0,1773594,-5.192185878753662,49.2851448059082,117.0719223022461,30.313142776489258
0,1773595,10.2016019821167,19.23356819152832,15.462217330932617,11.015918731689453
0,1773598,11.024029731750488,-18.12358856201172,-16.495250701904297,-1.4162338972091675
0,1773599,-11.65807819366455,-16.39811134338379,23.807573318481445,9.65689754486084
0,1773602,-1.8979922533035278,-53.606407165527344,-65.82144927978516,-37.571929931640625
0,1773603,25.742271423339844,-11.357889175415039,-103.24491119384766,-13.691391944885254
0,1773606,4.084293842315674,91.13817596435547,145.497802734375,37.110721588134766
0,1773607,-25.551267623901367,28.102657318115234,250.95559692382812,-19.36280632019043
0,1773610,-18.983373641967773,-94.08819580078125,-197.53155517578125,-34.930755615234375
0,1773611,-7.371424674987793,-19.568788528442383,-171.8616943359375,42.90081024169922
0,1773614,32.09897232055664,50.33372497558594,161.79656982421875,55.52066421508789
0,1773615,19.59122085571289,-7.031507968902588,20.298490524291992,-7.655871868133545
0,1773618,-6.955352783203125,15.628890991210938,5.354734897613525,-53.29939270019531
0,1773619,5.323549747467041,32.81916427612305,16.888347625732422,-35.12841033935547
0,1773622,-41.8726806640625,-47.56087112426758,-161.7929229736328,43.77457046508789
0,1773624,0.608537495136261,-31.73627471923828,-92.67021179199219,42.448509216308594
0,1773625,75.26593780517578,58.46187973022461,157.90037536621094,-10.43384075164795
0,1773628,-25.77557373046875,21.105920791625977,151.58633422851562,-7.103549480438232
0,1773629,-75.82393646240234,-25.293460845947266,-76.38687896728516,-32.66983413696289
0,1773632,58.04265213012695,-20.682674407958984,-138.33087158203125,-3.1082608699798584
0,1773633,40.8065185546875,-11.493980407714844,4.876007556915283,43.41958236694336
0,1773636,-64.45000457763672,30.045976638793945,82.15425109863281,-38.272464752197266
0,1773637,-12.190871238708496,-4.072720050811768,20.394493103027344,-30.265892028808594
0,1773640,30.508907318115234,-8.086009979248047,40.53887176513672,36.096282958984375
0,1773641,-6.220180988311768,-26.734012603759766,-77.592529296875,10.451326370239258
0,1773644,-6.5891547203063965,-39.5250129699707,-138.52609252929688,3.26566219329834
0,1773645,60.40696334838867,92.39637756347656,159.6133575439453,9.157121658325195
0,1773648,-8.860275268554688,19.595626831054688,151.57492065429688,-8.71815013885498
0,1773649,-81.57752990722656,-87.82664489746094,-94.97842407226562,-7.27439546585083
0,1773652,8.570304870605469,9.038633346557617,-133.3137969970703,-2.1646454334259033
0,1773653,29.786954879760742,31.376220703125,-2.868420124053955,1.7351171970367432
0,1773656,16.77753448486328,0.05281507223844528,74.6806640625,1.8202781677246094
0,1773657,5.262182235717773,-4.971044063568115,-6.78563928604126,-9.287942886352539
0,1773660,-18.02759552001953,1.2841365337371826,60.1447639465332,8.317262649536133
0,1773661,-9.684792518615723,2.441742420196533,-22.51171875,-8.13073444366455
0,1773664,-12.259354591369629,13.438616752624512,-144.56607055664062,-17.95277214050293
0,1773665,33.613887786865234,56.60499954223633,152.15472412109375,34.63016128540039
0,1773668,-0.5283065438270569,-33.82586669921875,118.18768310546875,5.0450639724731445
0,1773669,-61.6458625793457,-129.5160369873047,-189.97496032714844,-40.48480224609375
0,1773672,32.896331787109375,17.26041030883789,-87.93785095214844,6.110558986663818
0,1773673,40.84050750732422,129.95681762695312,97.78327178955078,17.92543601989746
0,1773676,-2.3333895206451416,32.97243881225586,65.84434509277344,-5.616317272186279
0,1773677,4.70172643661499,-65.65375518798828,-38.19646453857422,14.505582809448242
0,1773680,-25.25801658630371,-48.487060546875,26.800670623779297,8.032536506652832
0,1773681,-36.7056999206543,-2.713773727416992,-48.25480651855469,-34.250247955322266
0,1773684,13.300516128540039,15.198427200317383,-121.47032165527344,-6.614089012145996
0,1773685,58.503726959228516,22.99342918395996,159.26007080078125,37.50205612182617
0,1773688,-28.040170669555664,-16.179641723632812,94.87451171875,-15.226181030273438
0,1773689,-56.81428909301758,-5.477604389190674,-118.16442108154297,-15.608433723449707
0,1773692,46.6461067199707,40.60685729980469,-90.02242279052734,24.330434799194336
0,1773693,32.435340881347656,-7.929032325744629,25.714780807495117,12.008302688598633
0,1773696,-19.135665893554688,-30.885242462158203,129.4856719970703,-7.438732624053955
0,1773697,-10.423340797424316,-3.3128440380096436,-16.098299026489258,-50.473026275634766
0,1773700,-23.74860382080078,23.8023738861084,-8.35113525390625,16.72303581237793
0,1773701,-5.587223052978516,-19.185375213623047,-18.421566009521484,56.91055679321289
0,1773704,38.90692901611328,-39.68484115600586,-141.1228790283203,-36.208518981933594
0,1773705,27.947725296020508,66.73701477050781,117.7673568725586,-8.659740447998047
0,1773708,-32.9351806640625,43.6290397644043,132.311279296875,43.22561264038086
0,1773709,-47.65358352661133,-47.475669860839844,-121.81674194335938,-39.389766693115234
0,1773712,40.957366943359375,-26.62186622619629,-104.73941802978516,-34.02468490600586
0,1773713,36.025779724121094,-1.6218315362930298,36.29997634887695,43.48475646972656
0,1773716,-34.14305114746094,-0.7788642048835754,98.24483489990234,9.299422264099121
0,1773717,-2.9873294830322266,23.97476577758789,9.629514694213867,-19.560375213623047
0,1773720,-11.349973678588867,-4.665736675262451,7.59294319152832,0.1454262137413025
0,1773721,-18.301889419555664,-19.790815353393555,-60.29633331298828,15.107439041137695
0,1773724,32.176910400390625,46.965938568115234,-108.30968475341797,3.198021650314331
0,1773725,39.802696228027344,30.092620849609375,129.9386444091797,-29.677120208740234
0,1773728,-34.669715881347656,-45.32815933227539,93.91815948486328,8.240922927856445
0,1773729,-46.393192291259766,-42.98724365234375,-112.27533721923828,46.172061920166016
0,1773732,65.98416900634766,-10.299995422363281,-108.31009674072266,-14.552919387817383
0,1773733,16.37935447692871,1.4892228841781616,30.43456268310547,-22.770187377929688
0,1773736,-56.96710968017578,29.490222930908203,129.32154846191406,-5.188205242156982
0,1773737,28.123262405395508,39.06025314331055,-6.41059684753418,-25.092802047729492
0,1773740,-7.665895938873291,-0.8844895958900452,-11.678054809570312,14.86058521270752
0,1773741,-48.40385437011719,-42.321773529052734,-36.211708068847656,27.770715713500977
0,1773744,27.44886589050293,-28.279972076416016,-125.91822814941406,-1.2623865604400635
0,1773745,40.828758239746094,37.371849060058594,129.99009704589844,-16.348758697509766
0,1773748,-17.71567726135254,41.321372985839844,124.27971649169922,-2.963287591934204
0,1773749,-44.244998931884766,-26.692943572998047,-109.01588439941406,10.477189064025879
0,1773752,9.4519624710083,-38.21110916137695,-91.13640594482422,-23.251277923583984
0,1773753,37.566062927246094,23.11496353149414,24.901735305786133,17.945804595947266
0,1773756,12.245328903198242,34.762088775634766,97.34387969970703,29.455244064331055
0,1773757,-3.535587787628174,-37.66386413574219,-9.139237403869629,-29.49396514892578
0,1773760,-52.04882049560547,-23.09356117248535,-8.00127124786377,2.575101375579834
0,1773761,-16.69188690185547,4.788708686828613,-58.68637466430664,7.286667823791504
0,1773764,93.89456939697266,-6.07975435256958,-92.07727813720703,5.641158103942871
0,1773765,27.95524024963379,71.46102142333984,164.82972717285156,12.254825592041016
0,1773768,-105.19894409179688,43.10594177246094,104.79647827148438,-39.766780853271484
0,1773769,-28.098421096801758,-84.22560119628906,-127.46501922607422,-30.426454544067383
0,1773772,84.9470443725586,-44.50267791748047,-101.63292694091797,24.73590087890625
0,1773773,-1.8165301084518433,45.386173248291016,43.061119079589844,37.74847412109375
0,1773776,-16.828224182128906,12.75885009765625,63.668731689453125,3.4937639236450195
0,1773777,15.464097023010254,-6.600937366485596,-19.199520111083984,-20.89920997619629
0,1773780,-32.10216522216797,3.43765926361084,40.547119140625,-16.23545265197754
0,1773781,-8.270878791809082,-33.32591247558594,-52.53371810913086,14.003682136535645
0,1773784,19.669069290161133,4.990760326385498,-106.05795288085938,35.8129768371582
0,1773785,19.984575271606445,70.62980651855469,158.39669799804688,-20.226343154907227
0,1773788,-23.26830291748047,-32.64621353149414,67.22940063476562,-56.60078430175781
0,1773789,-16.397064208984375,-60.69002914428711,-130.33653259277344,8.544427871704102
0,1773792,25.810401916503906,0.5725354552268982,-54.51374053955078,77.35990905761719
0,1773793,-1.3690507411956787,16.134923934936523,21.605850219726562,13.042440414428711
0,1773796,5.744729995727539,62.64650344848633,94.4771728515625,-55.751651763916016
0,1773797,-23.831878662109375,-15.723429679870605,11.01402759552002,-18.752363204956055
0,1773800,-2.2740609645843506,-24.7735538482666,-21.893177032470703,4.939566612243652
0,1773801,26.736425399780273,1.0979143381118774,-62.98686599731445,-6.149667263031006
0,1773804,-10.0240478515625,-23.99170684814453,-105.46670532226562,3.074817180633545
0,1773805,9.931010246276855,41.66823196411133,150.72946166992188,39.881317138671875
0,1773808,-15.478039741516113,-3.309567928314209,81.38380432128906,-19.37696647644043
0,1773809,-23.19639015197754,-38.08882141113281,-158.58900451660156,-30.940353393554688
0,1773812,12.17285442352295,2.0406973361968994,-54.390628814697266,40.67843246459961
0,1773813,33.81436538696289,22.8336181640625,103.04788208007812,3.7308993339538574
0,1773816,35.07869338989258,35.71123504638672,101.230712890625,-24.646883010864258
0,1773817,-11.409918785095215,-7.260560512542725,-34.84678649902344,-1.8244600296020508
0,1773820,-64.66775512695312,-14.371146202087402,-14.186580657958984,13.206872940063477
0,1773823,-31.816116333007812,-26.536222457885742,-10.401801109313965,-6.38769006729126
0,1773823,42.555912017822266,-38.59669876098633,-173.08877563476562,-20.034168243408203
0,1773826,33.156044006347656,33.702571868896484,101.86246490478516,28.89215850830078
0,1773827,-26.735755920410156,37.0208740234375,247.97215270996094,26.60625648498535
0,1773830,-21.59113883972168,-31.427146911621094,-236.95269775390625,-36.27898406982422
0,1773831,28.358158111572266,-10.01669692993164,-156.94862365722656,-30.079668045043945
0,1773834,16.52021026611328,19.892789840698242,188.9105682373047,7.435883045196533
0,1773835,-19.31934928894043,3.0436627864837646,36.08726501464844,19.984045028686523
0,1773838,-14.719977378845215,12.563985824584961,13.264512062072754,19.434307098388672
0,1773839,16.277013778686523,1.0791188478469849,32.692317962646484,10.288119316101074
0,1773842,-15.117082595825195,-27.325788497924805,-143.9634552001953,-4.21350622177124
0,1773843,-1.7349612712860107,-20.58310317993164,-117.06037902832031,-12.795963287353516
0,1773846,47.09933090209961,47.111324310302734,196.3646240234375,-17.50611686706543
0,1773847,-18.118118286132812,42.9279670715332,194.77749633789062,-4.997984409332275
0,1773850,-31.643312454223633,-71.48562622070312,-235.86814880371094,37.089080810546875
0,1773851,36.556129455566406,-33.870784759521484,-156.61021423339844,17.528976440429688
0,1773854,2.3736164569854736,54.04999542236328,166.718505859375,-46.16226577758789
0,1773855,-41.008480072021484,30.312175750732422,70.22041320800781,-26.973047256469727
0,1773858,12.504551887512207,-13.51088809967041,12.96823787689209,36.41761779785156
0,1773859,-8.895441055297852,-44.47540283203125,-12.271232604980469,4.757053375244141
0,1773862,-24.663957595825195,16.767515182495117,-114.935791015625,-30.342517852783203
0,1773863,37.71403503417969,4.318112850189209,-89.26937103271484,15.446004867553711
0,1773866,38.415626525878906,-6.556989669799805,153.91075134277344,22.414226531982422
0,1773867,-1.9873143434524536,53.14006423950195,192.2116241455078,-10.590862274169922
0,1773870,-35.26881408691406,-34.970550537109375,-204.31552124023438,-12.291167259216309
0,1773871,-2.51578950881958,-33.69654846191406,-145.56292724609375,25.278079986572266
0,1773874,41.903587341308594,41.38900375366211,172.716064453125,-7.628405570983887
0,1773875,-19.54918670654297,14.850432395935059,40.86737060546875,-26.13323402404785
0,1773878,-57.91299819946289,-21.919719696044922,-26.909433364868164,27.223922729492188
0,1773879,25.454729080200195,-16.326663970947266,13.516819953918457,13.60165786743164
0,1773882,23.209835052490234,-3.629774332046509,-76.40151977539062,-7.09928560256958
0,1773883,-24.885677337646484,-17.29265022277832,-103.14693450927734,0.39019620418548584
0,1773886,39.561248779296875,32.52341842651367,144.21548461914062,-19.27157974243164
0,1773887,7.740937232971191,27.27924346923828,182.83004760742188,-16.842744827270508
0,1773890,-67.23663330078125,-53.49665451049805,-253.29388427734375,17.442394256591797
0,1773891,-12.597322463989258,-25.95775604248047,-134.4841766357422,-6.741334438323975
0,1773894,70.28209686279297,39.99959945678711,212.55099487304688,-3.9017672538757324
0,1773895,16.24123764038086,33.23223876953125,23.16863441467285,18.827375411987305
0,1773898,-43.938106536865234,-31.610679626464844,-32.78713607788086,6.015352725982666
0,1773899,17.30263900756836,-16.2747745513916,40.801902770996094,-11.354382514953613
0,1773902,-2.6061289310455322,34.288185119628906,-84.47602844238281,-16.23823356628418
0,1773903,-12.495784759521484,-25.751218795776367,-115.43043518066406,2.588200569152832
0,1773906,29.595844268798828,-15.381628036499023,134.19268798828125,-8.615472793579102
0,1773907,-10.03752613067627,60.60678482055664,194.05970764160156,8.247991561889648
0,1773910,-28.343046188354492,-19.60471534729004,-182.5194549560547,30.320884704589844
0,1773911,13.95830249786377,-47.848201751708984,-157.15203857421875,-3.3739709854125977
0,1773914,20.43193244934082,42.78022003173828,138.34100341796875,-11.675572395324707
0,1773915,-15.340377807617188,17.03870391845703,43.91363525390625,-4.3046979904174805
0,1773918,-6.004617691040039,-31.122297286987305,21.5835018157959,19.51378631591797
0,1773919,-2.33748197555542,-12.4218111038208,23.958730697631836,15.91738224029541
0,1773922,-37.42505645751953,-4.781942367553711,-123.39887237548828,-38.670326232910156
0,1773923,24.794082641601562,-2.2830984592437744,-75.13959503173828,-7.09918212890625
0,1773926,37.20290756225586,34.42485427856445,191.22177124023438,11.059176445007324
0,1773927,-34.33788299560547,22.125133514404297,159.5068817138672,-20.4239559173584
0,1773930,-10.181476593017578,-53.96825408935547,-260.7991027832031,26.031330108642578
0,1773931,15.870560646057129,-28.82098388671875,-143.10324096679688,22.939952850341797
0,1773934,16.638521194458008,62.2994270324707,195.09405517578125,-33.44527053833008
0,1773935,2.5879344940185547,18.771913528442383,16.207435607910156,-8.924714088439941
0,1773938,-13.72940444946289,-23.64747428894043,-27.460052490234375,11.549835205078125
0,1773939,6.22256326675415,23.985692977905273,84.7357177734375,12.984533309936523
0,1773942,6.457981586456299,-18.361087799072266,-104.0148696899414,-1.7205379009246826
0,1773943,-17.55219078063965,-42.685882568359375,-157.45565795898438,-23.165857315063477
0,1773946,-17.727130889892578,49.594032287597656,203.6904754638672,14.815803527832031
0,1773947,15.081619262695312,35.08909606933594,190.07891845703125,15.332376480102539
0,1773950,19.089426040649414,-76.33037567138672,-281.0619201660156,-22.095298767089844
0,1773951,-8.238856315612793,-7.768248558044434,-115.23619079589844,0.07676810771226883
0,1773954,5.910043239593506,61.157772064208984,209.14837646484375,25.52765655517578
0,1773955,8.14509105682373,-24.6083927154541,7.984922409057617,-18.87105369567871
0,1773958,-1.952299952507019,-21.24016571044922,-13.103521347045898,-16.044395446777344
0,1773959,-5.520027160644531,26.318431854248047,42.2148551940918,17.25494956970215
0,1773962,-12.763191223144531,0.973349928855896,-111.27446746826172,-2.9773802757263184
0,1773963,0.6071705222129822,-38.72727584838867,-118.65882873535156,27.702396392822266
0,1773966,14.50361156463623,5.227675437927246,187.64974975585938,2.7120254039764404
0,1773967,15.223600387573242,39.90663528442383,201.4798583984375,-47.47352600097656
0,1773970,-47.48283386230469,-50.54176330566406,-248.89926147460938,4.540127754211426
0,1773971,-22.32925033569336,11.168074607849121,-140.980712890625,16.688953399658203
0,1773974,66.4651870727539,59.90976333618164,179.0149383544922,-5.384151458740234
0,1773975,3.8681399822235107,-53.584922790527344,18.18069839477539,6.343412399291992
0,1773978,-35.05823516845703,0.35386455059051514,-16.589765548706055,4.373233318328857
0,1773979,-1.7601652145385742,46.78492736816406,46.92482376098633,-14.912976264953613
0,1773982,-16.522336959838867,-37.23147964477539,-97.06593322753906,16.809419631958008
0,1773983,32.01064682006836,-17.759056091308594,-112.60144805908203,10.004735946655273
0,1773986,38.18608856201172,46.44817352294922,165.1073760986328,-39.71309280395508
0,1773987,-54.41921615600586,3.915487051010132,147.97926330566406,-6.160489559173584
0,1773990,-26.822410583496094,-48.87744140625,-273.9705810546875,7.014347076416016
0,1773991,35.27091979980469,-16.639083862304688,-89.28585815429688,22.753738403320312
0,1773994,21.717355728149414,41.25856399536133,228.53469848632812,23.28200340270996
0,1773995,-19.602937698364258,9.981560707092285,26.11214256286621,-12.235150337219238
0,1773998,2.304877996444702,-3.6610684394836426,26.812938690185547,0.06990032643079758
0,1773999,25.222314834594727,3.7148492336273193,25.0249080657959,-13.106873512268066
0,1774002,-39.53605270385742,-60.36126708984375,-169.39120483398438,-2.1982178688049316
0,1774003,11.231348037719727,-4.748141288757324,-114.43907165527344,20.132888793945312
0,1774006,22.18398666381836,72.22992706298828,216.126953125,-9.348150253295898
0,1774008,-40.497718811035156,21.81193733215332,151.93711853027344,-22.57275390625
0,1774010,8.182772636413574,-42.97130584716797,-277.8902893066406,37.649173736572266
0,1774012,-8.768982887268066,-11.620926856994629,-81.87373352050781,-10.647799491882324
0,1774014,7.028010368347168,26.116168975830078,196.13812255859375,-44.538394927978516
0,1774016,37.14786911010742,7.163923263549805,23.067819595336914,33.8263053894043
0,1774018,-7.532995700836182,23.661209106445312,9.89338493347168,-3.2683603763580322
0,1774020,-0.8388497829437256,-23.540225982666016,6.709104537963867,-3.9149322509765625
0,1774021,-14.157755851745605,-62.6475715637207,-159.2023468017578,-33.08924102783203
0,1774024,12.541229248046875,20.510080337524414,-16.73517608642578,-12.670169830322266
1,1774027,4.389410495758057,42.7624626159668,218.56117248535156,64.8761978149414
1,1774282,-3.859772205352783,-92.18502807617188,-327.43951416015625,10.947089195251465
1,1774283,65.69629669189453,-54.89421844482422,-302.9891662597656,-6.005702972412109
1,1774286,-9.068378448486328,142.6837615966797,623.4776611328125,-21.418521881103516
1,1774287,-82.37596130371094,78.70502471923828,380.7331237792969,12.683453559875488
1,1774290,-21.439844131469727,30.47798728942871,36.141971588134766,0.8301507234573364
1,1774291,-20.936872482299805,30.647092819213867,63.374969482421875,-46.07204818725586
1,1774294,-85.031005859375,-159.9709930419922,-485.6648254394531,35.73667526245117
1,1775150,16.952537536621094,-144.9140625,-532.8599243164062,5.224312782287598
1,1775151,123.77369689941406,23.341176986694336,-44.20867156982422,-16.797508239746094
1,1775154,53.77579879760742,46.24429702758789,60.15469741821289,22.134180068969727
1,1775155,5.198949813842773,38.884605407714844,63.79875183105469,-19.984331130981445
1,1775158,15.659662246704102,72.083740234375,280.85162353515625,2.413731575012207
1,1775159,-28.21233558654785,44.67234802246094,248.21759033203125,32.79607391357422
1,1775162,-54.54070281982422,-40.55922317504883,16.677331924438477,-17.181655883789062
1,1775163,4.4781060218811035,11.196834564208984,74.66099548339844,-28.83393096923828
1,1775166,-30.755319595336914,37.49840545654297,126.71820831298828,10.906843185424805
1,1775167,-46.58934783935547,-69.65110778808594,-188.79379272460938,21.46138572692871
1,1775170,31.711200714111328,-83.1834945678711,-431.4976806640625,0.2874852120876312
1,1775171,39.8206787109375,-14.44384765625,-164.85693359375,-14.54669189453125
1,1775174,1.5048240423202515,17.743432998657227,126.92124938964844,-3.645531415939331
1,1775175,19.890460968017578,17.829586029052734,81.44554138183594,17.978572845458984
1,1775178,47.05876541137695,52.01005554199219,180.77072143554688,0.07453574985265732
1,1775179,-19.38329315185547,-2.024010181427002,140.49928283691406,-28.257400512695312
1,1775182,-27.664363861083984,-22.008134841918945,-49.68388748168945,-8.941227912902832
1,1775183,6.544672012329102,105.20565795898438,124.14337158203125,45.99338912963867
1,1775186,-30.965974807739258,40.386165618896484,79.77452850341797,13.687899589538574
1,1775187,-54.4373893737793,-137.80465698242188,-255.52142333984375,-76.99430084228516
1,1775190,22.709516525268555,-109.27307891845703,-279.3329772949219,-32.96649169921875
1,1775191,50.12890625,51.32558059692383,-6.947474002838135,41.79770278930664
1,1775194,19.210546493530273,74.7046890258789,121.38094329833984,38.13701629638672
1,1775195,9.184764862060547,-9.590384483337402,41.2729377746582,13.40821647644043
1,1775198,-14.36996078491211,17.94141387939453,116.70521545410156,5.33473014831543
1,1775199,-5.318077087402344,3.336134672164917,74.94344329833984,-8.165743827819824
1,1775202,-21.933059692382812,-31.559186935424805,-71.4659194946289,-27.71773910522461
1,1775203,0.9705251455307007,49.1280403137207,109.05696105957031,2.8570806980133057
1,1775206,1.285198450088501,18.369874954223633,114.42733001708984,17.834184646606445
1,1775207,-45.85619354248047,-63.218833923339844,-197.35452270507812,25.199949264526367
1,1775210,29.710838317871094,-39.810665130615234,-289.45404052734375,24.018510818481445
1,1775211,48.97731018066406,-2.4472262859344482,-28.459070205688477,-49.82787322998047
1,1775214,4.183966159820557,30.965261459350586,175.37811279296875,-26.717065811157227
1,1775215,-15.857573509216309,36.18525695800781,80.00028991699219,26.225509643554688
1,1775218,-30.239322662353516,4.074037075042725,65.73578643798828,-34.427085876464844
1,1775219,1.3754585981369019,-1.0638214349746704,0.1531563401222229,2.1180713176727295
1,1775222,22.320335388183594,-0.6944217085838318,-138.2718963623047,53.839027404785156
1,1775223,19.263599395751953,26.71738052368164,107.1695785522461,-27.358713150024414
1,1775226,-72.3090591430664,-19.724695205688477,169.78147888183594,-62.215576171875
1,1775227,-67.8781967163086,-80.08919525146484,-134.81845092773438,16.904220581054688
1,1775296,10.381386756896973,-34.764747619628906,-14.950309753417969,39.0522346496582
1,1775298,-33.33274459838867,-41.455528259277344,-98.85065460205078,13.72156810760498
1,1775300,-27.163238525390625,-28.994150161743164,-52.3438720703125,-22.490354537963867
1,1775302,51.17970275878906,17.066162109375,-23.497573852539062,17.23558807373047
1,1775304,29.910676956176758,25.21930694580078,79.65090942382812,2.4390997886657715
1,1775306,-25.969018936157227,21.167827606201172,182.32415771484375,-57.845603942871094
1,1775308,-44.64851760864258,-41.837730407714844,-147.88870239257812,30.01249885559082
1,1775310,-4.659704208374023,-2.165520668029785,-134.29324340820312,47.36616134643555
1,1775312,44.38018035888672,48.70139694213867,172.0589141845703,-12.470503807067871
1,1775314,-4.696109771728516,-19.46617317199707,46.78950500488281,-15.93340015411377
1,1775316,-16.319435119628906,25.328718185424805,-34.468589782714844,-10.546331405639648
1,1775318,1.7097887992858887,16.003944396972656,1.7762950658798218,3.136218547821045
1,1775320,-20.88469886779785,-49.91177749633789,-66.01563262939453,7.5073041915893555
1,1775322,11.23831844329834,-22.254186630249023,-127.7178955078125,-11.031176567077637
1,1775324,34.2696533203125,50.31096649169922,131.49742126464844,-12.33112907409668
1,1775326,0.19255220890045166,26.040956497192383,220.45425415039062,33.09335708618164
1,1775328,-21.342966079711914,-72.75837707519531,-195.53695678710938,30.122989654541016
1,1775330,-13.069823265075684,-9.607376098632812,-120.15636444091797,-23.569900512695312
1,1775332,15.754432678222656,23.989669799804688,97.7481460571289,-44.05694580078125
1,1775334,8.901570320129395,3.466334104537964,-25.632030487060547,-8.483067512512207
1,1775336,3.3954880237579346,32.63134002685547,22.315288543701172,40.24867630004883
1,1775338,15.417266845703125,-0.824292004108429,30.826433181762695,18.908061981201172
1,1775340,-47.93124008178711,-37.18323516845703,-52.034385681152344,-24.976234436035156
1,1775342,6.0126142501831055,-24.17447280883789,-62.20396041870117,-11.458565711975098
1,1775344,51.46297836303711,60.56459426879883,162.9523468017578,12.381927490234375
1,1775346,-31.30406379699707,69.77674865722656,201.11273193359375,-5.6450653076171875
1,1775348,-34.55908203125,-94.26348114013672,-285.4453430175781,-37.45619583129883
1,1775350,0.7896807789802551,-60.23861312866211,-143.76925659179688,19.370834350585938
1,1775352,23.510461807250977,55.42720031738281,219.10284423828125,33.7636833190918
1,1775354,-17.827362060546875,-17.65493392944336,39.46112060546875,-44.02747344970703
1,1775356,6.483587741851807,38.364707946777344,-19.74991798400879,3.1457810401916504
1,1775358,39.22035217285156,48.28715896606445,-93.15892028808594,25.603988647460938
1,1775360,-33.82000732421875,-58.73853302001953,-117.2422866821289,-14.59732723236084
1,1775362,-17.292926788330078,-40.593177795410156,-27.106369018554688,48.3745002746582
1,1775364,40.5279541015625,15.293561935424805,176.1806640625,27.260618209838867
1,1775366,7.711299896240234,56.653236389160156,263.6212463378906,-41.60224533081055
1,1775368,-30.14579963684082,-43.37384796142578,-333.4840087890625,-59.00895690917969
1,1775370,10.185298919677734,-34.75750732421875,-261.32769775390625,-4.482431888580322
1,1775371,21.313709259033203,74.36988067626953,324.9228515625,74.03767395019531
1,1775374,20.400070190429688,-12.444625854492188,39.339107513427734,12.012524604797363
1,1775376,-6.802576065063477,-49.237972259521484,-69.56761169433594,-14.340620994567871
1,1775377,-56.103519439697266,8.959063529968262,96.60320281982422,-27.44213104248047
1,1775380,-4.890791416168213,17.620738983154297,15.645825386047363,-30.514265060424805
1,1775381,21.036951065063477,-38.35029602050781,-121.87820434570312,1.8460958003997803
1,1775384,15.041820526123047,12.27423095703125,-28.577152252197266,35.596160888671875
1,1775385,-1.0253006219863892,86.85623168945312,171.04751586914062,15.500191688537598
1,1775388,-56.2182502746582,-14.032917022705078,-32.369205474853516,-53.376041412353516
1,1775389,-12.710554122924805,-67.68440246582031,-85.34849548339844,15.913647651672363
1,1775392,78.03865051269531,7.602105617523193,20.62335968017578,51.113216400146484
1,1775393,26.49109649658203,34.33176803588867,13.322134971618652,-3.4553020000457764
1,1775396,-35.693572998046875,7.547290802001953,89.58438110351562,-37.124244689941406
1,1775397,-30.385658264160156,7.270481109619141,-27.646377563476562,-11.838041305541992
1,1775400,-39.46327209472656,-10.391488075256348,-233.02337646484375,32.920257568359375
1,1775401,39.378387451171875,-56.18008804321289,-144.58309936523438,1.812781810760498
1,1775404,65.24170684814453,-6.8798723220825195,194.79217529296875,-41.89592361450195
1,1775405,-28.471832275390625,65.20513916015625,351.4671936035156,-13.18746280670166
1,1775408,-24.40253257751465,-14.882583618164062,-104.5047836303711,45.339622497558594
1,1775409,9.467540740966797,-30.167949676513672,-334.3755798339844,19.01471519470215
1,1775412,-0.11641424894332886,18.650440216064453,29.98171615600586,-9.732651710510254
1,1775413,-10.756224632263184,7.824945449829102,155.328369140625,-7.222756385803223
1,1775416,-8.203184127807617,4.184924125671387,70.39990997314453,-38.33967971801758
1,1775417,1.6396878957748413,-23.816539764404297,-22.134519577026367,16.641748428344727
1,1775420,8.8371000289917,-19.02069664001465,-32.69417190551758,51.79049301147461
1,1775421,18.266674041748047,-4.915034294128418,-66.8362045288086,-12.322154998779297
1,1775424,-4.632303714752197,60.39750671386719,14.42570686340332,-26.841089248657227
1,1775425,7.898587226867676,68.67442321777344,208.9602508544922,-0.16662371158599854
1,1775428,-8.94991397857666,-75.94519805908203,-109.46491241455078,0.12013078480958939
1,1775429,-40.208988189697266,-66.34971618652344,-205.03855895996094,-25.17135238647461
1,1775432,42.02894973754883,33.811248779296875,157.9591522216797,19.068941116333008
1,1775433,28.279329299926758,11.765125274658203,89.39146423339844,39.80875015258789
1,1775436,-38.03929138183594,-8.766561508178711,-66.72508239746094,-60.896240234375
1,1775437,-9.458358764648438,19.63798713684082,-35.999019622802734,-51.89460754394531
1,1775440,9.911062240600586,-9.661462783813477,-100.18309020996094,65.24234008789062
1,1775441,11.755191802978516,-27.863279342651367,-156.76519775390625,55.83278274536133
1,1775444,25.000211715698242,47.98631286621094,150.1531982421875,-8.277358055114746
1,1775445,2.6407504081726074,42.6052131652832,317.0417785644531,-12.27723503112793
1,1775448,-30.68775177001953,-39.628334045410156,-118.44808197021484,-20.511791229248047
1,1775449,-32.90767288208008,-21.3244686126709,-168.2254180908203,-19.562671661376953
1,1775452,-26.788293838500977,-6.417026519775391,92.42794036865234,-13.256156921386719
1,1775453,21.172773361206055,9.218671798706055,35.747459411621094,39.996498107910156
1,1775456,20.544565200805664,10.619266510009766,23.505142211914062,30.330284118652344
1,1775457,1.270105004310608,-18.523948669433594,-13.766143798828125,-66.39913177490234
1,1775460,26.930553436279297,13.246013641357422,-130.63807678222656,-10.85080623626709
1,1775461,-6.31407356262207,-44.710941314697266,-105.07331085205078,26.879201889038086
1,1775464,7.999011516571045,3.5782201290130615,173.77857971191406,17.994617462158203
1,1775465,6.7062249183654785,62.74887466430664,203.32757568359375,25.433446884155273
1,1775469,-61.918067932128906,-56.06063461303711,-309.87945556640625,-52.34868621826172
1,1775469,0.04462666064500809,-12.24567699432373,-148.74014282226562,-22.92524528503418
1,1775472,34.460174560546875,59.45943069458008,269.4827880859375,79.53346252441406
1,1775473,-9.91166877746582,-6.711859703063965,12.868273735046387,7.6891374588012695
1,1775476,17.85740852355957,-17.186243057250977,-18.52490234375,-52.3077392578125
1,1775477,9.737335205078125,25.120363235473633,84.9604263305664,-8.91749382019043
1,1775480,-13.94625186920166,-15.372041702270508,-37.583133697509766,9.015691757202148
1,1775481,-4.703035354614258,-48.986778259277344,-143.4483642578125,20.29969596862793
1,1775484,-19.30202293395996,50.21733093261719,74.08170318603516,1.6999380588531494
1,1775485,6.241093635559082,56.609859466552734,256.78265380859375,-17.469783782958984
1,1775488,31.19801902770996,-68.50406646728516,-219.2209930419922,-17.220735549926758
1,1775489,-8.370828628540039,-21.362472534179688,-302.230712890625,5.503724098205566
1,1775492,-1.0268244743347168,53.543949127197266,180.44888305664062,27.088674545288086
1,1775493,12.536203384399414,-13.332446098327637,125.27369689941406,16.502574920654297
1,1775496,29.974342346191406,-8.2786283493042,-45.97611999511719,-4.0096635818481445
1,1775497,26.191072463989258,25.671733856201172,49.171051025390625,-3.99371337890625
1,1775500,-86.95225524902344,-17.18632698059082,-19.281925201416016,-13.123746871948242
1,1775501,-49.455753326416016,-27.216794967651367,-107.50587463378906,-20.231069564819336
1,1775504,56.0109977722168,28.509862899780273,153.46641540527344,18.964853286743164
1,1775505,6.703952789306641,3.9412002563476562,174.6806640625,-7.700457572937012
1,1775508,-21.75046157836914,-73.38703918457031,-259.19354248046875,-27.642745971679688
1,1775509,5.7925920486450195,-19.363740921020508,-146.5259246826172,17.249113082885742
1,1775512,19.395668029785156,60.49470138549805,170.50367736816406,3.5917797088623047
1,1775513,-3.56453275680542,41.433162689208984,53.699275970458984,11.991538047790527
1,1775516,-32.456974029541016,9.821393966674805,-8.86854076385498,11.188860893249512
1,1775517,2.4862771034240723,7.106832027435303,-3.1793084144592285,-18.31019401550293
1,1775520,25.787078857421875,-43.08714294433594,-74.94701385498047,-17.898235321044922
1,1775521,6.443319797515869,-63.6529541015625,-95.91363525390625,12.979660987854004
1,1775524,-3.803924322128296,40.43874740600586,129.34202575683594,13.29312515258789
1,1775525,0.687475323677063,53.62748718261719,178.64523315429688,-26.05555534362793
1,1775528,21.64419174194336,-49.801944732666016,-240.7814483642578,41.289520263671875
1,1775529,12.961601257324219,-11.408206939697266,-153.85760498046875,26.37151527404785
1,1775532,5.761673927307129,66.64131164550781,207.7677459716797,-30.594602584838867
1,1775533,-18.161331176757812,11.402502059936523,72.40876770019531,0.7765218615531921
1,1775536,-23.4014949798584,-20.239240646362305,-6.6026177406311035,-31.225379943847656
1,1775537,-21.83062744140625,-12.752700805664062,26.951202392578125,-30.46109962463379
1,1775540,-60.21350860595703,-39.247371673583984,8.507336616516113,19.641014099121094
1,1775541,33.30767059326172,-8.670202255249023,-57.22626876831055,2.579521656036377
1,1775544,73.05953979492188,81.09380340576172,-93.52091217041016,23.057571411132812
1,1775545,-12.788045883178711,31.530534744262695,10.811819076538086,45.90528869628906
1,1775548,-11.90632152557373,-111.4648666381836,-62.560646057128906,-29.499048233032227
1,1775549,21.38141441345215,-30.749889373779297,-12.049050331115723,-19.043031692504883
1,1775552,2.393587112426758,50.3339729309082,150.87191772460938,17.626750946044922
1,1775553,-15.011526107788086,5.688319683074951,39.432159423828125,-7.070415496826172
1,1775556,-7.615329265594482,15.302672386169434,-21.13898468017578,2.489292621612549
1,1775557,-9.81026554107666,-11.4159517288208,-4.0330681800842285,3.683350086212158
1,1775560,-15.86937427520752,-39.68762969970703,-72.36068725585938,-20.31941032409668
1,1775561,-6.835405349731445,-20.042911529541016,-109.89089965820312,-8.543241500854492
1,1775564,38.86513137817383,94.92078399658203,129.57632446289062,19.300989151000977
1,1775565,19.9675350189209,66.70719909667969,214.79722595214844,3.423335552215576
1,1775568,-64.73904418945312,-121.30306243896484,-171.558837890625,-17.711877822875977
1,1775569,-8.7791109085083,-30.699541091918945,-153.21194458007812,-26.234210968017578
1,1775572,77.82931518554688,91.320556640625,125.61476135253906,31.58415985107422
1,1775573,5.131967544555664,-8.003387451171875,22.445850372314453,15.605761528015137
1,1775576,-32.6323127746582,-31.84220314025879,1.0616915225982666,-36.57134246826172
1,1775578,7.507212162017822,-1.7082456350326538,33.94027328491211,33.59812545776367
1,1775580,-6.852953910827637,-6.675260543823242,-116.35201263427734,5.489415645599365
1,1775581,0.4092192053794861,-0.6600624322891235,-142.17684936523438,-17.238142013549805
1,1775584,15.045515060424805,14.261621475219727,188.2348175048828,19.58845329284668
1,1775585,-11.43172836303711,7.276029109954834,305.80419921875,0.6284843683242798
1,1775588,-17.73286247253418,-46.93576431274414,-251.4846649169922,-20.042343139648438
1,1775589,-15.087371826171875,15.475022315979004,-288.37103271484375,1.0516917705535889
1,1775592,9.872546195983887,37.91923141479492,147.24571228027344,26.05829620361328
1,1775593,20.82237434387207,-20.160520553588867,100.75688934326172,-7.953657150268555
1,1775596,26.76162338256836,29.74626350402832,32.10002899169922,-15.058650970458984
1,1775597,-11.686701774597168,-9.401049613952637,-10.7483549118042,-1.8768573999404907
1,1775600,-68.3288803100586,-47.873016357421875,-74.42255401611328,-19.846328735351562
1,1775601,33.667930603027344,10.367753028869629,-45.91062545776367,2.117154121398926
1,1775604,76.39749908447266,38.25979995727539,129.8808135986328,46.55869674682617
1,1775605,-47.37343978881836,31.08894920349121,160.30740356445312,1.3766275644302368
1,1775608,-69.54816436767578,-53.124755859375,-193.3751220703125,-49.851654052734375
1,1775609,31.414228439331055,-13.728032112121582,-116.71087646484375,9.764138221740723
1,1775612,34.88383483886719,45.010040283203125,161.65823364257812,18.295413970947266
1,1775613,-45.38328552246094,-33.617374420166016,47.21943283081055,-51.158851623535156
1,1775616,4.152248382568359,-7.56488561630249,-74.13131713867188,24.57597541809082
1,1775617,67.82245635986328,7.266175746917725,-95.84777069091797,68.16636657714844
1,1775620,-5.182007789611816,-14.713502883911133,-42.069217681884766,-19.47170639038086
1,1775621,-17.5183162689209,0.505361020565033,-26.572568893432617,-15.783529281616211
1,1775624,48.123050689697266,27.71367645263672,146.7445068359375,-6.786169052124023
1,1775625,-12.043895721435547,31.098413467407227,238.71099853515625,-33.194156646728516
1,1775628,-100.32908630371094,-80.4671859741211,-208.9242706298828,13.518677711486816
1,1775629,-12.63330078125,-28.42020606994629,-191.31553649902344,38.77159118652344
1,1775632,50.95008087158203,101.32230377197266,177.11656188964844,-23.852983474731445
1,1775633,-2.4061827659606934,9.614991188049316,45.40846252441406,-49.17436981201172
1,1775636,12.721545219421387,-45.64031982421875,-15.298925399780273,42.174896240234375
1,1775637,9.993733406066895,5.081064224243164,30.050508499145508,28.42284393310547
1,1775640,-40.389060974121094,1.1668946743011475,-102.73062133789062,-46.16761016845703
1,1775641,-9.119771957397461,-25.412410736083984,-135.02891540527344,10.662464141845703
1,1775644,54.06154251098633,21.799171447753906,124.36723327636719,15.062132835388184
1,1775645,15.59017562866211,43.837154388427734,181.58657836914062,-7.010088920593262
1,1775648,-38.13531494140625,-43.594322204589844,-199.60992431640625,3.1042678356170654
1,1775649,10.236379623413086,-11.746683120727539,-122.86797332763672,12.891982078552246
1,1775652,24.493457794189453,43.94889831542969,178.0577850341797,-6.878119468688965
1,1775653,1.1330347061157227,-9.173687934875488,59.76266860961914,2.407984733581543
1,1775656,-23.435688018798828,-11.74418830871582,-27.621414184570312,20.145387649536133
1,1775657,-33.53022003173828,0.15655317902565002,10.467147827148438,-15.355737686157227
1,1775660,17.229276657104492,-3.390413522720337,-69.12688446044922,-7.977814674377441
1,1775661,14.979842185974121,-9.369131088256836,-128.1291046142578,-4.887426376342773
1,1775664,-0.3474908769130707,6.891441822052002,157.02845764160156,-3.9258790016174316
1,1775665,-5.651843547821045,17.551742553710938,207.20578002929688,-5.18734884262085
1,1775668,-30.062074661254883,-24.530881881713867,-225.60076904296875,-2.879901170730591
1,1775669,8.051596641540527,-40.141143798828125,-142.87750244140625,32.996150970458984
1,1775672,48.82038116455078,-8.03317642211914,152.02296447753906,-13.757143020629883
1,1775673,3.752192497253418,48.35639572143555,41.887413024902344,-70.62434387207031
1,1775676,-35.61762619018555,26.52361297607422,-11.734201431274414,41.50056838989258
1,1775677,9.07258415222168,-16.489696502685547,-6.161678314208984,69.01016235351562
1,1775680,-6.418781757354736,9.668745994567871,-30.908275604248047,-27.922094345092773
1,1775681,-3.1536569595336914,-25.87560272216797,-75.77833557128906,-19.775287628173828
1,1775684,48.69279479980469,10.878435134887695,81.09854888916016,6.715596675872803
1,1775685,-38.393394470214844,42.648681640625,173.00582885742188,-13.682969093322754
1,1775688,-43.56499481201172,-53.628482818603516,-186.1482696533203,-0.9484632015228271
1,1775689,21.700851440429688,-53.711631774902344,-143.84164428710938,34.13575744628906
1,1775692,32.3833122253418,57.619014739990234,114.70186614990234,2.0877678394317627
1,1775693,31.92597198486328,65.46969604492188,58.34239959716797,-45.867183685302734
1,1775696,-33.771217346191406,-37.16533660888672,57.604156494140625,-12.084234237670898
1,1775697,-35.788124084472656,-23.171300888061523,-3.6351122856140137,46.761680603027344
1,1775700,7.614964962005615,-22.347923278808594,-122.83609008789062,5.982245922088623
1,1775701,26.928974151611328,-42.15762710571289,-95.79288482666016,-28.3201904296875
1,1775704,0.6561661958694458,43.88294982910156,167.5447235107422,29.44594955444336
1,1775707,-29.79705238342285,44.90000534057617,87.69620513916016,4.7275519371032715
1,1775707,4.99439811706543,-7.721912384033203,-173.86134338378906,-66.12854766845703
1,1775710,19.68449592590332,-15.465856552124023,26.742605209350586,-2.5594122409820557
1,1775711,-11.269750595092773,-7.123627185821533,65.99241638183594,43.105220794677734
1,1775714,-4.380363464355469,0.10929299145936966,19.119998931884766,5.422718524932861
1,1775715,23.518714904785156,-3.065990924835205,9.278213500976562,9.584059715270996
1,1775718,-14.348485946655273,21.60198402404785,-3.872591495513916,-11.866111755371094
1,1775719,-10.265609741210938,2.046522855758667,-54.77824020385742,-27.671276092529297
1,1775722,26.87071418762207,-6.497518539428711,-69.8016128540039,34.80690002441406
1,1775723,20.404386520385742,25.363149642944336,149.15391540527344,11.434974670410156
1,1775726,-36.70550537109375,-13.55428695678711,41.88221740722656,-37.656158447265625
1,1775727,-53.65602111816406,-13.943377494812012,-132.46087646484375,23.775835037231445
1,1775730,46.454872131347656,-4.25007438659668,-58.35400390625,8.822388648986816
1,1775731,47.48807907104492,-11.796116828918457,28.016010284423828,-12.786774635314941
1,1775734,-13.744111061096191,16.800655364990234,64.5433349609375,8.519402503967285
1,1775735,-35.29027557373047,2.3428730964660645,-6.664659023284912,-39.5418701171875
1,1775738,-15.672199249267578,7.7739996910095215,52.18613052368164,9.424773216247559
1,1775739,20.250152587890625,-16.104001998901367,-38.34777069091797,25.35735511779785
1,1775742,5.309680938720703,-21.936935424804688,-128.247314453125,-24.582544326782227
1,1775743,33.71896743774414,47.37998580932617,153.88856506347656,15.749521255493164
1,1775746,-18.77948570251465,-9.905056953430176,72.84153747558594,3.2076172828674316
1,1775747,-43.42714309692383,-42.889671325683594,-124.4836196899414,-5.051027297973633
1,1775750,19.564346313476562,2.019454002380371,-87.83863830566406,0.9837188124656677
1,1775751,-18.18627166748047,16.399473190307617,7.4613356590271,-1.4748116731643677
1,1775754,16.884389877319336,33.92757797241211,116.50892639160156,12.45095443725586
1,1775755,25.73456382751465,-27.380695343017578,8.13643741607666,-20.40792465209961
1,1775758,-10.195558547973633,-7.333178997039795,16.972082138061523,-10.28028392791748
1,1775759,-7.177346706390381,0.11325918883085251,-47.030548095703125,17.547016143798828
1,1775762,-6.306401252746582,-39.87809371948242,-138.82858276367188,-5.370846748352051
1,1775763,36.92076873779297,73.65579223632812,133.94735717773438,-18.07222557067871
1,1775766,-16.228897094726562,28.412090301513672,102.04388427734375,11.904034614562988
1,1775767,-39.4340934753418,-72.60305786132812,-138.22793579101562,25.19658851623535
1,1775770,11.103126525878906,-15.717255592346191,-71.93663024902344,-4.725373268127441
1,1775771,3.620150566101074,24.080617904663086,65.03685760498047,-4.413522720336914
1,1775774,25.222957611083984,26.348453521728516,60.17390823364258,5.662049770355225
1,1775775,6.970480442047119,7.1922478675842285,3.413309335708618,6.913547992706299
1,1775778,-42.137237548828125,-6.169137477874756,63.92407989501953,16.437746047973633
1,1775779,-14.901888847351074,-37.970664978027344,-86.4902572631836,11.643270492553711
1,1775782,33.80419158935547,-25.34796714782715,-138.8455047607422,-29.67946434020996
1,1775783,47.06758499145508,82.22187042236328,188.97772216796875,-30.496204376220703
1,1775786,-20.054502487182617,28.18154525756836,97.09933471679688,15.064885139465332
1,1775787,-51.205509185791016,-89.3402099609375,-173.4790496826172,9.481905937194824
1,1775790,13.55016803741455,-23.721820831298828,-120.37690734863281,-9.497161865234375
1,1775791,48.74163055419922,54.73381423950195,76.03101348876953,0.2592928409576416
1,1775794,-8.264720916748047,16.690776824951172,113.64512634277344,0.05975152179598808
1,1775795,-52.73434829711914,-21.056013107299805,-26.150646209716797,-10.348104476928711
1,1775798,8.588433265686035,15.46809196472168,39.95830535888672,-0.013188492506742477
1,1775799,20.80838394165039,-15.139660835266113,-56.55191421508789,-11.00382137298584
1,1775802,-4.252014636993408,-18.66919708251953,-133.8130340576172,-6.584362983703613
1,1775803,22.531230926513672,24.646223068237305,154.41221618652344,48.32463073730469
1,1775806,-8.60959243774414,5.431990623474121,90.45946502685547,26.952850341796875
1,1775807,-52.50676345825195,3.2977294921875,-123.74806213378906,-45.99918746948242
1,1775810,9.788458824157715,-27.52401351928711,-78.59937286376953,-14.090210914611816
1,1775811,54.54127883911133,-2.596550226211548,65.4175796508789,12.67801284790039
1,1775814,-2.6678733825683594,19.30341339111328,106.45745086669922,-5.396467685699463
1,1775815,-22.82625389099121,-6.3408613204956055,-46.87764358520508,5.1562347412109375
1,1775818,-27.25996971130371,18.320457458496094,-21.497907638549805,14.530180931091309
1,1775819,-3.646808624267578,-30.860393524169922,-36.68640899658203,8.137603759765625
1,1775822,39.72652053833008,-25.244626998901367,-49.87321472167969,-10.98631763458252
1,1775823,13.993447303771973,31.992036819458008,144.1472625732422,-30.997791290283203
1,1775826,-21.02358627319336,6.158233165740967,0.976325273513794,0.722864031791687
1,1775827,-28.817155838012695,6.185169219970703,-144.42184448242188,52.38817596435547
1,1775830,39.56405258178711,1.5033167600631714,-40.32575225830078,-21.098377227783203
1,1775831,18.78777503967285,-8.888827323913574,55.76139831542969,-41.21086883544922
1,1775834,-32.814361572265625,14.60371208190918,108.87261962890625,23.2045841217041
1,1775836,19.515703201293945,-1.1123672723770142,-0.26285651326179504,4.640152931213379
1,1775838,-23.77778434753418,-17.202037811279297,-9.392851829528809,-8.549853324890137
1,1775840,-41.34428024291992,7.959960460662842,-55.198707580566406,-14.548422813415527
1,1775842,30.46271324157715,-3.832737445831299,-60.720699310302734,26.02536964416504
1,1775844,35.23358917236328,10.189023971557617,151.24864196777344,40.52472686767578
1,1775848,-29.656465530395508,-10.753080368041992,-150.4696807861328,-56.15520477294922
1,1775849,-36.849876403808594,-22.331804275512695,-192.16224670410156,-29.975872039794922
1,1775850,43.56611633300781,35.65680694580078,278.4916687011719,45.409095764160156
1,1775851,31.71100425720215,4.735678672790527,112.94169616699219,18.11734390258789
1,1775854,0.4075741767883301,1.6268470287322998,-94.50330352783203,-6.430704116821289
1,1775855,0.3868187665939331,12.328375816345215,-18.753957748413086,-1.3485753536224365
1,1775858,-48.04191970825195,-11.72205638885498,18.799610137939453,18.050140380859375
1,1775859,9.44564437866211,-17.834373474121094,-60.14710235595703,15.999746322631836
1,1775862,54.07365798950195,-7.787362575531006,-56.91257858276367,-23.264848709106445
1,1775863,-8.735474586486816,16.742374420166016,191.89956665039062,-31.419706344604492
1,1775866,-18.950693130493164,10.546476364135742,49.9829216003418,-0.4217710793018341
1,1775867,-27.18941307067871,-29.263708114624023,-170.4219970703125,-10.38830280303955
1,1775870,-5.667688369750977,-52.900146484375,-63.14274215698242,12.861518859863281
1,1775871,13.99423599243164,33.014678955078125,48.676273345947266,13.892061233520508
1,1775874,-7.806830883026123,53.551483154296875,64.52395629882812,-36.42839050292969
1,1775875,6.1984148025512695,-14.990373611450195,-32.819705963134766,9.374370574951172
1,1775878,-4.692623138427734,10.922101974487305,11.436500549316406,32.24595260620117
1,1775879,-7.811124324798584,-9.143685340881348,-53.26360321044922,3.7772178649902344
1,1775882,6.099398612976074,-41.90089797973633,-105.31446838378906,-41.24142074584961
1,1775883,16.799819946289062,19.14888572692871,197.80120849609375,1.5054593086242676
1,1775886,-2.1306629180908203,21.421255111694336,111.04485321044922,87.8349838256836
1,1775887,-30.82017707824707,-40.284507751464844,-167.78602600097656,-5.99491024017334
1,1775890,35.64854431152344,23.810211181640625,-103.25968170166016,-58.133033752441406
1,1775891,20.71198844909668,55.606956481933594,66.69685363769531,0.06985735148191452
1,1775894,-43.21892547607422,-55.56647491455078,78.78881072998047,-4.161046981811523
1,1775895,5.775069713592529,-25.738239288330078,-50.82062911987305,-7.079142093658447
1,1775898,13.680731773376465,48.26280975341797,21.49148178100586,13.824844360351562
1,1775899,5.705167293548584,-0.9479863047599792,-12.462238311767578,-2.057102918624878
1,1775902,11.116532325744629,-11.523163795471191,-77.5064697265625,-31.750879287719727
1,1775903,-11.334765434265137,0.3099852502346039,111.79813385009766,-28.83998680114746
1,1775906,-22.955596923828125,-14.222525596618652,46.747745513916016,44.80106735229492
1,1775907,-11.527642250061035,3.5774080753326416,-112.8993911743164,74.74626159667969
1,1775910,30.901037216186523,8.903999328613281,-64.85493469238281,-14.628118515014648
1,1775911,3.673858404159546,-12.897851943969727,54.29246139526367,-52.57780075073242
1,1775914,-20.728389739990234,37.403831481933594,92.92778015136719,2.439727306365967
1,1775915,25.73795509338379,24.614107131958008,-26.314062118530273,9.693155288696289
1,1775918,2.504924774169922,-60.807613372802734,18.053606033325195,17.802438735961914
1,1775919,-49.30856704711914,-17.88404655456543,-37.77871322631836,30.975183486938477
1,1775922,-2.346453905105591,16.38471221923828,-123.82247924804688,-48.80615997314453
1,1775923,56.340576171875,27.341215133666992,177.93133544921875,-41.154842376708984
1,1775926,-9.312366485595703,19.98244285583496,115.57683563232422,30.687013626098633
1,1775927,-37.78908920288086,-28.892797470092773,-177.15806579589844,-0.8426929116249084
1,1775930,25.01553726196289,-31.77252960205078,-93.81515502929688,-29.09874153137207
1,1775931,18.373607635498047,33.21967315673828,85.31209564208984,38.87723922729492
1,1775934,-15.2747220993042,71.2145767211914,88.76113891601562,45.1373176574707
1,1775935,-10.409371376037598,-21.408967971801758,-56.07623291015625,-17.166610717773438
1,1775938,-2.436467409133911,-89.0909652709961,-25.619380950927734,-18.47252655029297
1,1775939,-21.16891860961914,-71.01937866210938,-23.534687042236328,-36.51552963256836
1,1775942,15.21284294128418,85.39823150634766,-39.47335433959961,-15.670465469360352
1,1775943,50.791683197021484,85.80453491210938,132.16368103027344,55.233097076416016
1,1775946,-40.559383392333984,-81.08116912841797,13.056324005126953,-5.361112594604492
1,1775947,-34.27938461303711,12.2929048538208,-112.20865631103516,-55.8322868347168
1,1775950,47.6525993347168,20.75834846496582,-13.650285720825195,37.31351852416992
1,1775951,8.371098518371582,-59.77851486206055,46.00633239746094,43.11107635498047
1,1775954,-12.461586952209473,0.9578701853752136,59.63761901855469,-11.74851131439209
1,1775955,12.780350685119629,40.66158676147461,-38.00653839111328,-38.78228759765625
1,1775958,-15.685954093933105,26.632305145263672,-19.35015869140625,-18.379682540893555
1,1775959,-19.024749755859375,-27.431629180908203,-43.77629852294922,56.531341552734375
1,1775962,10.994924545288086,-27.15633201599121,-72.33267974853516,15.061319351196289
1,1775963,37.142879486083984,28.290603637695312,155.89732360839844,-58.56840515136719
1,1775966,13.484842300415039,30.504985809326172,89.98799896240234,2.8452157974243164
1,1775967,-42.83351516723633,-26.587583541870117,-137.33316040039062,34.674320220947266
1,1775970,-2.714232921600342,-62.30656814575195,-101.808837890625,-21.125057220458984
1,1775971,-5.6302809715271,22.5849552154541,66.39615631103516,36.33639144897461
1,1775974,-13.978775024414062,77.07745361328125,107.48738861083984,32.15622329711914
1,1775975,22.5157413482666,-30.87953758239746,-46.992767333984375,-65.1724624633789
1,1775978,2.7144558429718018,-15.104126930236816,-12.861860275268555,-34.34426498413086
1,1775979,-29.33429527282715,16.307558059692383,-39.9894905090332,31.246007919311523
1,1775982,-14.844611167907715,-42.61158752441406,-66.93299865722656,32.605228424072266
1,1775983,52.28668975830078,30.720043182373047,161.38587951660156,-7.784445285797119
1,1775986,-17.66278839111328,-5.453708171844482,33.020729064941406,-25.498123168945312
1,1775987,-38.35891342163086,-33.045875549316406,-149.86859130859375,-2.782322645187378
1,1775990,58.728126525878906,47.243011474609375,-12.609541893005371,3.894087553024292
1,1775991,1.5691747665405273,-15.308381080627441,76.30583953857422,-19.84079360961914
1,1775994,-4.883121013641357,-9.364645004272461,65.67095184326172,2.726823329925537
1,1775995,21.387805938720703,54.73220443725586,-31.721538543701172,25.139236450195312
1,1775998,-39.922794342041016,-7.052282810211182,-15.371461868286133,16.72846221923828
1,1775999,-26.75336265563965,-49.79704284667969,-54.378684997558594,5.637169361114502
1,1776004,23.445106506347656,15.618029594421387,45.04862594604492,-27.12706756591797
1,1776004,25.67929458618164,20.226009368896484,171.68759155273438,-12.070706367492676
1,1776005,3.199007987976074,-4.194211006164551,-151.10813903808594,7.298313140869141
1,1776008,-17.714706420898438,-25.905750274658203,-222.18753051757812,-2.847602367401123
1,1776009,-10.517985343933105,-44.53622817993164,28.477413177490234,-10.266681671142578
1,1776012,23.015871047973633,42.38581848144531,181.34957885742188,-10.570494651794434
1,1776013,2.916471004486084,34.12227249145508,14.358465194702148,35.462127685546875
1,1776016,-29.839277267456055,-16.318065643310547,-49.09547805786133,8.656654357910156
1,1776017,-5.227718830108643,13.596790313720703,70.06935119628906,-19.889163970947266
1,1776020,-0.4213143289089203,-13.703385353088379,-105.10282135009766,8.455192565917969
1,1776021,-1.6725943088531494,-36.84148025512695,-145.9076690673828,7.1566619873046875
1,1776024,13.160664558410645,31.975366592407227,200.79905700683594,27.26107406616211
1,1776025,-3.1481873989105225,32.795860290527344,209.44131469726562,-11.372502326965332
1,1776028,-4.2392802238464355,-45.73847198486328,-241.69439697265625,-49.1280517578125
1,1776029,10.561070442199707,-34.982662200927734,-123.7147216796875,14.346628189086914
1,1776032,22.565507888793945,47.73969268798828,184.6832275390625,41.988739013671875
1,1776033,6.658819675445557,24.899843215942383,29.633499145507812,-1.985755205154419
1,1776036,-26.39957046508789,-14.828548431396484,-0.5725531578063965,-42.610355377197266
1,1776037,0.09333637356758118,24.109615325927734,3.303260564804077,-21.137943267822266
1,1776040,18.145692825317383,-42.829010009765625,-151.54164123535156,23.567522048950195
1,1776041,-4.385014533996582,-50.80986404418945,-101.0353012084961,-3.7195982933044434
1,1776044,12.408942222595215,55.863555908203125,205.04286193847656,10.055862426757812
1,1776045,-14.29500675201416,53.452064514160156,192.9619140625,43.33280944824219
1,1776048,-52.1760139465332,-34.060604095458984,-234.62513732910156,-26.454055786132812
1,1776049,-1.3431788682937622,-21.290939331054688,-118.8840103149414,-6.499894142150879
1,1776052,34.302589416503906,19.60019874572754,172.984619140625,18.874940872192383
1,1776053,15.152448654174805,-29.751930236816406,15.297576904296875,-48.4837532043457
1,1776056,-13.683172225952148,5.801018714904785,6.8701677322387695,-1.3099309206008911
1,1776057,5.746670246124268,29.2747745513916,12.729325294494629,28.383344650268555
1,1776060,2.071012020111084,-51.716094970703125,-119.4226303100586,-7.894455909729004
1,1776061,-14.635738372802734,-15.88497543334961,-110.5137710571289,14.286996841430664
1,1776064,14.180678367614746,67.44015502929688,160.24766540527344,17.529756546020508
1,1776065,-2.934633493423462,6.203562259674072,178.82264709472656,-48.906700134277344
1,1776068,7.959353923797607,-36.53068161010742,-233.4196014404297,-9.847782135009766
1,1776069,41.43861770629883,17.079875946044922,-85.4775161743164,60.75147247314453
1,1776072,-38.48313903808594,-0.6935129761695862,169.73843383789062,-23.423738479614258
1,1776073,-27.614912033081055,-16.469972610473633,-15.779084205627441,-19.159252166748047
1,1776076,45.93987274169922,40.298126220703125,22.93474578857422,17.541975021362305
1,1776077,-21.008831024169922,9.44735050201416,43.092994689941406,-3.59904408454895
1,1776080,-39.57876205444336,-64.52564239501953,-117.94539642333984,29.597808837890625
1,1776081,14.831812858581543,-24.13257598876953,-83.10731506347656,-26.345401763916016
1,1776084,33.95835876464844,59.954193115234375,148.86245727539062,-62.38102722167969
1,1776085,4.6630425453186035,27.74421501159668,137.7742919921875,26.154081344604492
1,1776088,-42.421836853027344,-57.65220642089844,-213.81414794921875,58.84663009643555
1,1776089,-9.725308418273926,6.730179786682129,-102.83769989013672,11.255814552307129
1,1776092,41.50154113769531,15.77159595489502,169.30340576171875,-36.511470794677734
1,1776093,-15.687429428100586,-74.68991088867188,11.241969108581543,-20.580005645751953
1,1776096,-11.96291446685791,64.73773956298828,15.485610008239746,26.64533233642578
1,1776097,36.615665435791016,85.51387786865234,22.761079788208008,-6.912867546081543
1,1776100,-5.393585681915283,-76.38207244873047,-135.23300170898438,-3.251569986343384
1,1776101,6.097062587738037,-28.832706451416016,-70.95918273925781,25.793487548828125
1,1776104,1.3058021068572998,34.164798736572266,200.6520538330078,-41.0693244934082
1,1776105,-33.72135543823242,44.329261779785156,153.46934509277344,-14.286791801452637
1,1776108,3.6434383392333984,-25.564781188964844,-293.1002502441406,60.97157669067383
1,1776109,29.326723098754883,-57.57121658325195,-121.29002380371094,30.409297943115234
1,1776112,-1.514266848564148,26.685405731201172,260.6911926269531,-30.86154556274414
1,1776113,-33.26088333129883,-26.916645050048828,24.064281463623047,-68.3970947265625
1,1776116,3.0708189010620117,-4.482934474945068,-51.98013687133789,7.762939453125
1,1776117,14.988554954528809,50.53570556640625,17.661489486694336,91.3115005493164
1,1776120,-24.47490119934082,-24.856130599975586,-109.62076568603516,-41.23589324951172
1,1776121,0.7575183510780334,-25.40534019470215,-86.6360855102539,-71.5569839477539
1,1776124,47.43370056152344,37.3623046875,184.90052795410156,26.466304779052734
1,1776126,-14.043927192687988,40.333011627197266,168.5580291748047,36.98823928833008
1,1776128,-35.64729309082031,-25.87567138671875,-266.2389831542969,12.007017135620117
1,1776130,36.42509460449219,-15.514034271240234,-130.008544921875,-37.333980560302734
1,1776132,17.1772518157959,21.02494239807129,209.57106018066406,-6.773632049560547
1,1776134,-16.672454833984375,-5.055375099182129,39.72920608520508,6.802467346191406
1,1776136,-26.07718276977539,1.2691292762756348,-5.312259674072266,-7.693427085876465
1,1776138,-11.665804862976074,-4.4144721031188965,7.998828411102295,29.211227416992188
1,1776139,20.480785369873047,-29.24113655090332,-129.22605895996094,36.64651870727539
1,1776142,26.153018951416016,-11.043557167053223,-47.082820892333984,-0.6645245552062988
1,1776143,22.301864624023438,16.984189987182617,162.5318145751953,-19.121227264404297
1,1776146,-48.88423538208008,7.86751127243042,93.69739532470703,-22.928430557250977
1,1776147,-53.61221694946289,-1.598043441772461,-105.19673156738281,-5.245674133300781
1,1776150,44.9953498840332,20.18794059753418,-104.07440185546875,28.913164138793945
1,1776151,20.91230583190918,-2.152249813079834,24.32648468017578,-2.1480607986450195
1,1776154,-11.111973762512207,-24.166906356811523,72.844482421875,-52.06877899169922
1,1776155,10.759613037109375,-1.0066807270050049,-27.369901657104492,-18.213529586791992
1,1776158,2.333979845046997,18.654495239257812,2.146287679672241,26.767929077148438
1,1776159,-1.5679625272750854,2.3575246334075928,-39.544864654541016,12.433860778808594
1,1776162,-10.103272438049316,-15.854695320129395,-74.55826568603516,20.360857009887695
1,1776163,19.605512619018555,36.760902404785156,169.93215942382812,8.287637710571289
1,1776166,-36.6458625793457,-11.689472198486328,58.087860107421875,-31.816694259643555
1,1776167,-39.19751739501953,-64.26870727539062,-153.70944213867188,2.274292469024658
1,1776170,88.19988250732422,23.261219024658203,-21.064743041992188,33.87281799316406
1,1776171,2.5555169582366943,10.92611026763916,58.334712982177734,-3.29008150100708
1,1776174,-50.34690475463867,4.178897857666016,24.205106735229492,-26.166135787963867
1,1776175,27.632627487182617,38.56254959106445,4.399141311645508,0.16222591698169708
1,1776178,-21.99816131591797,-0.553389847278595,27.04841423034668,40.909950256347656
1,1776179,-22.662147521972656,-45.63627624511719,-98.93279266357422,5.815133571624756
1,1776182,42.46877670288086,-41.69431686401367,-104.15935516357422,-59.31647872924805
1,1776183,6.56870174407959,38.95423126220703,177.25579833984375,-33.03701400756836
1,1776186,-19.953739166259766,40.88358688354492,68.05931091308594,36.61779022216797
1,1776187,16.783203125,-10.47711181640625,-139.17750549316406,50.942447662353516
1,1776190,2.067582607269287,-3.3130362033843994,-42.86201477050781,-48.10150146484375
1,1776191,-20.224199295043945,-8.841292381286621,57.67499542236328,-50.70220184326172
1,1776194,-10.00471305847168,-4.315291404724121,71.90631103515625,72.16960906982422
1,1776195,-0.20939068496227264,-14.026666641235352,-10.87926959991455,9.253364562988281
1,1776198,2.1210079193115234,-3.5366029739379883,-24.945009231567383,-53.43417739868164
1,1776199,-1.126668930053711,21.156940460205078,-85.06185913085938,52.70197296142578
1,1776202,35.692989349365234,8.289152145385742,-4.060853004455566,30.224302291870117
1,1776203,33.087669372558594,8.264281272888184,175.48248291015625,-61.01543045043945
1,1776206,-46.60572814941406,-6.232738494873047,-12.90589714050293,-13.223334312438965
1,1776207,-36.13899612426758,3.924118995666504,-131.49803161621094,48.92229080200195
1,1776210,29.138710021972656,-29.00273895263672,-40.82601547241211,-1.4940346479415894
1,1776211,8.899651527404785,-3.2516252994537354,62.97724533081055,-49.1207389831543
1,1776214,-4.79258918762207,65.30387878417969,93.265380859375,11.524149894714355
1,1776215,-11.51688003540039,-16.93748664855957,-48.73932647705078,44.59577941894531
1,1776218,-22.525087356567383,-45.332763671875,-12.1661958694458,-14.977194786071777
1,1776219,5.053237438201904,-14.085183143615723,-25.093994140625,-36.608951568603516
1,1776222,38.5572395324707,9.382068634033203,-47.71036148071289,32.86376190185547
1,1776223,37.14454650878906,29.14221954345703,162.6454315185547,28.771512985229492
1,1776226,-49.527748107910156,7.048585414886475,4.108614921569824,-50.12258529663086
1,1776227,-48.196624755859375,-25.854358673095703,-158.50108337402344,-23.828960418701172
1,1776230,48.88414764404297,-26.472497940063477,-3.1518943309783936,34.598812103271484
1,1776231,25.86117935180664,33.1546745300293,50.41259002685547,7.097744941711426
1,1776234,4.649008274078369,23.088993072509766,33.415489196777344,13.588614463806152
1,1776235,-3.66683030128479,-13.50654411315918,0.29932138323783875,10.935140609741211
1,1776238,-64.6964340209961,-9.2923002243042,11.922660827636719,-50.501766204833984
1,1776239,-13.118510246276855,7.756669998168945,-77.49890899658203,-5.323071002960205
1,1776242,48.62974548339844,8.219711303710938,-56.46649169921875,26.904254913330078
1,1776243,10.317030906677246,-10.595829963684082,179.51910400390625,-18.890594482421875
1,1776246,-41.42072677612305,-6.615931987762451,0.2518538236618042,7.016166687011719
1,1776247,-4.751697063446045,-22.673463821411133,-170.0966339111328,29.72252082824707
1,1776250,63.94906234741211,-14.53615951538086,-32.78258514404297,-10.588234901428223
1,1776251,2.8170905113220215,37.826419830322266,84.58148193359375,-12.596637725830078
1,1776254,-32.8440055847168,45.0902214050293,119.8678207397461,29.47946548461914
1,1776255,6.709731578826904,-28.253931045532227,-51.10820770263672,3.0953872203826904
1,1776258,0.4072026014328003,-23.895689010620117,-42.388328552246094,-48.085418701171875
1,1776259,-4.5404157638549805,6.690715312957764,-36.278663635253906,11.280252456665039
1,1776262,14.749488830566406,-20.35091781616211,-36.372474670410156,39.26579666137695
1,1776263,14.9144868850708,18.729671478271484,176.2234649658203,-5.928863048553467
1,1776266,-32.2730712890625,31.617443084716797,-7.721924781799316,-17.73672866821289
1,1776267,-13.588987350463867,-12.117866516113281,-156.0506591796875,-12.410805702209473
1,1776270,14.902203559875488,-21.438451766967773,1.6533660888671875,-21.464014053344727
1,1776271,-18.42961883544922,3.1581082344055176,66.47174072265625,-17.048830032348633
1,1776274,2.585087776184082,28.69367218017578,51.23468780517578,28.37017822265625
1,1776275,6.468864917755127,-7.961310386657715,-21.641124725341797,30.114974975585938
1,1776278,-0.7953846454620361,-32.59428405761719,0.03126612305641174,7.25059700012207
1,1776279,10.125090599060059,-1.0781910419464111,-65.4642333984375,-3.652435541152954
1,1776282,2.441086769104004,18.301645278930664,-35.771488189697266,-17.26667022705078
1,1776283,15.123947143554688,33.709991455078125,163.92401123046875,-20.89995765686035
1,1776286,-24.142480850219727,-41.610687255859375,-20.484025955200195,-2.626901149749756
1,1776287,-25.35939598083496,-49.87766647338867,-137.9334716796875,27.992204666137695
1,1776290,47.721805572509766,66.73810577392578,32.254356384277344,31.15546226501465
1,1776291,11.955185890197754,25.502798080444336,57.30830764770508,-9.631178855895996
1,1776294,-10.849617958068848,-44.394126892089844,10.98000431060791,-54.45668029785156
1,1776295,14.51755142211914,3.5139620304107666,-14.609025001525879,1.6510387659072876
1,1776298,-17.223329544067383,15.038857460021973,-0.5741459727287292,32.84491729736328
1,1776299,-35.361114501953125,-34.086463928222656,-91.05018615722656,-22.390464782714844
1,1776302,-3.0412330627441406,14.933196067810059,-19.937063217163086,-11.835487365722656
1,1776303,43.630943298339844,56.3774299621582,208.31515502929688,28.145423889160156
1,1776306,-20.336040496826172,-34.797996520996094,-21.106536865234375,21.473129272460938
1,1776307,-46.831295013427734,-50.79853057861328,-187.395751953125,-9.571391105651855
1,1776310,81.78540802001953,17.046144485473633,8.788202285766602,-15.872982025146484
1,1776311,31.494461059570312,30.917932510375977,115.52213287353516,5.485152244567871
1,1776314,-80.01407623291016,-2.954711675643921,36.9892463684082,4.062541961669922
1,1776315,-20.684438705444336,-22.846769332885742,-56.84971237182617,-5.214958667755127
1,1776318,8.199889183044434,-2.090183734893799,7.206577301025391,-3.7160539627075195
1,1776319,24.110626220703125,14.704540252685547,-64.7797622680664,-13.132393836975098
1,1776322,34.645999908447266,23.493268966674805,-32.21257019042969,21.7852840423584
1,1776323,1.2874360084533691,31.799495697021484,174.65994262695312,9.648419380187988
1,1776326,-47.604671478271484,-47.328121185302734,-47.77155303955078,-33.1910514831543
1,1776327,-29.28996467590332,-49.134761810302734,-157.85433959960938,2.730006456375122
1,1776330,57.41895294189453,40.109947204589844,58.02788543701172,30.27660369873047
1,1776331,14.343735694885254,24.494722366333008,81.22908020019531,-4.984999179840088
1,1776334,-22.251577377319336,6.115474700927734,13.342041969299316,-29.336286544799805
1,1776335,2.2979023456573486,-15.28230094909668,-23.14339256286621,23.840600967407227
1,1776338,-13.177534103393555,-35.721256256103516,12.894709587097168,23.42713737487793
1,1776340,-6.416057109832764,-12.108861923217773,-87.90654754638672,-19.217111587524414
1,1776342,51.02539825439453,24.97087860107422,-7.694601058959961,-1.2575894594192505
1,1776344,21.659183502197266,44.367061614990234,203.23878479003906,6.908748626708984
1,1776346,-108.7747802734375,-25.855518341064453,-96.62940979003906,-27.801837921142578
1,1776348,-26.10004234313965,-18.14800453186035,-170.71107482910156,-5.773183345794678
1,1776350,90.10968017578125,20.207483291625977,65.09306335449219,28.0078067779541
1,1776352,-4.533553123474121,-28.956846237182617,66.69752502441406,-17.279512405395508
1,1776353,-36.062477111816406,9.087260246276855,31.271446228027344,-26.30279541015625
1,1776356,19.78144073486328,13.316332817077637,-7.588441371917725,27.102502822875977
1,1776357,-1.2382346391677856,-2.076965808868408,-28.063190460205078,20.41905403137207
1,1776362,-5.304141998291016,15.02243423461914,14.274551391601562,-35.26387023925781
1,1776362,39.37700271606445,6.502123832702637,-9.135766983032227,-1.8876383304595947
1,1776363,3.877875328063965,-14.61905288696289,6.663125038146973,38.115379333496094
1,1776366,-38.1595458984375,-30.439002990722656,51.55791473388672,-8.118454933166504
1,1776367,-16.395652770996094,2.093066692352295,-83.18987274169922,-26.146940231323242
1,1776370,8.927345275878906,-10.357537269592285,-92.87319946289062,18.22618293762207
1,1776371,22.25763702392578,30.70484733581543,87.9590835571289,21.97513198852539
1,1776374,10.090191841125488,61.741127014160156,108.11040496826172,-26.05280303955078
1,1776375,-13.279172897338867,-42.525516510009766,-57.77628707885742,-4.227479934692383
1,1776378,-26.863540649414062,-55.645381927490234,-54.87153244018555,26.721817016601562
1,1776379,-8.820470809936523,15.941025733947754,-51.41885757446289,-28.696226119995117
1,1776382,36.27198028564453,23.91489601135254,-30.575590133666992,2.2406630516052246
1,1776383,31.60259246826172,28.09769058227539,176.8831024169922,43.69099426269531
1,1776386,-41.95890808105469,-0.9133363366127014,38.25072479248047,-26.544235229492188
1,1776387,-41.67474365234375,-46.78052520751953,-136.7273712158203,-27.7957763671875
1,1776390,58.984107971191406,0.7666252255439758,-30.46470832824707,12.927144050598145
1,1776391,26.771692276000977,37.386470794677734,89.25267028808594,19.633710861206055
1,1776394,-32.75244903564453,7.1124587059021,68.50447845458984,13.881011009216309
1,1776395,-13.114117622375488,-39.460289001464844,-88.8457260131836,-11.190088272094727
1,1776398,-4.7862348556518555,-11.267317771911621,-23.06236457824707,-18.877119064331055
1,1776399,25.90355110168457,43.0687255859375,-14.642199516296387,16.157943725585938
1,1776402,-5.169074535369873,-11.295995712280273,-54.509605407714844,12.887513160705566
1,1776403,-21.19039535522461,-5.518040180206299,144.02972412109375,-32.185874938964844
1,1776406,-2.138932943344116,2.8676085472106934,23.823074340820312,-15.189565658569336
1,1776407,2.050105094909668,-54.59645080566406,-140.2900390625,25.761188507080078
1,1776410,33.02412414550781,2.2292492389678955,6.360078811645508,-3.6060941219329834
1,1776411,10.180560111999512,47.79397201538086,57.33967590332031,-27.04464340209961
1,1776414,-37.63694763183594,25.36969566345215,35.19844055175781,-7.126708030700684
1,1776415,-8.669703483581543,4.16844367980957,-2.3034732341766357,20.24879264831543
1,1776418,10.28038215637207,-53.015342712402344,-14.134678840637207,24.721765518188477
1,1776419,-13.127867698669434,-28.80016326904297,-74.81954956054688,-7.71415376663208
1,1776422,23.334861755371094,53.96649169921875,-47.20331954956055,8.417533874511719
1,1776423,23.21395492553711,5.55097770690918,163.8905029296875,0.3966606557369232
1,1776426,-41.741390228271484,-18.0108699798584,18.898345947265625,-10.179931640625
1,1776427,-30.741193771362305,16.257591247558594,-123.28314208984375,4.991017818450928
1,1776430,47.39704132080078,-11.299787521362305,-8.997971534729004,-5.129944801330566
1,1776431,50.627105712890625,21.766754150390625,43.62354278564453,7.915092468261719
1,1776434,-43.784847259521484,16.450414657592773,53.542903900146484,2.017758846282959
1,1776435,-55.42813491821289,-42.44832229614258,-41.327972412109375,-12.643121719360352
1,1776438,28.609506607055664,-13.106380462646484,-19.426218032836914,-10.603365898132324
1,1776439,30.498498916625977,9.888789176940918,-35.807315826416016,5.48593807220459
1,1776442,-8.83890151977539,20.466745376586914,-24.482410430908203,6.420421600341797
1,1776443,9.396001815795898,19.715492248535156,174.30242919921875,4.415712356567383
1,1776446,-11.762040138244629,-27.510408401489258,-2.5292861461639404,-3.364316463470459
1,1776447,-24.370302200317383,-28.105932235717773,-152.58714294433594,0.09360970556735992
1,1776450,21.50400733947754,26.744245529174805,-11.227398872375488,-3.2180099487304688
1,1776451,21.949337005615234,30.789566040039062,57.544349670410156,10.608962059020996
1,1776454,3.088282346725464,-29.17205810546875,52.678627014160156,30.93185806274414
1,1776455,-24.41455841064453,-27.50197982788086,-23.532045364379883,-43.6950798034668
1,1776458,-23.047527313232422,20.807331085205078,-1.4726835489273071,-25.489477157592773
1,1776459,6.863138675689697,-0.03787951171398163,-67.87422180175781,33.8145751953125
1,1776462,15.348010063171387,0.9947117567062378,-47.144744873046875,15.42190170288086
1,1776463,14.234216690063477,27.70876693725586,170.4685821533203,-11.108999252319336
1,1776466,-16.63846206665039,6.165243625640869,13.054790496826172,-11.456094741821289
1,1776467,-20.10186767578125,-34.360050201416016,-131.97300720214844,25.03597068786621
1,1776470,4.6904425621032715,-33.90138626098633,-18.345909118652344,-25.935312271118164
1,1776471,16.36171531677246,10.291007041931152,35.287078857421875,-52.660160064697266
1,1776474,1.4870457649230957,35.1807746887207,66.23201751708984,59.47711944580078
1,1776475,-17.25490379333496,13.059229850769043,0.022856730967760086,40.66828155517578
1,1776478,7.43189001083374,-17.247936248779297,-25.343719482421875,-67.16752624511719
1,1776479,13.224973678588867,-32.269126892089844,-81.57432556152344,-18.5379695892334
1,1776482,24.123123168945312,-17.757749557495117,-32.248443603515625,57.8072509765625
1,1776483,38.00088119506836,65.59280395507812,213.15988159179688,16.976276397705078
1,1776486,-55.38275909423828,32.51480484008789,-0.1936345100402832,-50.6649169921875
1,1776487,-63.58578872680664,-65.63116455078125,-187.37921142578125,-24.477603912353516
1,1776490,39.03702163696289,-10.58852481842041,3.435760974884033,46.05316162109375
1,1776491,31.081893920898438,41.02598190307617,67.68928527832031,27.131982803344727
1,1776494,0.7589830160140991,18.339088439941406,47.91638946533203,-19.382761001586914
1,1776495,-8.425521850585938,-21.55496597290039,-16.87568473815918,-16.449100494384766
1,1776498,-5.90852165222168,-17.10137176513672,-20.561735153198242,-11.408329010009766
1,1776499,8.206483840942383,13.874043464660645,-62.96405792236328,30.261703491210938
