Aktueller Finger,timestamp_ms,sensor_0,sensor_1,sensor_2,sensor_3
0,1019015,32.43893814086914,-16.928165435791016,7.075024604797363,-5.581194877624512
0,1019015,14.068785667419434,15.961432456970215,-6.815345287322998,74.05741119384766
0,1019017,-6.127411365509033,-5.821815013885498,22.51622200012207,28.842769622802734
0,1019018,-7.136287212371826,-6.582072734832764,-3.7675094604492188,-40.55947494506836
0,1019021,18.986927032470703,-1.0766950845718384,-29.923070907592773,-98.4818344116211
0,1019022,-7.578878402709961,5.5691447257995605,14.813596725463867,-14.826613426208496
0,1019025,-45.08155059814453,24.285823822021484,-0.8542364239692688,130.67501831054688
0,1019026,43.67414474487305,25.446020126342773,3.707509994506836,51.495513916015625
0,1019029,18.915786743164062,-46.93928527832031,12.62315559387207,-101.29391479492188
0,1019030,-58.953514099121094,-72.57321166992188,-19.005876541137695,-53.91510009765625
0,1019033,35.31681823730469,42.12168502807617,12.90284538269043,51.533302307128906
0,1019034,19.77662467956543,48.097450256347656,-2.501812219619751,-6.666003704071045
0,1019037,-43.336265563964844,-20.984153747558594,-7.718042850494385,-19.104780197143555
0,1019038,-0.29637569189071655,0.2795710265636444,0.270291268825531,29.631847381591797
0,1019041,25.600915908813477,-15.326194763183594,-27.43088722229004,-18.27803611755371
0,1019042,-4.172400951385498,-14.022499084472656,25.136566162109375,0.412863552570343
0,1019045,14.16149616241455,48.534175872802734,13.11525821685791,95.18818664550781
0,1019046,-5.063587188720703,-28.268310546875,-9.668754577636719,-4.59812593460083
0,1019049,-46.365421295166016,-38.5076789855957,34.376914978027344,-130.38743591308594
0,1019050,30.930883407592773,69.9727554321289,-7.463371753692627,-15.419599533081055
0,1019053,22.941566467285156,34.55042266845703,-46.194705963134766,38.357200622558594
0,1019054,-13.840213775634766,-19.61482810974121,1.7117671966552734,16.658205032348633
0,1019057,-0.33322542905807495,-37.132266998291016,22.62131690979004,18.386680603027344
0,1019058,0.23370987176895142,-19.393400192260742,0.16177651286125183,-10.372390747070312
0,1019061,-1.9477667808532715,6.4728169441223145,-7.687345504760742,-29.601953506469727
0,1019062,-2.6978604793548584,4.804501533508301,-5.790462970733643,17.113832473754883
0,1019065,8.33168888092041,20.094348907470703,-8.780545234680176,123.40182495117188
0,1019066,7.722463130950928,-7.139756202697754,4.685252666473389,32.75411605834961
0,1019069,-26.946125030517578,-34.62507629394531,9.187715530395508,-141.94573974609375
0,1019070,-21.195528030395508,-14.442652702331543,-15.071128845214844,-75.45491790771484
0,1019073,61.78260803222656,48.15737533569336,-0.9216077327728271,87.19081115722656
0,1019074,4.555502414703369,40.46943283081055,28.504657745361328,38.14120864868164
0,1019077,-61.182350158691406,-51.924015045166016,0.4451710879802704,-65.0044937133789
0,1019078,3.6974613666534424,-44.44688415527344,-13.947479248046875,-16.91526985168457
0,1019081,26.107627868652344,47.04595184326172,2.3046154975891113,61.71072006225586
0,1019082,-15.746495246887207,25.496828079223633,-30.549503326416016,-11.712227821350098
0,1019085,-4.869379997253418,-15.260199546813965,3.7836668491363525,-68.82754516601562
0,1019086,37.28338623046875,0.1899508535861969,46.2943115234375,22.07180404663086
0,1019089,-16.671857833862305,-17.152193069458008,-7.555295944213867,37.00178909301758
0,1019090,-11.687699317932129,27.5429744720459,-13.816880226135254,17.81265640258789
0,1019093,43.64769744873047,36.78303146362305,23.393566131591797,2.727684259414673
0,1019094,3.1619465351104736,-37.156192779541016,1.6521906852722168,12.724165916442871
0,1019097,-50.15019989013672,-45.454647064208984,-34.58011245727539,0.8696386814117432
0,1019098,-17.088260650634766,-1.7176599502563477,-2.3155572414398193,-40.362369537353516
0,1019101,31.65312385559082,17.54168128967285,16.24570655822754,-0.861952006816864
0,1019102,9.867738723754883,14.615564346313477,-1.578446626663208,-26.457216262817383
0,1019105,-19.207027435302734,7.424461841583252,-8.62571907043457,-32.092498779296875
0,1019106,-12.639093399047852,-0.8746985197067261,3.906815767288208,51.14633560180664
0,1019109,-26.54121971130371,-53.21614074707031,-41.80698013305664,-12.766892433166504
0,1019110,-47.047752380371094,-44.14630889892578,-22.365171432495117,-36.62527084350586
0,1019113,217.98577880859375,208.37513732910156,221.06576538085938,176.8643341064453
0,1019114,66.50619506835938,71.54023742675781,5.864809989929199,49.87956237792969
0,1019117,-293.0944519042969,-271.8513488769531,-279.6975402832031,-177.4809112548828
0,1019118,32.35224151611328,-17.280893325805664,39.30378723144531,5.829160213470459
0,1019121,98.1519546508789,112.54173278808594,111.67774200439453,19.86553192138672
0,1019122,-46.398380279541016,-7.6626081466674805,-27.760875701904297,-73.66593933105469
0,1019125,10.490987777709961,9.84875774383545,9.521124839782715,-8.01932430267334
0,1019126,17.097349166870117,-10.233602523803711,23.527496337890625,68.89331817626953
0,1019129,-8.748600959777832,-35.134925842285156,-35.04633712768555,8.165534973144531
0,1019130,-26.16655158996582,-12.045839309692383,-56.08445739746094,-38.029266357421875
0,1019133,23.610340118408203,26.781959533691406,21.18164825439453,17.775726318359375
0,1019134,-7.358125686645508,-16.062768936157227,28.56599235534668,1.3181287050247192
0,1019389,-66.56752014160156,-25.019733428955078,-6.546797275543213,11.633056640625
0,1019391,60.626155853271484,82.77996826171875,25.142780303955078,40.90818405151367
0,1019393,114.5494384765625,63.122196197509766,36.4365234375,1.111136555671692
0,1019395,-36.43711471557617,-70.28418731689453,-21.05714988708496,-67.77527618408203
0,1019397,-80.8037338256836,-33.582637786865234,-6.311028957366943,52.894412994384766
0,1019399,24.950992584228516,68.90974426269531,36.8227653503418,69.9673080444336
0,1019401,28.12386131286621,-4.532517910003662,-78.44635009765625,-132.27061462402344
0,1019403,-58.556339263916016,-77.95506286621094,-78.42118835449219,-16.62992286682129
0,1019404,34.72919464111328,2.5054736137390137,111.2776870727539,104.87393188476562
0,1051387,15.52451229095459,34.19939041137695,70.6085433959961,-26.81440544128418
0,1051388,-83.26251220703125,-10.563847541809082,-92.04425811767578,-39.035396575927734
0,1051391,46.27714920043945,-1.5273619890213013,-29.288192749023438,-13.957939147949219
0,1051392,-50.362701416015625,-45.483070373535156,23.336742401123047,-16.427871704101562
0,1051395,-31.796772003173828,-15.521336555480957,-18.81350326538086,11.681961059570312
0,1051396,171.27789306640625,108.21147918701172,39.653141021728516,31.284603118896484
0,1051399,-41.08837890625,1.0427566766738892,40.837379455566406,20.795604705810547
0,1051400,-55.1033935546875,-63.9193229675293,-28.20246696472168,-13.934621810913086
0,1051403,32.53573226928711,22.847089767456055,-38.31734085083008,-41.55223846435547
0,1051404,-38.046077728271484,-19.96806526184082,-3.8102595806121826,-1.1493910551071167
0,1051407,40.45991516113281,15.582120895385742,23.406404495239258,70.60799407958984
0,1051408,14.890725135803223,38.75062561035156,1.8254855871200562,-8.491854667663574
0,1051411,-16.185699462890625,-36.2900505065918,11.15164566040039,-26.682674407958984
0,1051412,25.512392044067383,10.245656967163086,5.429375171661377,9.090730667114258
0,1051415,-0.18332050740718842,-1.5689358711242676,-34.11836624145508,-9.760491371154785
0,1051416,-39.548583984375,-13.331246376037598,16.269458770751953,21.9218692779541
0,1051419,-27.544069290161133,27.365041732788086,15.254737854003906,-32.59464645385742
0,1051420,-1.4201555252075195,-5.754674911499023,-50.08325958251953,-27.273746490478516
0,1051423,-8.171167373657227,-50.04423141479492,11.371831893920898,22.489839553833008
0,1051424,46.39856719970703,1.779157042503357,46.895347595214844,38.75830078125
0,1051427,1.4823178052902222,12.74731731414795,-28.091978073120117,0.7949509024620056
0,1051428,-55.1237678527832,-68.16388702392578,-37.6700439453125,-52.05259323120117
0,1051431,27.98384666442871,47.707035064697266,40.34455871582031,39.45191192626953
0,1051432,15.71434497833252,109.84953308105469,42.160362243652344,33.08514404296875
0,1051435,26.82954216003418,-52.003753662109375,-13.038908004760742,-46.781185150146484
0,1051436,-16.374692916870117,-120.27665710449219,-61.6612663269043,-7.900334358215332
0,1051439,-69.07913208007812,43.900367736816406,-17.594900131225586,13.335119247436523
0,1051440,51.47280502319336,128.58876037597656,80.689453125,6.638215065002441
0,1051443,16.747922897338867,-25.875259399414062,-12.180395126342773,12.338552474975586
0,1051444,-21.050695419311523,-37.407630920410156,-55.28352355957031,-50.0866813659668
0,1051447,26.32321548461914,23.314006805419922,40.5694465637207,-2.3318846225738525
0,1051448,5.967792987823486,-22.927265167236328,30.13475799560547,52.412872314453125
0,1051451,2.360523223876953,-17.71402931213379,-36.96926498413086,-33.26921463012695
0,1051452,-33.42253494262695,13.332892417907715,-6.395378589630127,6.908731937408447
0,1051455,-16.073883056640625,-8.204288482666016,37.999786376953125,30.49751853942871
0,1051456,18.720401763916016,-3.24234676361084,-14.036332130432129,-20.65848731994629
0,1051459,28.581512451171875,10.482157707214355,-19.86858558654785,3.995911121368408
0,1051460,-3.592615842819214,11.796565055847168,30.723800659179688,8.618871688842773
0,1051463,-35.83443069458008,-7.5549116134643555,18.171932220458984,-11.618609428405762
0,1051464,23.928905487060547,-49.43843078613281,-37.03644943237305,-23.522390365600586
0,1051467,-13.741466522216797,1.430515170097351,-40.171852111816406,10.690171241760254
0,1051468,-25.930316925048828,46.80584716796875,7.608126163482666,9.630707740783691
0,1051471,49.08641052246094,22.956493377685547,27.717111587524414,-32.9327392578125
0,1051472,-6.8076491355896,8.998900413513184,11.45896053314209,15.103458404541016
0,1051475,-47.52983856201172,-47.01490020751953,-0.7485290765762329,22.967538833618164
0,1051476,19.59151840209961,-34.974369049072266,-18.496736526489258,-13.191404342651367
0,1051479,13.733049392700195,38.94868087768555,-12.999615669250488,17.905012130737305
0,1051480,-0.5968412160873413,12.790203094482422,26.701705932617188,-12.167634963989258
0,1051483,41.18534851074219,-2.852851629257202,5.043917179107666,-29.739145278930664
0,1051484,5.9267578125,-6.698929786682129,-6.504302024841309,58.16942596435547
0,1051487,-36.562862396240234,-0.8597701191902161,-9.79300594329834,10.869150161743164
0,1051488,-23.358829498291016,0.1735326647758484,-3.6615970134735107,-37.093379974365234
0,1051491,16.34636688232422,-17.11229705810547,27.841115951538086,4.792801380157471
0,1051492,19.960769653320312,13.268342018127441,-15.370241165161133,-1.6589936017990112
0,1051495,-35.767459869384766,-5.400996208190918,-83.2291030883789,-122.7446517944336
0,1051496,11.350629806518555,23.13682746887207,22.670827865600586,24.85394287109375
0,1051499,38.469234466552734,30.732540130615234,109.16159057617188,219.50473022460938
0,1051500,-51.481048583984375,-72.80201721191406,-13.902706146240234,-61.548099517822266
0,1051503,-3.9768247604370117,3.0489540100097656,-26.34771156311035,-92.68841552734375
0,1051504,40.18962097167969,59.14638900756836,-15.910452842712402,14.595657348632812
0,1051507,-42.098358154296875,-20.955995559692383,-6.493442058563232,14.182868957519531
0,1051508,11.468818664550781,-23.783126831054688,5.682708740234375,12.652327537536621
0,1051511,30.744020462036133,-1.6620718240737915,-3.612903594970703,-14.272733688354492
0,1051512,-9.139951705932617,2.6311004161834717,17.505395889282227,21.441814422607422
0,1051515,5.514145374298096,-13.112505912780762,-3.1616032123565674,1.8138163089752197
0,1051516,-15.978684425354004,1.7636380195617676,0.5586022138595581,-10.518969535827637
0,1051519,12.827865600585938,22.540090560913086,-11.088443756103516,-26.383310317993164
0,1051520,-5.01154899597168,-17.110580444335938,-25.712148666381836,-21.041404724121094
0,1051523,-18.25044059753418,-10.093910217285156,-10.105957984924316,-6.954775333404541
0,1051525,21.90119743347168,40.17617416381836,44.063568115234375,21.58990478515625
0,1051527,14.30306339263916,4.523886680603027,28.292438507080078,24.144147872924805
0,1051529,-26.054927825927734,-7.483596324920654,-33.45848083496094,-40.3250732421875
0,1051531,-15.68515396118164,18.26137351989746,0.1910170316696167,30.769914627075195
0,1051533,6.638010501861572,-12.840154647827148,24.602401733398438,58.294288635253906
0,1051535,-5.03502893447876,-24.37236976623535,-15.176759719848633,-71.18284606933594
0,1051537,18.953468322753906,-12.123814582824707,2.7565066814422607,-1.2030339241027832
0,1051539,-16.361129760742188,0.6431602835655212,-18.437923431396484,20.470645904541016
0,1051541,5.131230354309082,10.06521987915039,-32.21288299560547,-18.3566951751709
0,1051544,34.64273452758789,-21.43479347229004,31.8198184967041,43.65578842163086
0,1051544,-41.867591857910156,6.732393741607666,30.956266403198242,-29.74961280822754
0,1051547,-19.908084869384766,33.930084228515625,-2.105252981185913,-14.818441390991211
0,1051548,26.85717010498047,-23.067846298217773,-24.54717445373535,31.354509353637695
0,1051551,20.42557716369629,-115.94320678710938,-23.7767276763916,-29.156400680541992
0,1051552,7.977944374084473,59.979976654052734,0.8544604778289795,36.21367645263672
0,1051555,-24.137554168701172,199.99130249023438,38.950439453125,39.59855651855469
0,1051556,7.8362274169921875,-81.18025970458984,20.744434356689453,-61.25775909423828
0,1051559,23.431209564208984,-69.27111053466797,-7.840019226074219,15.805971145629883
0,1051560,-27.293371200561523,47.59502029418945,-28.94083023071289,10.082504272460938
0,1051563,-18.966073989868164,-12.869107246398926,-11.291593551635742,-59.24708938598633
0,1051564,22.488243103027344,33.13727569580078,13.739622116088867,31.82089614868164
0,1051567,2.236279010772705,11.49639892578125,-29.02672004699707,14.76421070098877
0,1051568,-11.42166805267334,-76.73348999023438,-1.7716002464294434,-39.7454833984375
0,1051571,12.905216217041016,9.763317108154297,41.60958480834961,41.53390884399414
0,1051572,7.783397674560547,62.14450454711914,8.907922744750977,2.298030138015747
0,1051575,3.5438644886016846,-50.66523742675781,8.8217191696167,-64.29962158203125
0,1051576,-10.569185256958008,-48.418983459472656,7.445517539978027,11.308857917785645
0,1051579,-2.9312679767608643,27.20427703857422,-33.9774169921875,61.83439254760742
0,1051580,2.9688174724578857,34.59664535522461,-23.155750274658203,24.50000762939453
0,1051583,-20.417076110839844,-25.415271759033203,18.75033950805664,-54.64924621582031
0,1051584,-20.10488510131836,-31.18720054626465,1.7026231288909912,-12.562284469604492
0,1051587,1.9552704095840454,8.108960151672363,-18.335594177246094,13.135055541992188
0,1051588,41.62628936767578,2.583314895629883,23.593807220458984,-7.756194591522217
0,1051591,26.66319465637207,26.522705078125,5.864856719970703,33.38935852050781
0,1051592,-19.089649200439453,25.849201202392578,-38.9752082824707,-10.319818496704102
0,1051595,-6.714544296264648,-10.454625129699707,13.61980152130127,-7.0050554275512695
0,1051596,-0.3812350332736969,-7.0513200759887695,25.891002655029297,3.045656681060791
0,1051599,-25.692081451416016,-21.365310668945312,-25.99982261657715,-26.675064086914062
0,1051600,3.558830738067627,-2.748464345932007,8.137474060058594,11.166090965270996
0,1051603,2.8643758296966553,17.883411407470703,27.70335578918457,-11.530424118041992
0,1051604,-21.929790496826172,3.760899066925049,-22.035945892333984,15.621803283691406
0,1051607,37.44272994995117,-6.965714454650879,8.885540008544922,29.145971298217773
0,1051608,-0.9492798447608948,0.9772617816925049,46.2200813293457,-28.42151641845703
0,1051611,-19.237600326538086,1.2238589525222778,-38.11861801147461,8.644908905029297
0,1051612,6.707921981811523,-7.68546724319458,-40.812320709228516,-1.1289554834365845
0,1051615,-10.283226013183594,-2.0643842220306396,18.08481788635254,-0.11799687892198563
0,1051616,47.00563430786133,28.114887237548828,-0.18443013727664948,17.489606857299805
0,1051619,3.604663372039795,21.867557525634766,20.741952896118164,-35.979331970214844
0,1051620,-55.02458190917969,-77.34197235107422,11.866239547729492,-1.3615951538085938
0,1051623,13.022055625915527,7.400084495544434,-39.081016540527344,6.44824743270874
0,1051624,19.861778259277344,80.16929626464844,-15.451767921447754,-9.494298934936523
0,1051627,-21.395832061767578,-50.70170211791992,3.220374584197998,37.115116119384766
0,1051628,18.306039810180664,-13.702850341796875,3.2889745235443115,5.228677272796631
0,1051631,-2.832184076309204,24.587390899658203,31.035478591918945,-29.735872268676758
0,1051632,-45.244327545166016,-26.699657440185547,1.9164104461669922,1.0672473907470703
0,1051635,15.04350471496582,28.648347854614258,-14.331891059875488,13.021550178527832
0,1051636,40.573707580566406,5.394278049468994,1.7451616525650024,-1.4555405378341675
0,1051639,9.675665855407715,-42.991458892822266,1.7674899101257324,-1.3278177976608276
0,1051640,-23.226991653442383,18.21755027770996,31.653303146362305,-5.207785129547119
0,1051643,-28.669452667236328,18.403034210205078,-11.229623794555664,-10.615537643432617
0,1051644,10.716998100280762,-7.125728607177734,-30.54189682006836,10.589991569519043
0,1051647,43.28612518310547,6.654062747955322,14.668055534362793,-13.182586669921875
0,1051648,-14.773776054382324,-21.616111755371094,2.111508369445801,-0.14400134980678558
0,1051651,-25.66202735900879,1.3912124633789062,9.040555953979492,48.77943420410156
0,1051652,19.904888153076172,28.640138626098633,-5.836972236633301,-40.41854476928711
0,1051655,-21.463661193847656,-20.839859008789062,-17.76968765258789,-36.55718994140625
0,1051656,-18.046361923217773,-26.805404663085938,12.701998710632324,64.68724060058594
0,1051659,-2.0065724849700928,7.6235527992248535,-2.415225028991699,37.06842803955078
0,1051660,26.114604949951172,18.81161880493164,-27.552276611328125,-6.309595108032227
0,1051663,35.325706481933594,-1.3559832572937012,14.620604515075684,-49.554195404052734
0,1051664,-15.284006118774414,-7.128398418426514,40.54206085205078,-44.45267868041992
0,1051667,-41.17324447631836,-23.517915725708008,-47.30646514892578,4.154538631439209
0,1051668,37.721763610839844,30.847768783569336,-14.829663276672363,33.410362243652344
0,1051671,67.42710876464844,57.81351852416992,48.702823638916016,14.096010208129883
0,1051672,-77.8973617553711,-37.290096282958984,-2.0664403438568115,-28.330373764038086
0,1051675,-32.78253936767578,-21.79079246520996,-14.952005386352539,14.923203468322754
0,1051676,38.18880081176758,9.41734504699707,-11.55259895324707,10.036604881286621
0,1051679,28.819103240966797,-1.4287915229797363,17.083724975585938,-26.63587188720703
0,1051680,6.063129425048828,-1.419075846672058,12.815692901611328,4.520988941192627
0,1051683,-43.03599548339844,-3.070897102355957,3.3668787479400635,9.58305549621582
0,1051685,14.043524742126465,22.516498565673828,5.905422210693359,5.0572333335876465
0,1051687,-29.842744827270508,3.564685821533203,-22.06562614440918,42.678367614746094
0,1051689,-24.60593605041504,-46.88200378417969,-29.8247127532959,-22.8798885345459
0,1051691,41.645668029785156,-14.100573539733887,6.234713554382324,-28.315444946289062
0,1051693,-20.072988510131836,19.10776138305664,23.351177215576172,21.598186492919922
0,1051695,1.833733081817627,-10.595990180969238,-29.82689094543457,-37.432979583740234
0,1051697,31.594295501708984,10.529568672180176,-19.953275680541992,9.739320755004883
0,1051699,-15.800471305847168,4.799338340759277,41.150386810302734,24.08563232421875
0,1051701,18.77683448791504,6.8313374519348145,41.402549743652344,-1.788394570350647
0,1051703,27.809080123901367,16.02913475036621,-44.36487579345703,8.327462196350098
0,1051705,-44.550750732421875,2.8437721729278564,-10.267295837402344,-30.25743865966797
0,1051707,0.7534396052360535,19.73151206970215,41.68159866333008,-22.17173194885254
0,1051709,15.807517051696777,-29.439075469970703,-36.149757385253906,40.47101974487305
0,1051711,-31.05413246154785,31.819286346435547,28.553937911987305,25.22429656982422
0,1051713,35.253482818603516,17.42272186279297,12.876382827758789,-38.291500091552734
0,1051715,27.378881454467773,-106.98137664794922,-48.47379684448242,-6.603462219238281
0,1051717,-59.456241607666016,-3.3363852500915527,28.2766056060791,23.703941345214844
0,1051719,-17.66085433959961,57.44636917114258,-15.175647735595703,-9.559874534606934
0,1051721,31.771291732788086,3.760335922241211,-37.60417938232422,-10.234125137329102
0,1051723,10.76474666595459,23.22797966003418,91.92162322998047,15.591577529907227
0,1051725,24.638137817382812,-0.5984940528869629,43.52008056640625,-4.922067642211914
0,1051727,-32.51669692993164,-46.234188079833984,-119.41022491455078,-22.8525390625
0,1051729,-37.39742660522461,4.23403263092041,-29.0156307220459,28.274751663208008
0,1051731,48.11262512207031,16.07429313659668,75.7949447631836,45.154842376708984
0,1051733,3.158332586288452,-2.4425342082977295,6.480484962463379,-32.23090744018555
0,1051735,-22.698612213134766,15.78158950805664,-37.733150482177734,-27.274803161621094
0,1051737,9.002103805541992,-0.5002349615097046,-9.745914459228516,15.41745376586914
0,1051739,-3.9872138500213623,-4.425562858581543,22.357666015625,-8.77880859375
0,1051741,-17.86880874633789,-14.543571472167969,-13.76424789428711,-5.733987331390381
0,1051743,-15.131467819213867,-42.87648010253906,-0.3529479503631592,7.2516374588012695
0,1051745,24.206451416015625,0.3944322466850281,18.197593688964844,22.103221893310547
0,1051747,9.426796913146973,79.49829864501953,8.64303207397461,14.807421684265137
0,1051749,-17.549604415893555,39.870208740234375,33.293556213378906,-36.24162673950195
0,1051751,12.624155044555664,-90.16676330566406,-49.66676330566406,-54.4563102722168
0,1051753,10.263050079345703,-37.284584045410156,-59.012264251708984,13.733314514160156
0,1051755,5.753177642822266,57.522762298583984,62.258750915527344,44.42854690551758
0,1051757,24.444589614868164,17.013578414916992,35.138580322265625,-4.6432061195373535
0,1051759,-8.683493614196777,-2.290158271789551,-55.5709114074707,15.337493896484375
0,1051761,-39.35539627075195,-14.232993125915527,-28.73541259765625,41.19166564941406
0,1051763,-3.1733102798461914,-16.559999465942383,34.128028869628906,-13.277727127075195
0,1051765,13.593401908874512,6.678511142730713,34.80992889404297,-45.903568267822266
0,1051767,32.735801696777344,-10.669048309326172,-7.62202787399292,16.591829299926758
0,1051769,33.7731819152832,9.84873104095459,9.46983814239502,45.478004455566406
0,1051771,-39.72053146362305,23.971010208129883,-2.97942852973938,-92.96024322509766
0,1051773,-65.37525939941406,-20.105398178100586,-24.343767166137695,-83.7034683227539
0,1051775,-16.026609420776367,12.22374439239502,22.366865158081055,118.90438079833984
0,1051777,46.498573303222656,8.621758460998535,11.118351936340332,48.45817184448242
0,1051779,28.19756317138672,-46.94019317626953,-51.697486877441406,-64.24987030029297
0,1051781,-34.53565979003906,17.426620483398438,-2.323486804962158,51.89229202270508
0,1051783,32.11613082885742,43.820499420166016,103.96617126464844,5.984932899475098
0,1051785,30.88643455505371,0.16991016268730164,-15.913973808288574,-90.69136810302734
0,1051787,-87.5135269165039,-48.584285736083984,-164.1607666015625,-38.64673614501953
0,1051789,-1.545850157737732,-58.262351989746094,7.535139560699463,26.72532844543457
0,1051791,68.76063537597656,62.23484420776367,136.40335083007812,75.78124237060547
0,1051793,-34.16576385498047,52.05841827392578,-28.975133895874023,18.9051570892334
0,1051795,-11.288293838500977,-2.8617372512817383,-42.647560119628906,17.69232749938965
0,1051797,27.257856369018555,15.092171669006348,71.95913696289062,15.577254295349121
0,1051799,8.532020568847656,-57.928062438964844,4.517489433288574,-56.861690521240234
0,1051801,8.43582534790039,-25.71843719482422,-68.1726303100586,-29.829832077026367
0,1051803,-18.1301212310791,32.93397903442383,-13.661596298217773,-23.26004981994629
0,1051805,-33.29629898071289,-31.36380386352539,13.479859352111816,11.324755668640137
0,1051807,4.321821212768555,13.782175064086914,30.195091247558594,72.83940124511719
0,1051809,35.0720100402832,49.671142578125,27.32026481628418,23.20008659362793
0,1051811,8.98145580291748,1.6642786264419556,-27.615142822265625,-51.93781280517578
0,1051813,6.702999114990234,17.62619972229004,7.584099292755127,5.393101692199707
0,1051815,-33.38043212890625,-33.44361877441406,-15.586849212646484,-7.574961185455322
0,1051817,-9.500436782836914,-78.09981536865234,-32.86153030395508,-74.07002258300781
0,1051819,32.66571044921875,-10.762613296508789,25.93981170654297,45.66189193725586
0,1051821,-12.850224494934082,58.68800354003906,15.277853965759277,53.70943832397461
0,1051823,-3.5419349670410156,18.353050231933594,-4.987916946411133,-60.942176818847656
0,1051825,0.4643900990486145,-38.137088775634766,-17.878955841064453,-19.634506225585938
0,1051827,15.369160652160645,26.988557815551758,20.360877990722656,42.435890197753906
0,1051829,10.822722434997559,27.509492874145508,5.514407634735107,-14.509797096252441
0,1051831,-48.77582550048828,-10.207992553710938,-29.94959259033203,-23.83827018737793
0,1051833,-31.79849624633789,-12.84710693359375,-1.1158249378204346,22.379615783691406
0,1051835,33.9686279296875,-33.30070495605469,10.889162063598633,24.04720115661621
0,1051837,23.93494415283203,33.32200241088867,36.97051239013672,14.371474266052246
0,1051839,16.688705444335938,65.63195037841797,48.31652069091797,8.597246170043945
0,1051841,10.678418159484863,-12.487920761108398,-1.5680880546569824,-16.65805435180664
0,1051843,-41.9971809387207,-37.11503982543945,-89.50531005859375,-18.6821231842041
0,1051845,-35.185935974121094,-41.49350357055664,-60.6141357421875,41.802181243896484
0,1051847,23.518033981323242,-1.6446033716201782,48.32969284057617,-6.302461624145508
0,1051849,48.979522705078125,48.89421463012695,29.1304988861084,-21.189226150512695
0,1051851,25.2203311920166,-27.796855926513672,-8.164212226867676,50.186668395996094
0,1051853,-21.6187686920166,-46.38754653930664,3.18761944770813,-36.08649826049805
0,1051856,-27.162425994873047,36.7191162109375,-10.064179420471191,-63.09281921386719
0,1051857,4.468117713928223,56.43019104003906,14.828408241271973,-13.99443531036377
0,1051858,-23.67786407470703,-10.572736740112305,-6.328197956085205,9.55002498626709
0,1051861,-26.36966896057129,-48.51705551147461,-25.586214065551758,38.62054443359375
0,1051862,38.5523567199707,-23.00373649597168,42.38511276245117,23.34926986694336
0,1051865,14.785895347595215,21.249927520751953,27.89039421081543,39.97865676879883
0,1051866,-38.4620475769043,37.768245697021484,-16.050811767578125,-35.06178665161133
0,1051869,-5.86140251159668,1.0652880668640137,-32.40492630004883,-91.0362777709961
0,1051870,23.618898391723633,-36.7188606262207,-14.594451904296875,59.78327941894531
0,1051873,33.50088119506836,-6.866703510284424,28.992895126342773,87.19825744628906
0,1051874,8.152216911315918,39.227779388427734,-14.938222885131836,-28.07008934020996
0,1051877,-18.533668518066406,20.486675262451172,4.977913856506348,-78.1958999633789
0,1051878,10.629786491394043,21.665733337402344,31.2983455657959,-70.9070053100586
0,1051881,-15.028285026550293,11.053190231323242,-21.012144088745117,35.680908203125
0,1051882,-38.02150344848633,-46.81733703613281,-23.69856071472168,44.70301818847656
0,1051885,1.717939853668213,-54.752872467041016,31.297657012939453,16.721290588378906
0,1051886,78.08902740478516,34.5454216003418,32.19261169433594,86.56098937988281
0,1051889,-9.162047386169434,16.478046417236328,-49.34468460083008,-1.690091609954834
0,1051890,-127.1774673461914,-54.70650863647461,-12.095848083496094,-69.62572479248047
0,1051893,48.33439636230469,11.281067848205566,20.36080551147461,-3.272427558898926
0,1051894,80.29158020019531,7.117696285247803,-10.677078247070312,-13.364251136779785
0,1051897,-19.739810943603516,3.704146146774292,18.850126266479492,3.683002471923828
0,1051898,-10.837164878845215,0.06660222262144089,2.271347761154175,12.513704299926758
0,1051902,-43.39363098144531,-26.6618595123291,-58.768672943115234,-54.79331588745117
0,1051903,-29.6601619720459,16.100698471069336,-63.64042663574219,-6.288332462310791
0,1051905,28.441024780273438,23.46675682067871,22.626527786254883,34.93330764770508
0,1051907,82.89067840576172,51.97492599487305,158.61770629882812,3.5711512565612793
0,1051909,43.96894836425781,16.626605987548828,42.64119338989258,25.4259090423584
0,1051911,-108.84297943115234,-57.87423324584961,-131.3645782470703,-4.766901016235352
0,1051913,-68.24906158447266,-8.373334884643555,-13.891209602355957,-39.2024040222168
0,1051915,88.4890365600586,-8.994016647338867,17.51221466064453,27.57892608642578
0,1051917,0.08490408957004547,-10.969595909118652,3.5464963912963867,35.21086883544922
0,1051919,-56.55729675292969,2.203640937805176,13.65225601196289,-40.70643615722656
0,1051921,42.02630615234375,-17.86160659790039,-30.249465942382812,-14.121227264404297
0,1051923,40.16041946411133,34.71359634399414,39.97209930419922,61.76844024658203
0,1051925,2.4318766593933105,-4.601627826690674,11.408458709716797,-30.1572265625
0,1051927,-31.895910263061523,-19.42308807373047,-46.01080322265625,-54.343048095703125
0,1051929,-4.7669596672058105,28.297250747680664,23.91521644592285,61.95326614379883
0,1051931,25.303585052490234,6.637380599975586,9.61824893951416,-0.07078950852155685
0,1051933,-8.213408470153809,2.2353761196136475,-16.76137351989746,-54.91455078125
0,1051935,3.5556516647338867,-1.3908324241638184,19.47275733947754,26.522132873535156
0,1051937,8.09047794342041,-0.2324036955833435,4.658156871795654,29.068159103393555
0,1051939,-31.910951614379883,3.2641654014587402,-37.6549186706543,-30.545774459838867
0,1051941,-44.712242126464844,0.36825475096702576,-37.73268508911133,-20.85459327697754
0,1051943,12.051201820373535,-10.622831344604492,49.527767181396484,67.99292755126953
0,1051945,27.424156188964844,1.3086363077163696,54.63796615600586,7.2202229499816895
0,1051947,1.6534165143966675,-6.105711460113525,-43.91619110107422,-69.27012634277344
0,1051949,-25.144319534301758,-35.133148193359375,-33.377323150634766,4.903840065002441
0,1051951,-16.52250862121582,10.077244758605957,-19.826589584350586,-0.196940615773201
0,1051953,60.65005111694336,45.272125244140625,34.29824447631836,11.7598237991333
0,1051955,18.733606338500977,7.058576583862305,64.33126068115234,75.20512390136719
0,1051957,-42.360130310058594,-20.647550582885742,-30.920364379882812,4.1421403884887695
0,1051959,15.68885326385498,-27.06035804748535,-35.580753326416016,-87.07023620605469
0,1051961,39.05064392089844,0.34961411356925964,13.505626678466797,26.130062103271484
0,1051963,11.783637046813965,48.65345001220703,14.765892028808594,-21.952373504638672
0,1051965,-10.444703102111816,32.43330001831055,8.98894214630127,-106.25724029541016
0,1051967,-25.456945419311523,-39.22953796386719,-9.070843696594238,104.06355285644531
0,1051969,-55.77530288696289,-71.1092300415039,-58.311378479003906,101.6889419555664
0,1051971,-0.5740997791290283,26.237058639526367,1.3081485033035278,-68.73223876953125
0,1051973,52.930328369140625,61.77656555175781,65.97502899169922,-51.14620590209961
0,1051975,-24.691532135009766,-13.187942504882812,-12.476717948913574,36.04071044921875
0,1051977,-17.298704147338867,-36.208457946777344,-42.846439361572266,47.887943267822266
0,1051979,40.24294662475586,-1.9206328392028809,26.50585174560547,7.700085163116455
0,1051981,-0.4882376194000244,14.968098640441895,43.945133209228516,-21.944334030151367
0,1051983,-36.71949768066406,-11.408976554870605,-27.908428192138672,-25.287023544311523
0,1051985,9.06527042388916,-7.796339511871338,-47.126258850097656,-16.783143997192383
0,1051987,38.518463134765625,7.6690993309021,23.630754470825195,20.34653663635254
0,1051989,-4.185482025146484,15.735846519470215,32.169857025146484,-21.314149856567383
0,1051991,-49.24247360229492,-1.1596400737762451,-39.328102111816406,-49.790672302246094
0,1051993,-4.932890892028809,-17.787376403808594,-3.6389899253845215,30.00261688232422
0,1051995,59.197914123535156,44.727455139160156,87.11241912841797,21.942466735839844
0,1051997,14.329954147338867,43.85512161254883,-1.8537200689315796,-33.78736877441406
0,1051999,-13.731438636779785,-40.19794464111328,-86.5572738647461,3.6368649005889893
0,1052001,-14.954109191894531,-74.21481323242188,-1.7476799488067627,28.06970977783203
0,1052003,-36.99150848388672,-21.58102035522461,24.04677391052246,-14.753870010375977
0,1052005,12.020173072814941,77.86905670166016,-6.434864044189453,21.50800323486328
0,1052007,14.962236404418945,21.162296295166016,14.04749584197998,69.5023193359375
0,1052009,9.107308387756348,-64.71231079101562,8.970465660095215,-10.65659236907959
0,1052011,26.63219451904297,-11.359528541564941,-15.394098281860352,-86.58365631103516
0,1052013,-15.707704544067383,32.164310455322266,-10.197470664978027,-25.420326232910156
0,1052015,-15.964394569396973,-1.2272260189056396,-17.875286102294922,38.59819030761719
0,1052017,-37.035099029541016,-39.10147476196289,-13.18801212310791,10.50704288482666
0,1052019,-20.67975616455078,3.818721294403076,8.207399368286133,-29.682235717773438
0,1052021,54.616512298583984,34.48582458496094,6.930182456970215,12.9314603805542
0,1052023,15.198960304260254,34.564308166503906,38.31538772583008,49.61259841918945
0,1052025,2.7138426303863525,20.2999267578125,41.52002716064453,2.985386371612549
0,1052027,-10.891695022583008,-40.58708572387695,-44.60667037963867,-11.732060432434082
0,1052029,-23.4487361907959,-1.7400131225585938,-10.738103866577148,17.001752853393555
0,1052031,29.093482971191406,24.000598907470703,27.817766189575195,-14.106130599975586
0,1052033,1.520418643951416,-40.23373794555664,-45.638065338134766,-35.86830520629883
0,1052035,21.701139450073242,-3.4092326164245605,31.722192764282227,13.670463562011719
0,1052037,-8.294410705566406,43.00262451171875,35.301414489746094,27.716617584228516
0,1052039,-52.919044494628906,-13.646754264831543,-80.4020767211914,7.962135314941406
0,1052041,21.901897430419922,-29.93694496154785,-23.79649543762207,-16.97410774230957
0,1052043,46.134456634521484,52.41084289550781,47.400909423828125,-15.484065055847168
0,1052045,10.294661521911621,13.768784523010254,70.17727661132812,-3.274827718734741
0,1052047,-38.80971908569336,-71.77839660644531,14.634542465209961,-20.08350944519043
0,1052049,-56.31538009643555,-21.01671028137207,-86.60868835449219,25.547008514404297
0,1052051,-14.509831428527832,20.126094818115234,-3.2907843589782715,27.061279296875
0,1052053,17.641910552978516,7.26807975769043,29.035518646240234,-54.14966583251953
0,1052056,20.03646469116211,19.288227081298828,-18.65005874633789,-19.08553123474121
0,1052057,10.367328643798828,-2.648014783859253,9.511320114135742,43.845298767089844
0,1052058,-2.250553846359253,-46.35521697998047,5.366289138793945,25.629863739013672
0,1052061,6.579089164733887,31.1268367767334,-6.2058329582214355,-10.225038528442383
0,1052062,-13.258306503295898,34.904048919677734,-22.37783432006836,-19.178647994995117
0,1052065,3.7405340671539307,-41.11829376220703,-23.310832977294922,-15.314334869384766
0,1052066,22.359724044799805,29.939929962158203,30.730995178222656,-25.115419387817383
0,1052069,12.341117858886719,40.124000549316406,31.929981231689453,4.92522668838501
0,1052070,-6.021705150604248,-41.628658294677734,-29.51921272277832,17.891433715820312
0,1052073,-13.301337242126465,0.8721410036087036,-1.9806584119796753,3.03409743309021
0,1052074,21.09407615661621,3.318601369857788,34.507266998291016,43.80364990234375
0,1052077,-4.081105709075928,-34.268775939941406,7.211858749389648,14.351171493530273
0,1052078,-34.00138854980469,32.78996276855469,-6.518444061279297,-40.640045166015625
0,1052081,-8.531513214111328,17.84164047241211,-2.452949285507202,13.605507850646973
0,1052082,3.7926831245422363,-52.04621505737305,-38.042762756347656,-0.1496744155883789
0,1052085,5.084018230438232,-24.76752281188965,-11.696187019348145,-49.29155731201172
0,1052086,70.28043365478516,58.40311813354492,88.9051513671875,10.003874778747559
0,1052089,8.499382972717285,28.623931884765625,-5.019283771514893,29.97480010986328
0,1052090,-99.87102508544922,-54.03812789916992,-87.66069793701172,-14.166157722473145
0,1052093,-5.239003658294678,-7.580989837646484,-27.43260955810547,-15.621461868286133
0,1052094,70.11615753173828,35.54054260253906,11.88361644744873,0.3490697145462036
0,1052099,10.287243843078613,-7.987757682800293,44.87995147705078,39.245399475097656
0,1052099,-52.55429458618164,-64.03695678710938,14.347894668579102,56.44001388549805
0,1052100,-19.511659622192383,14.160614013671875,-18.174602508544922,-46.45261764526367
0,1052103,18.743549346923828,103.53194427490234,-8.612194061279297,-81.05889129638672
0,1052104,18.10659408569336,-10.682574272155762,26.742944717407227,31.922508239746094
0,1052107,1.8887711763381958,-56.75138473510742,-2.9087655544281006,44.46430206298828
0,1052108,-9.589704513549805,21.550519943237305,-60.1258544921875,6.649409770965576
0,1052111,11.806686401367188,5.19699764251709,26.555105209350586,-10.343342781066895
0,1052112,-1.600494384765625,-17.49981689453125,69.36737060546875,-40.328311920166016
0,1052115,-20.863731384277344,0.265715628862381,-16.78486442565918,-6.129354953765869
0,1052116,12.320574760437012,32.35956954956055,-10.83427906036377,12.45372486114502
0,1052119,8.276068687438965,-4.60398006439209,-1.123281478881836,9.10476016998291
0,1052120,-24.990840911865234,-80.76143646240234,-31.837173461914062,19.435855865478516
0,1052123,24.223661422729492,21.033863067626953,11.16458511352539,-0.13087871670722961
0,1052124,10.780451774597168,46.540306091308594,-6.403016567230225,-26.629043579101562
0,1052127,-33.73101043701172,-33.19959259033203,-10.014135360717773,11.72164535522461
0,1052128,-3.599890947341919,0.8815814852714539,19.82266616821289,20.229198455810547
0,1052131,36.51859664916992,7.793511390686035,6.33787202835083,-4.844945907592773
0,1052132,0.4949101209640503,2.351174831390381,-5.236922740936279,-11.177681922912598
0,1052135,-52.031455993652344,13.48004150390625,-4.037108421325684,-16.076486587524414
0,1052136,24.99468994140625,0.3768143057823181,22.708152770996094,15.393354415893555
0,1052139,43.79679489135742,-7.732487201690674,8.071149826049805,51.65494918823242
0,1052140,-31.04384994506836,-10.333094596862793,-33.087371826171875,25.232709884643555
0,1052143,-10.597742080688477,13.37281322479248,-12.602801322937012,-94.0677719116211
0,1052144,38.59603500366211,-92.04036712646484,-83.8016128540039,-172.09487915039062
0,1052147,-30.07640266418457,29.368837356567383,18.947254180908203,67.17118835449219
0,1052148,-19.804180145263672,201.1588134765625,156.45217895507812,241.8362274169922
0,1052151,45.53599166870117,-104.36323547363281,-51.90962600708008,-36.7030029296875
0,1052152,-18.187570571899414,-87.4693832397461,-41.67518997192383,-135.72467041015625
0,1052155,-16.523950576782227,85.5285873413086,62.830718994140625,33.44218063354492
0,1052156,18.015180587768555,-22.704587936401367,8.758966445922852,45.25270080566406
0,1052159,11.707655906677246,-3.036958932876587,-26.744747161865234,24.158035278320312
0,1052160,3.2902657985687256,27.050966262817383,-31.936264038085938,6.176331996917725
0,1052163,-37.64736557006836,-57.485939025878906,0.17065614461898804,-20.943904876708984
0,1052164,-12.605026245117188,-13.914795875549316,60.802818298339844,34.80332946777344
0,1052167,32.291996002197266,85.89002990722656,23.419313430786133,-45.78863525390625
0,1052168,18.352340698242188,-9.009366035461426,-90.13998413085938,-84.88658905029297
0,1052171,-3.1902287006378174,-46.474430084228516,-11.58104133605957,15.352543830871582
0,1052172,-46.54426574707031,36.15066146850586,57.50361251831055,14.372635841369629
0,1052175,-28.72728157043457,-50.81992721557617,-45.689430236816406,10.980523109436035
0,1052176,43.98426818847656,-49.70515823364258,-50.25230407714844,3.1068594455718994
0,1052179,7.853002071380615,87.2668685913086,46.9743537902832,-1.5744919776916504
0,1052180,-12.524853706359863,20.314069747924805,36.151973724365234,16.684566497802734
0,1052183,16.369272232055664,-33.570274353027344,-22.317594528198242,-0.6686095595359802
0,1052184,-12.29035758972168,6.558991432189941,3.6736884117126465,8.1817045211792
0,1052187,9.497684478759766,-11.028722763061523,-0.5243163704872131,9.182655334472656
0,1052188,13.727487564086914,-30.134281158447266,-25.87766456604004,-20.322708129882812
0,1052191,-25.390605926513672,-14.364988327026367,15.681662559509277,-8.347301483154297
0,1052192,-6.183590888977051,5.094715595245361,15.175328254699707,-18.334108352661133
0,1052195,23.114240646362305,7.189652442932129,-11.906271934509277,31.51456642150879
0,1052196,16.082645416259766,22.585182189941406,-10.866852760314941,60.39809036254883
0,1052199,12.115824699401855,41.60615921020508,26.561044692993164,-56.79143142700195
0,1052200,-10.88475513458252,-3.460364580154419,4.19525671005249,-34.16002655029297
0,1052203,-39.96429443359375,-27.520986557006836,-11.412507057189941,29.170425415039062
0,1052204,27.616657257080078,-24.890796661376953,-19.607345581054688,-51.20296859741211
0,1052207,24.55113983154297,1.3888359069824219,-4.878116607666016,24.360395431518555
0,1052208,-37.72523880004883,44.9516487121582,89.19110870361328,105.13771057128906
0,1052211,-12.436238288879395,-4.11991548538208,-23.07280921936035,-44.638790130615234
0,1052212,13.00689697265625,8.834355354309082,-74.44418334960938,-58.60529327392578
0,1052215,2.5294857025146484,8.905988693237305,20.19015121459961,47.0435905456543
0,1052216,14.830650329589844,-45.9320068359375,4.395275115966797,27.51030921936035
0,1052219,3.7707924842834473,-30.12624740600586,12.779631614685059,-23.592546463012695
0,1052220,-14.406416893005371,21.76628875732422,13.994309425354004,-39.753089904785156
0,1052223,10.192770957946777,37.70783996582031,-22.686962127685547,-43.106388092041016
0,1052224,1.5799951553344727,-18.29449462890625,10.552814483642578,14.467561721801758
0,1052227,-23.701444625854492,-28.524293899536133,4.925207614898682,65.81401824951172
0,1052228,-26.739290237426758,5.331394672393799,-57.751922607421875,26.964326858520508
0,1052231,15.62076473236084,28.92266082763672,20.056812286376953,-20.146833419799805
0,1052232,44.455055236816406,-2.992357015609741,35.20772933959961,-16.18972396850586
0,1052235,15.896411895751953,-7.760463714599609,-43.62564468383789,-27.751333236694336
0,1052236,-35.21709060668945,33.512813568115234,22.929874420166016,-29.233612060546875
0,1052239,-17.16971778869629,-6.780893325805664,39.5169563293457,36.552947998046875
0,1052240,13.980091094970703,-26.23858642578125,-16.15867805480957,11.267539024353027
0,1052243,1.4567674398422241,12.988383293151855,2.6200368404388428,8.298942565917969
0,1052244,16.619550704956055,13.207148551940918,-3.7097630500793457,17.78209114074707
0,1052247,-27.231300354003906,-13.691424369812012,-6.1265692710876465,-25.108232498168945
0,1052248,-36.09444808959961,-12.864227294921875,14.64158821105957,7.223710536956787
0,1052251,32.493106842041016,-3.511397361755371,-22.30141258239746,-9.037795066833496
0,1052252,33.5875129699707,-10.785953521728516,-11.688301086425781,-22.585968017578125
0,1052255,-19.22689437866211,15.913923263549805,52.73836135864258,45.91486740112305
0,1052256,-25.6531982421875,0.6365554332733154,-17.125852584838867,1.2418054342269897
0,1052259,30.29117202758789,-31.325551986694336,-77.76268768310547,-39.7694206237793
0,1052260,5.647778034210205,23.5452880859375,34.48988342285156,-8.330883979797363
0,1052263,-37.23383331298828,33.199649810791016,86.12106323242188,7.70604944229126
0,1052264,24.24182891845703,-3.5763423442840576,-17.182077407836914,23.511964797973633
0,1052267,20.651996612548828,-19.632308959960938,-92.43802642822266,-18.582176208496094
0,1052268,-35.766265869140625,-24.618425369262695,16.548202514648438,-0.3921394944190979
0,1052271,23.367055892944336,11.590810775756836,30.25048828125,-24.329992294311523
0,1052272,2.702063798904419,31.293926239013672,-20.560333251953125,9.569097518920898
0,1052275,-30.630746841430664,-13.189245223999023,28.619129180908203,52.461734771728516
0,1052276,17.83115005493164,-43.93410873413086,-18.01674461364746,-30.468461990356445
0,1052279,8.012796401977539,18.053829193115234,-2.627192974090576,-11.604816436767578
0,1052281,-6.113184928894043,40.89225387573242,26.959774017333984,21.005516052246094
0,1052283,-38.5532112121582,-23.029720306396484,-6.497794151306152,13.955390930175781
0,1052285,30.426185607910156,-2.5764451026916504,-27.876373291015625,15.908473014831543
0,1052287,41.21696090698242,-3.8037796020507812,-18.47591781616211,6.372430324554443
0,1052289,-27.65629768371582,-25.77301025390625,43.1929817199707,-51.02888107299805
0,1052291,1.0466845035552979,31.438554763793945,4.334088325500488,-27.45832061767578
0,1052293,-19.52615737915039,9.429330825805664,-25.52576446533203,7.234997272491455
0,1052295,-1.0993378162384033,-18.335723876953125,26.527605056762695,16.063871383666992
0,1052297,16.446807861328125,25.984291076660156,6.801400661468506,54.12647247314453
0,1052299,-20.698036193847656,8.271771430969238,-48.08131408691406,-39.3050537109375
0,1052301,1.7643260955810547,-15.843850135803223,6.658696174621582,-33.7088508605957
0,1052303,49.96378707885742,7.693472862243652,35.4191780090332,28.969608306884766
0,1052305,5.726677417755127,-5.230957984924316,-17.367040634155273,-35.76858901977539
0,1052308,-40.254852294921875,20.3994083404541,10.17294692993164,-7.769016742706299
0,1052311,-5.8698015213012695,13.816293716430664,6.731301784515381,44.98904037475586
0,1052311,5.269003391265869,-46.47678756713867,1.5921082496643066,16.750381469726562
0,1052313,20.146038055419922,-10.121757507324219,-3.646029233932495,4.247039794921875
0,1052315,-13.47064208984375,5.191941738128662,-23.999563217163086,1.5977061986923218
0,1052317,-15.619884490966797,-26.946640014648438,14.2930908203125,-30.576459884643555
0,1052319,14.851408004760742,14.239251136779785,-3.0320115089416504,-18.224397659301758
0,1052321,-36.06888198852539,34.54396057128906,-12.269362449645996,15.733080863952637
0,1052323,-3.714994192123413,-22.83741569519043,30.62140655517578,10.907055854797363
0,1052325,62.210960388183594,0.7935706973075867,11.92538833618164,11.689419746398926
0,1052327,8.018628120422363,20.064802169799805,-37.05097198486328,-15.649553298950195
0,1052329,-40.194889068603516,-28.610267639160156,-25.842321395874023,-5.35683012008667
0,1052331,2.7101922035217285,-23.024965286254883,23.94488525390625,23.00088882446289
0,1052333,-10.830244064331055,55.667110443115234,27.512786865234375,-57.0450553894043
0,1052335,3.5925142765045166,46.75785827636719,-6.692263603210449,-8.429079055786133
0,1052337,32.643775939941406,-54.31725311279297,-11.439695358276367,75.88578033447266
0,1052339,-16.554590225219727,-18.52359962463379,6.871953964233398,26.103458404541016
0,1052341,-5.137485504150391,2.5012290477752686,-5.388214111328125,39.49837112426758
0,1052343,-5.630488872528076,-28.999027252197266,-14.043083190917969,-11.560383796691895
0,1052345,13.708528518676758,23.939708709716797,5.923798561096191,-70.64534759521484
0,1052347,14.688542366027832,41.0197639465332,33.681007385253906,-40.762962341308594
0,1052349,-29.37213706970215,-25.862445831298828,3.798206090927124,2.867133378982544
0,1052351,-26.69404411315918,-34.37567138671875,-27.992290496826172,44.66048049926758
0,1052353,7.804516792297363,17.652769088745117,-5.4058308601379395,-18.330636978149414
0,1052355,48.5732536315918,47.92756652832031,1.392722725868225,-38.88088607788086
0,1052357,3.7670726776123047,0.5415637493133545,-0.40515202283859253,-15.573680877685547
0,1052359,-54.24714279174805,-51.440948486328125,-29.32355308532715,-0.811546266078949
0,1052361,1.343957781791687,15.426462173461914,16.3026123046875,49.26071548461914
0,1052363,30.87064552307129,22.759185791015625,38.294227600097656,1.3192296028137207
0,1052365,-19.531845092773438,-12.425591468811035,-14.665864944458008,2.108186721801758
0,1052367,8.097471237182617,5.184421062469482,3.0499329566955566,29.193437576293945
0,1052369,5.572973728179932,-10.679121971130371,-10.358694076538086,-5.539786338806152
0,1052371,-2.9058194160461426,-25.610315322875977,-21.02996063232422,-10.011605262756348
0,1052373,21.847490310668945,-1.8333795070648193,29.246301651000977,11.956819534301758
0,1052375,-24.953462600708008,23.897981643676758,-2.7882142066955566,11.032861709594727
0,1052377,9.285453796386719,20.563152313232422,-41.36463165283203,-51.51454544067383
0,1052379,37.5953483581543,4.056075572967529,38.235206604003906,-9.621193885803223
0,1052381,-18.76082420349121,-31.635007858276367,17.99885368347168,27.403635025024414
0,1052383,-23.625083923339844,-33.517799377441406,-33.93198776245117,14.955971717834473
0,1052385,8.958782196044922,40.74384689331055,13.646219253540039,-6.904196739196777
0,1052387,6.842583656311035,11.8141450881958,14.776662826538086,-27.498172760009766
0,1052389,-50.91511535644531,-23.34237289428711,1.197022557258606,29.872711181640625
0,1052391,15.977594375610352,28.05963706970215,-15.025762557983398,37.53831481933594
0,1052393,54.126220703125,-12.492018699645996,-25.78921890258789,9.476519584655762
0,1052395,-41.21413040161133,-10.328224182128906,32.66812515258789,-23.29234504699707
0,1052397,12.830825805664062,36.461814880371094,24.953601837158203,-30.04087257385254
0,1052399,15.443252563476562,-25.017601013183594,-40.84749221801758,-21.766599655151367
0,1052401,-53.0863037109375,-19.47536277770996,11.598953247070312,19.81194305419922
0,1052403,19.287445068359375,19.3319034576416,19.261009216308594,2.569723606109619
0,1052405,6.197057247161865,1.6115984916687012,-45.46778106689453,-39.80324172973633
0,1052407,-21.232173919677734,16.520923614501953,-15.723997116088867,14.87653636932373
0,1052409,51.12803268432617,-20.36083984375,46.386165618896484,16.148853302001953
0,1052411,-15.662968635559082,-38.613582611083984,0.7038871645927429,17.10822868347168
0,1052413,-48.368282318115234,11.373112678527832,-51.21904754638672,-17.758337020874023
0,1052415,47.71805953979492,19.885766983032227,35.317569732666016,-32.30948257446289
0,1052417,20.129234313964844,-3.7239086627960205,27.928892135620117,5.311911106109619
0,1052419,-53.48950958251953,9.968462944030762,-18.81893539428711,8.15640640258789
0,1052421,-4.819930553436279,23.281936645507812,26.632150650024414,58.088279724121094
0,1052423,63.73851013183594,-0.9735000133514404,-27.751447677612305,70.46717834472656
0,1052425,21.100292205810547,-37.61310958862305,-35.825592041015625,-62.57208251953125
0,1052427,-68.76040649414062,-43.84352111816406,32.19202423095703,-112.6290512084961
0,1052429,-3.32174015045166,64.4115982055664,24.209575653076172,28.219266891479492
0,1052431,35.02740478515625,50.84736633300781,11.120677947998047,54.835853576660156
0,1052433,-22.799203872680664,-36.69575500488281,1.674899697303772,-2.111994504928589
0,1052435,11.305229187011719,-3.588036060333252,-15.469050407409668,-0.9184045195579529
0,1052437,-22.242090225219727,-32.52385711669922,-33.926422119140625,0.8366439938545227
0,1052439,10.006739616394043,-4.112208843231201,-16.034460067749023,-30.12891387939453
0,1052441,35.0579833984375,41.7536735534668,35.45549774169922,-6.336153984069824
0,1052443,-39.63579177856445,-31.611509323120117,0.204522967338562,44.210514068603516
0,1052445,-13.21284008026123,-7.768958568572998,-32.15107727050781,28.034334182739258
0,1052447,12.679219245910645,30.194860458374023,15.349061965942383,4.830852031707764
0,1052449,36.43385314941406,-30.156869888305664,11.899023056030273,-55.2946662902832
0,1052451,11.42245864868164,-2.1393375396728516,4.568346977233887,6.191555500030518
0,1052453,-30.21976089477539,35.033023834228516,-1.7996069192886353,27.588476181030273
0,1052455,6.524044036865234,-15.964238166809082,-9.661003112792969,-59.83652114868164
0,1052457,13.412622451782227,-20.841615676879883,1.7038761377334595,20.47330093383789
0,1052459,-12.333349227905273,9.223654747009277,1.5669504404067993,-6.40848970413208
0,1052461,-11.75546646118164,17.608394622802734,9.723339080810547,-38.193119049072266
0,1052463,-15.731297492980957,16.115203857421875,-6.239686489105225,52.8718376159668
0,1052465,-22.46722412109375,-10.438403129577637,-11.918233871459961,17.141883850097656
0,1052467,15.402332305908203,-15.0576810836792,16.253074645996094,-3.674708127975464
0,1052469,17.354373931884766,4.7137346267700195,19.89305305480957,13.118061065673828
0,1052471,-8.16123104095459,-14.897217750549316,-24.729286193847656,-10.310300827026367
0,1052473,6.077347755432129,1.7923355102539062,-9.36139965057373,-64.04340362548828
0,1052475,44.23150634765625,58.14857864379883,20.51012420654297,2.7651493549346924
0,1052478,-11.317453384399414,-33.07728576660156,-2.9174795150756836,118.86674499511719
0,1052479,-53.645263671875,-58.17073059082031,-9.342469215393066,-29.456398010253906
0,1052480,34.784263610839844,49.09952163696289,-11.110669136047363,-88.04464721679688
0,1052483,16.664945602416992,20.400665283203125,24.69595718383789,49.21160888671875
0,1052484,-4.098966598510742,-0.6145325303077698,26.680131912231445,17.36921501159668
0,1052487,4.345564365386963,-28.823413848876953,-25.175582885742188,-12.006949424743652
0,1052488,-28.34733772277832,-26.280012130737305,-25.699657440185547,50.194061279296875
0,1052491,-16.646345138549805,6.751526832580566,-10.181248664855957,-27.537702560424805
0,1052492,-16.436676025390625,-4.193745136260986,15.416664123535156,-40.726715087890625
0,1052495,6.027346611022949,21.232513427734375,25.861019134521484,25.095613479614258
0,1052496,40.23347473144531,27.96411895751953,-20.31795883178711,-50.51678466796875
0,1052499,5.851814270019531,4.520102024078369,-27.360393524169922,-18.694326400756836
0,1052500,-41.83367919921875,-42.07591247558594,27.482637405395508,38.338966369628906
0,1052503,8.098138809204102,-7.034889221191406,17.108152389526367,14.546279907226562
0,1052504,26.6408634185791,42.489166259765625,-22.481698989868164,38.24007034301758
0,1052507,4.06198263168335,0.23173008859157562,23.174375534057617,-0.3019561767578125
0,1052508,28.452415466308594,-12.664109230041504,0.3419250547885895,-59.824424743652344
0,1052511,-16.30098533630371,-4.276026725769043,-43.41131591796875,-14.414828300476074
0,1052512,-42.99603271484375,-19.81781768798828,30.578359603881836,48.30353927612305
0,1052515,0.21457476913928986,14.320046424865723,10.884089469909668,9.82048511505127
0,1052516,7.051365375518799,16.025314331054688,-41.117088317871094,-20.632719039916992
0,1052519,-2.095747709274292,-9.686918258666992,23.391645431518555,-16.102445602416992
0,1052520,5.201781749725342,3.9353320598602295,17.5491886138916,-12.187960624694824
0,1052523,14.274703025817871,12.080240249633789,-28.612661361694336,45.88356018066406
0,1052524,14.85800552368164,10.37061882019043,10.357192039489746,35.36117172241211
0,1052527,-24.56282615661621,-46.02096939086914,2.8949153423309326,-65.84587097167969
0,1052528,-0.6100066304206848,-13.890793800354004,-1.3591381311416626,-49.75920104980469
0,1052531,43.26353454589844,40.031978607177734,23.33521842956543,57.568939208984375
0,1052532,-26.9742431640625,0.7877519726753235,-8.309389114379883,53.52864456176758
0,1052536,-17.03411865234375,15.918161392211914,1.4073528051376343,-15.049483299255371
0,1052537,10.494263648986816,-18.505016326904297,4.3319830894470215,-14.665395736694336
0,1052538,-5.929983615875244,-38.755489349365234,-8.752676963806152,-13.276276588439941
0,1052541,8.040474891662598,21.403928756713867,-10.837539672851562,-32.21014404296875
0,1052542,-11.165003776550293,4.73206090927124,-17.713092803955078,6.584331035614014
0,1052545,-6.779463291168213,-4.238023281097412,8.920695304870605,24.710430145263672
0,1052546,-9.62418270111084,13.357454299926758,6.520843982696533,-15.146864891052246
0,1052549,5.312756538391113,-16.846410751342773,-2.950847625732422,16.87379264831543
0,1052550,15.445968627929688,3.1424756050109863,10.030302047729492,24.61567497253418
0,1052553,6.492891311645508,3.9771065711975098,2.67069935798645,-33.98562240600586
0,1052554,9.07447624206543,-9.585088729858398,-9.246308326721191,1.694250226020813
0,1052557,-27.951936721801758,23.999679565429688,-7.388274669647217,8.211589813232422
0,1052558,1.30564546585083,-18.936216354370117,10.206794738769531,-12.962834358215332
0,1052561,38.029563903808594,-19.377243041992188,8.38694953918457,0.5087451338768005
0,1052562,-25.559986114501953,30.948577880859375,-27.690519332885742,-12.643279075622559
0,1052565,-32.890689849853516,26.891958236694336,14.800026893615723,11.178990364074707
0,1052566,17.767749786376953,-7.740899085998535,26.651813507080078,5.84541130065918
0,1052569,15.36884593963623,-15.106759071350098,-39.10184860229492,20.003536224365234
0,1052570,-10.331954956054688,-0.900841474533081,16.19329071044922,59.626766204833984
0,1052573,0.7099003195762634,-12.865757942199707,4.606431007385254,-49.665863037109375
0,1052574,26.004898071289062,15.303776741027832,-32.229339599609375,-80.73087310791016
0,1052577,7.463890552520752,38.45269012451172,44.57068634033203,26.6962833404541
0,1052578,-10.479971885681152,-15.885520935058594,3.8731489181518555,20.867267608642578
0,1052581,-18.277301788330078,-42.40389633178711,-35.54766082763672,-10.882473945617676
0,1052582,-27.34070587158203,8.260967254638672,26.361940383911133,23.116626739501953
0,1052585,25.15964126586914,-8.28125286102295,4.4878926277160645,37.189640045166016
0,1052586,47.315765380859375,-4.109707355499268,-15.479281425476074,-16.710474014282227
0,1052589,-34.09491729736328,23.310874938964844,8.993820190429688,-74.41394805908203
0,1052590,-24.64931297302246,1.30573570728302,-36.1243782043457,-25.73282814025879
0,1052593,30.517221450805664,-8.531525611877441,-19.513460159301758,40.42644500732422
0,1052594,-5.8062357902526855,-22.33393669128418,50.08838653564453,45.44599914550781
0,1052597,-11.02802562713623,1.1341829299926758,39.111385345458984,41.78531265258789
0,1052598,14.490653991699219,29.024913787841797,-18.973081588745117,0.1538286656141281
0,1052601,-0.3023393750190735,37.5883903503418,-46.327030181884766,-47.77499008178711
0,1052602,3.414199113845825,-23.624584197998047,26.391199111938477,-24.529613494873047
0,1052605,0.37628084421157837,-43.92753982543945,33.230892181396484,21.755178451538086
0,1052606,-11.845335960388184,14.211700439453125,-45.880332946777344,-12.925870895385742
0,1052609,-15.540362358093262,5.675578594207764,-26.38726806640625,-18.485759735107422
0,1052610,-3.4504804611206055,5.139441967010498,34.237396240234375,52.591983795166016
0,1052613,28.495899200439453,11.597431182861328,34.686527252197266,-8.454629898071289
0,1052614,-16.20232391357422,-22.88027572631836,-31.001628875732422,-46.981719970703125
0,1052617,-32.45722579956055,-19.776168823242188,-30.224788665771484,43.06528854370117
0,1052618,19.245880126953125,21.99142074584961,56.80464553833008,1.8089268207550049
0,1052621,22.782100677490234,29.296974182128906,2.9833950996398926,-11.718500137329102
0,1052622,-35.17256546020508,-33.422054290771484,-69.68397521972656,24.701828002929688
0,1052625,-8.594547271728516,-17.85511589050293,21.483856201171875,-43.14509201049805
0,1052626,52.91797637939453,46.66315460205078,44.71833801269531,-1.9191142320632935
0,1052629,-10.801709175109863,-24.43082046508789,-32.64028549194336,7.773525714874268
0,1052630,-19.389404296875,-10.368208885192871,-22.987144470214844,-1.6780470609664917
0,1052633,35.3584098815918,47.07161331176758,40.588134765625,48.32560348510742
0,1052634,11.650318145751953,-11.139711380004883,-0.8934731483459473,-27.752357482910156
0,1052637,-37.472251892089844,-20.81403160095215,-38.884830474853516,-33.39655685424805
0,1052638,-19.729904174804688,12.702079772949219,20.37972068786621,14.678434371948242
0,1052641,39.8810920715332,-16.829078674316406,13.669172286987305,1.7281495332717896
0,1052642,31.421537399291992,-13.675804138183594,-30.387989044189453,9.079750061035156
0,1052645,-41.77214813232422,26.07166862487793,5.006007671356201,1.0825148820877075
0,1052646,-25.421131134033203,-12.075079917907715,32.250083923339844,-33.219730377197266
0,1052649,34.19194793701172,-1.4007405042648315,5.249592304229736,-5.46274995803833
0,1052650,-9.804319381713867,37.43476486206055,-21.68309211730957,45.26161575317383
0,1052653,-8.755950927734375,-12.607457160949707,7.390758514404297,-8.494659423828125
0,1052654,8.303303718566895,-31.575143814086914,25.08367347717285,17.972421646118164
0,1052657,-9.737883567810059,-6.432084083557129,-46.86886215209961,43.067291259765625
0,1052658,34.61994171142578,-0.41417115926742554,2.7680346965789795,-56.1270866394043
0,1052661,-30.965641021728516,10.891531944274902,41.53062057495117,-14.605386734008789
0,1052662,-29.671815872192383,42.08729934692383,-3.982590436935425,36.795597076416016
0,1052665,44.23006820678711,9.674520492553711,5.026688575744629,0.5135097503662109
0,1052666,-25.437280654907227,-51.82019805908203,-39.55015563964844,-36.39272689819336
0,1052669,-8.069024085998535,19.067155838012695,-11.125858306884766,-34.74343490600586
0,1052670,17.034700393676758,31.478012084960938,20.856311798095703,44.16478729248047
0,1052673,18.572166442871094,-44.8389778137207,9.830735206604004,28.703453063964844
0,1052674,2.2912516593933105,-30.869632720947266,1.3674354553222656,-61.49095916748047
0,1052677,-29.077322006225586,30.31380271911621,-28.470739364624023,-11.582579612731934
0,1052678,-8.16964340209961,15.57691764831543,-25.31138801574707,42.25288391113281
0,1052681,5.924084186553955,-30.408815383911133,21.073043823242188,-4.290271282196045
0,1052682,43.22502136230469,15.45418643951416,49.495277404785156,-16.486404418945312
0,1052685,7.391968250274658,13.126481056213379,-24.662799835205078,10.928032875061035
0,1052686,-24.62875747680664,-18.40121078491211,-12.530779838562012,58.100643157958984
0,1052689,8.469876289367676,11.964959144592285,34.7864875793457,16.870115280151367
0,1052690,-28.333982467651367,-15.686568260192871,-19.678380966186523,-42.439964294433594
0,1052693,-34.65963363647461,0.25838518142700195,2.4799115657806396,-45.332664489746094
0,1052694,27.5444393157959,19.64545249938965,7.180676460266113,-39.26333999633789
0,1052697,20.477964401245117,-12.489429473876953,-45.69382858276367,22.620882034301758
0,1052698,-10.895724296569824,20.083879470825195,27.99409294128418,33.590309143066406
0,1052701,10.768360137939453,10.04272174835205,56.00863265991211,52.79058837890625
0,1052702,7.56097936630249,-6.247742652893066,-38.922637939453125,37.861576080322266
0,1052705,-12.579561233520508,-11.456236839294434,-49.91227340698242,-99.3834457397461
0,1052706,30.792264938354492,-6.677542209625244,5.167418956756592,-51.5022087097168
0,1052709,-3.9043962955474854,15.785605430603027,29.801979064941406,104.49465942382812
0,1052710,-12.33979320526123,34.52892303466797,30.77473258972168,42.796226501464844
0,1052713,-13.767208099365234,-21.791980743408203,-3.450286388397217,-73.63333892822266
0,1052714,-31.798004150390625,-71.33512115478516,-76.34770202636719,-36.53749465942383
0,1052717,31.17304229736328,2.6748900413513184,-11.251522064208984,34.16777801513672
0,1052718,11.396673202514648,27.651674270629883,57.808563232421875,-5.997088432312012
0,1052721,1.6577049493789673,24.015329360961914,-1.5649495124816895,-35.507076263427734
0,1052722,-21.13480567932129,-15.741382598876953,13.574906349182129,10.788789749145508
0,1052725,-18.082462310791016,-34.28781509399414,-0.5930588245391846,20.314855575561523
0,1052726,15.097752571105957,12.401067733764648,-6.473211765289307,16.67510986328125
0,1052729,8.168113708496094,17.410764694213867,22.31502342224121,-3.2490363121032715
0,1052730,-3.057849407196045,-6.3367204666137695,-14.479087829589844,-33.7480583190918
0,1052733,-20.870113372802734,19.032548904418945,-13.659445762634277,11.288752555847168
0,1052734,29.267719268798828,15.521739959716797,18.881017684936523,35.011268615722656
0,1052737,4.455356121063232,-9.272735595703125,8.687163352966309,13.234284400939941
0,1052738,0.14789272844791412,22.399444580078125,-1.365737795829773,5.8747663497924805
0,1052741,49.066524505615234,-32.158084869384766,-2.488926649093628,-12.355871200561523
0,1052742,-26.433128356933594,-36.755130767822266,-12.54062557220459,-36.557796478271484
0,1052745,-36.74845886230469,41.91653823852539,-15.662607192993164,-32.081600189208984
0,1052746,-1.7623300552368164,42.16143035888672,-2.2365310192108154,8.211868286132812
0,1052749,-10.184239387512207,-17.297481536865234,0.2120068073272705,18.088512420654297
0,1052751,33.60417938232422,-50.00385665893555,-19.169832229614258,3.144681215286255
0,1052753,9.89331340789795,24.038753509521484,10.855368614196777,-3.1052908897399902
0,1052755,-44.32146453857422,25.61775779724121,21.29561424255371,36.94583511352539
0,1052757,-9.912301063537598,-39.29386520385742,-2.425579309463501,21.2058048248291
0,1052759,13.555879592895508,-10.684778213500977,13.407383918762207,-30.019676208496094
0,1052761,0.5819950699806213,-20.31777000427246,-0.10585687309503555,-15.808107376098633
0,1052763,8.722484588623047,2.543320417404175,-0.932462215423584,-2.945976495742798
0,1052765,4.546082496643066,45.246089935302734,-8.766707420349121,11.393848419189453
0,1052767,12.58259105682373,-8.000147819519043,-42.02311325073242,3.6507556438446045
0,1052769,11.233786582946777,-15.017075538635254,45.639522552490234,-10.734268188476562
0,1052773,-46.02048110961914,24.222808837890625,49.21707534790039,3.738607406616211
0,1052773,-3.359790086746216,11.751240730285645,-57.96175765991211,11.81894302368164
0,1052775,70.89151000976562,-6.722171783447266,2.5024166107177734,-22.834062576293945
0,1052777,4.738512992858887,-15.495901107788086,33.26665115356445,-17.72718620300293
0,1052779,-51.706825256347656,-5.864819049835205,-65.56153106689453,1.1317611932754517
0,1052781,-3.273418426513672,10.31029987335205,-13.770627975463867,-9.303420066833496
0,1052783,8.338770866394043,-11.117466926574707,34.63689422607422,29.636932373046875
0,1052785,-7.077613830566406,3.423851251602173,-8.512993812561035,28.144472122192383
0,1052787,9.296609878540039,16.973411560058594,2.7675535678863525,-26.412878036499023
0,1052789,10.475241661071777,6.193490028381348,22.35224151611328,-13.745932579040527
0,1052791,-18.019147872924805,-18.356246948242188,14.57405948638916,36.221107482910156
0,1052793,-2.7636077404022217,-30.253767013549805,-29.60272979736328,2.141434669494629
0,1052795,15.883341789245605,4.508788585662842,1.4935827255249023,-47.28649139404297
0,1052797,-9.612198829650879,52.125450134277344,34.294090270996094,2.527151107788086
0,1052799,7.615909576416016,20.756532669067383,-6.410886764526367,34.03507995605469
0,1052801,17.036109924316406,-42.52366638183594,-40.45732498168945,14.026052474975586
0,1052803,-9.64631175994873,-8.524759292602539,1.845322847366333,-15.872635841369629
0,1052805,-12.077437400817871,1.7784150838851929,48.49636459350586,-38.950889587402344
0,1052807,-32.927955627441406,-12.432354927062988,-13.858125686645508,16.397642135620117
0,1052809,-8.674942970275879,-9.623894691467285,-42.33749771118164,4.269313812255859
0,1052811,59.351600646972656,12.205606460571289,-6.002763748168945,-26.636796951293945
0,1052813,33.064369201660156,36.39691925048828,17.651063919067383,80.51813507080078
0,1052815,-41.126705169677734,-18.293697357177734,14.171113014221191,15.418264389038086
0,1052817,-32.689353942871094,-36.54368591308594,11.131423950195312,-70.32791900634766
0,1052819,5.848095417022705,20.02521324157715,3.128810167312622,24.667634963989258
0,1052821,-6.409176826477051,39.12336349487305,-17.461898803710938,0.6353089213371277
0,1052823,11.527986526489258,-7.127506732940674,7.169641971588135,-30.375869750976562
0,1052825,-10.182835578918457,-26.676136016845703,24.345657348632812,-3.0311622619628906
0,1052827,-0.7812466025352478,8.948246002197266,-6.221291542053223,15.657172203063965
0,1052829,58.22441482543945,2.9844937324523926,-16.06671714782715,51.153472900390625
0,1052831,-0.8753334879875183,-14.355335235595703,-8.973014831542969,-19.24477767944336
0,1052833,-21.938034057617188,2.424222469329834,-19.302677154541016,-67.40113067626953
0,1052835,-5.715940475463867,1.4622632265090942,19.54440689086914,16.107532501220703
0,1052837,-29.730104446411133,12.97686767578125,20.41840362548828,20.842864990234375
0,1052839,2.2247960567474365,9.00586223602295,-2.951202630996704,-1.7516651153564453
0,1052841,31.526872634887695,-18.37420082092285,-9.219982147216797,9.746286392211914
0,1052843,-0.34886884689331055,0.019497646018862724,-34.916587829589844,-9.490044593811035
0,1052845,-8.544837951660156,32.2252082824707,26.938905715942383,11.29697036743164
0,1052847,2.1720070838928223,-1.1990309953689575,21.536693572998047,3.116156816482544
0,1052849,-16.458030700683594,-69.970458984375,-39.814937591552734,-22.31656265258789
0,1052851,3.4614098072052,4.676061630249023,0.4635433256626129,-7.426674842834473
0,1052853,20.983219146728516,30.234943389892578,15.26729965209961,17.627281188964844
0,1052855,-24.14965057373047,-30.045970916748047,-2.793717384338379,13.56497573852539
0,1052857,-7.227822303771973,40.072509765625,34.296478271484375,-21.04366683959961
0,1052859,31.985719680786133,14.09762191772461,-1.3286876678466797,0.5135464668273926
0,1052861,-15.571709632873535,-60.47038650512695,-65.97547912597656,41.27635955810547
0,1052863,-4.7555670738220215,23.62854766845703,21.656904220581055,2.2979865074157715
0,1052865,-3.234107255935669,50.165836334228516,46.97370529174805,-43.792015075683594
0,1052867,1.7677384614944458,-15.677206993103027,-13.846746444702148,-13.281028747558594
0,1052869,56.978172302246094,29.572832107543945,-11.862079620361328,29.58776092529297
0,1052871,-48.70774459838867,3.2183146476745605,4.231340408325195,46.80693817138672
0,1052873,-63.51960372924805,-78.38154602050781,5.154524326324463,-37.50318145751953
0,1052875,77.1347427368164,-0.42298585176467896,-37.36093521118164,-78.15900421142578
0,1052877,23.112470626831055,20.154727935791016,10.495753288269043,19.375795364379883
0,1052879,-52.224830627441406,6.422268390655518,56.764408111572266,62.126441955566406
0,1052881,-2.844695568084717,32.824440002441406,-35.60525131225586,11.883057594299316
0,1052883,21.623674392700195,-16.617860794067383,-19.36499786376953,-34.5936393737793
0,1052885,8.80514907836914,-37.30324935913086,41.799190521240234,-15.298925399780273
0,1052887,6.541599750518799,8.724830627441406,-9.3989896774292,5.62739372253418
0,1052889,5.8510284423828125,19.94182777404785,-22.647205352783203,9.62858772277832
0,1052891,-32.82508850097656,-23.909013748168945,-2.4696178436279297,2.293609857559204
0,1052893,2.916883945465088,30.3985595703125,9.731389045715332,15.85449504852295
0,1052895,37.84398651123047,49.995521545410156,17.919818878173828,-3.2797083854675293
0,1052897,-0.913540780544281,-76.4333267211914,-22.056947708129883,-51.506961822509766
0,1052899,-46.62220764160156,-40.1440544128418,-21.97130584716797,20.75672149658203
0,1052901,-11.473992347717285,64.82212829589844,-0.6226097345352173,41.029354095458984
0,1052903,56.25511932373047,25.199951171875,-12.15142822265625,-38.9874267578125
0,1052905,-17.48976707458496,-49.90788269042969,7.908588409423828,-23.688405990600586
0,1052907,-12.735273361206055,12.542338371276855,47.888206481933594,61.29716110229492
0,1052909,-22.527257919311523,17.082761764526367,-82.49844360351562,5.474637985229492
0,1052911,-20.087814331054688,-66.05101013183594,-35.00701141357422,-62.04781723022461
0,1052913,76.7580795288086,43.536781311035156,184.81405639648438,46.238224029541016
0,1052915,-40.230899810791016,40.48296356201172,-28.16986656188965,18.546327590942383
0,1052917,-34.49949264526367,-7.407500267028809,-34.32868576049805,-5.946137428283691
0,1052919,74.97227478027344,-12.902586936950684,61.22395324707031,7.035310745239258
0,1052921,-27.617464065551758,-57.39177703857422,-103.94037628173828,-64.4442367553711
0,1052923,-43.37652587890625,45.19329833984375,-3.8245019912719727,6.357376575469971
0,1052925,27.072982788085938,46.44672775268555,52.69297790527344,43.84264373779297
0,1052927,36.66698455810547,-45.98988342285156,-24.82758331298828,-15.899186134338379
0,1052929,-0.5958811044692993,-61.61821746826172,0.6124319434165955,9.59858226776123
0,1052931,-32.158775329589844,43.693321228027344,2.4825599193573,36.04710006713867
0,1052933,-8.800688743591309,62.12668228149414,-6.176620960235596,-40.04419708251953
0,1052935,-3.079826831817627,-51.67222595214844,2.9496209621429443,-41.039703369140625
0,1052937,21.178089141845703,-11.610030174255371,-51.758087158203125,18.55527114868164
0,1052939,8.463321685791016,15.538986206054688,-32.248905181884766,18.767499923706055
0,1052941,23.243743896484375,3.7470905780792236,63.820831298828125,11.323144912719727
0,1052943,3.9019241333007812,-8.376253128051758,35.039085388183594,-26.960596084594727
0,1052945,-91.08091735839844,-21.29914093017578,-9.287195205688477,12.39206314086914
0,1052947,45.902679443359375,33.95186996459961,73.83732604980469,65.26875305175781
0,1052949,63.39115524291992,-24.115285873413086,-34.41035461425781,-85.30807495117188
0,1052951,-93.25969696044922,-11.566780090332031,-126.1197280883789,-27.932857513427734
0,1052953,-41.68292999267578,55.20085144042969,43.0362434387207,114.87361145019531
0,1052955,95.37067413330078,22.837501525878906,83.55358123779297,-77.66827392578125
0,1052957,23.52739906311035,-41.50157928466797,-50.93871307373047,-73.97549438476562
0,1052959,-67.6971206665039,-46.68012237548828,-58.46308517456055,96.43892669677734
0,1052961,26.04895782470703,39.46354293823242,70.01982879638672,0.520481288433075
0,1052963,0.12339714914560318,-8.468070983886719,-0.5088595747947693,-68.61489868164062
0,1052965,1.8085336685180664,28.422584533691406,-18.849924087524414,37.895606994628906
0,1052967,-2.477139711380005,7.859449863433838,22.976322174072266,69.46163940429688
0,1052969,-6.6565351486206055,-49.619415283203125,-45.703147888183594,-26.13678741455078
0,1052971,16.474689483642578,17.573320388793945,-9.456317901611328,-51.26982498168945
0,1052974,-10.72059154510498,35.57924270629883,35.62962341308594,28.37698745727539
0,1052975,10.88025951385498,11.108894348144531,22.358402252197266,25.316213607788086
0,1052976,-28.497800827026367,-68.47479248046875,1.785426139831543,-6.120128631591797
0,1052979,6.343015193939209,-11.839540481567383,-24.087661743164062,-22.552101135253906
0,1052980,33.3645133972168,35.834922790527344,-4.095292568206787,-30.787006378173828
0,1052983,-22.974124908447266,11.97840690612793,4.509549617767334,4.026839733123779
0,1052984,23.579547882080078,23.373960494995117,-8.249898910522461,-1.7306275367736816
1,1052990,3.446019411087036,-35.44335174560547,-7.494265556335449,26.783273696899414
1,1052990,-45.680049896240234,-16.714567184448242,26.69283676147461,52.587894439697266
1,1052991,32.47190856933594,40.56778335571289,36.66473388671875,-14.349446296691895
1,1052992,-9.094049453735352,-31.991682052612305,-50.29811096191406,-36.93247985839844
1,1052995,-9.21312141418457,2.653698682785034,-10.092228889465332,-20.5571346282959
1,1052996,53.67716979980469,36.2612419128418,35.0635986328125,22.53858184814453
1,1052999,-71.67647552490234,-50.18193435668945,-4.302872657775879,59.532196044921875
1,1053000,-36.24318313598633,-5.943390846252441,0.6096892952919006,2.015075206756592
1,1053003,98.38792419433594,58.93360900878906,0.2659090459346771,-89.47374725341797
1,1053004,-12.383970260620117,-22.449857711791992,-22.036231994628906,-50.04092025756836
1,1053007,-56.506935119628906,-37.06830596923828,-21.07284927368164,100.4206314086914
1,1053008,15.701407432556152,41.56867218017578,27.42500114440918,22.24732780456543
1,1053011,70.79285430908203,53.898719787597656,56.38890075683594,-65.0645980834961
1,1053012,-23.372041702270508,-34.52445602416992,-0.7145525217056274,8.802183151245117
1,1053015,-80.40654754638672,-93.94419860839844,-100.8116683959961,-13.801212310791016
1,1053016,72.82730102539062,48.24714279174805,-11.38107967376709,6.022204399108887
1,1053019,62.86079025268555,93.16534423828125,107.16636657714844,67.57941436767578
1,1053020,-56.59800338745117,-44.00550842285156,-18.628902435302734,-11.7140474319458
1,1053023,-78.45330810546875,-77.76903533935547,-106.39508056640625,-67.63766479492188
1,1053024,9.062187194824219,-9.266050338745117,30.070507049560547,12.23967456817627
1,1053027,19.343149185180664,14.247516632080078,69.67518615722656,26.209970474243164
1,1053028,22.8745174407959,34.41209411621094,27.746715545654297,-27.213069915771484
1,1053031,-18.523033142089844,-21.21550178527832,-59.22403335571289,-42.9356575012207
1,1053032,-32.72521209716797,-39.962345123291016,-64.6823959350586,22.76568603515625
1,1053035,91.96158599853516,82.28731536865234,148.38133239746094,120.85553741455078
1,1053036,-3.390153646469116,21.43088150024414,5.3800740242004395,0.2953856289386749
1,1053039,-66.94398498535156,-30.07042121887207,-148.64654541015625,-115.92472839355469
1,1053040,27.43564796447754,25.939422607421875,32.08264923095703,37.38740539550781
1,1053043,2.4979419708251953,-33.05453109741211,37.39460754394531,58.04200744628906
1,1053044,-7.182535171508789,-19.973108291625977,-5.09437894821167,-30.60634994506836
1,1053047,4.274038791656494,25.835399627685547,-0.3133801817893982,-51.96391296386719
1,1053048,-25.798133850097656,-24.346036911010742,-29.23336410522461,-41.4159049987793
1,1053051,43.67333221435547,13.47810173034668,24.923362731933594,13.302742004394531
1,1053052,12.397850036621094,23.59454917907715,4.453273773193359,15.491436004638672
1,1053055,-52.66045379638672,-30.33186912536621,-45.799522399902344,40.22322463989258
1,1053056,-4.809783935546875,2.0243113040924072,16.346782684326172,21.292129516601562
1,1053059,-11.179802894592285,10.66100025177002,45.674373626708984,-31.5738582611084
1,1053060,30.694150924682617,-16.100263595581055,0.4202515482902527,1.3288148641586304
1,1053063,58.63481140136719,6.3804497718811035,-20.392839431762695,26.126846313476562
1,1053064,-4.082146167755127,32.10935974121094,13.131087303161621,-11.884251594543457
1,1053067,-37.789180755615234,2.5214366912841797,5.124609470367432,-14.640743255615234
1,1053068,-9.524685859680176,-12.535611152648926,-28.441268920898438,36.73303985595703
1,1053071,16.753190994262695,-19.39495086669922,-3.4163806438446045,6.704190254211426
1,1053072,-19.52546501159668,-28.26430320739746,42.47613525390625,-65.80796813964844
1,1053075,-9.149806022644043,4.781347274780273,10.430758476257324,-11.926363945007324
1,1053076,38.15963363647461,17.391712188720703,-37.4457893371582,38.962677001953125
1,1053079,-6.18961763381958,11.416332244873047,25.455232620239258,4.106316566467285
1,1053080,-55.05027770996094,-17.244138717651367,23.773208618164062,0.3976007401943207
1,1053083,-5.643706798553467,-8.015839576721191,-35.83122253417969,-8.346512794494629
1,1053084,22.0893611907959,62.447044372558594,28.918554306030273,28.167022705078125
1,1053087,15.246088027954102,17.387691497802734,10.719018936157227,14.646421432495117
1,1053088,12.256103515625,-48.89131546020508,-75.0229263305664,-60.13839340209961
1,1053091,-17.231853485107422,1.2772173881530762,-22.708328247070312,4.1581597328186035
1,1053092,21.160202026367188,-17.6650333404541,13.465306282043457,22.49090576171875
1,1053095,24.098087310791016,-12.181941032409668,20.52682876586914,-12.892664909362793
1,1053096,-43.812015533447266,53.84210968017578,12.345065116882324,26.883392333984375
1,1053099,-23.307863235473633,-22.21518898010254,-10.41604995727539,-2.915493965148926
1,1053100,9.347450256347656,-37.37038040161133,13.182256698608398,-32.40477752685547
1,1053103,14.403083801269531,7.859980583190918,-11.538275718688965,-17.21430778503418
1,1053104,49.42036437988281,7.142730712890625,9.334038734436035,16.30560874938965
1,1053107,-1.5885330438613892,20.686105728149414,16.319801330566406,51.37582778930664
1,1053108,-49.59332275390625,-2.2240545749664307,-20.813411712646484,-12.59598445892334
1,1053111,5.248412609100342,-4.0622878074646,16.443052291870117,-40.244014739990234
1,1053112,-4.806517124176025,-24.30359649658203,-9.633069038391113,9.348151206970215
1,1053115,3.3459208011627197,-13.875519752502441,-24.62103843688965,3.540479898452759
1,1053116,34.50520706176758,35.771480560302734,25.637683868408203,-1.162466287612915
1,1053119,-40.30384826660156,-6.0991926193237305,-4.7117743492126465,-5.810096740722656
1,1053120,-39.8956413269043,1.0340261459350586,-4.968173027038574,-10.873931884765625
1,1053375,-15.484712600708008,-14.970063209533691,-13.039227485656738,8.937946319580078
1,1053377,52.883567810058594,-2.0456666946411133,-12.002915382385254,-0.7053560018539429
1,1053379,85.51956939697266,53.70215606689453,63.2623176574707,17.069324493408203
1,1053381,-44.49482345581055,-37.8412971496582,-2.031334638595581,-33.13264846801758
1,1053383,-38.36790084838867,-4.709342956542969,-31.343875885009766,-8.19742488861084
1,1053385,18.253795623779297,43.96311569213867,16.77096939086914,70.37207794189453
1,1053387,-1.3793545961380005,-17.568073272705078,-2.246925115585327,15.043999671936035
1,1053389,-36.2322998046875,-7.043046474456787,-5.694403171539307,-3.8163793087005615
1,1053392,39.314144134521484,14.524677276611328,-6.462536811828613,-51.0205192565918
1,1056836,67.1558837890625,3.7482070922851562,1.4753106832504272,-34.293270111083984
1,1056837,-24.77861213684082,20.373842239379883,4.912888526916504,46.95163345336914
1,1056839,-41.80953598022461,-34.777923583984375,-10.973785400390625,16.571353912353516
1,1056841,-54.297821044921875,-68.52030944824219,-8.460097312927246,-12.52685260772705
1,1056843,-31.264772415161133,21.41919708251953,2.823713779449463,22.907024383544922
1,1056845,47.07634735107422,56.09513854980469,21.716915130615234,-14.542454719543457
1,1056847,53.4206657409668,28.09320831298828,6.362403869628906,-67.94175720214844
1,1056849,-19.475833892822266,-52.60000228881836,-16.197612762451172,6.262444496154785
1,1056851,-24.130008697509766,-24.43616485595703,-15.940258979797363,81.27420806884766
1,1056853,5.028724193572998,27.376890182495117,-12.664484024047852,75.21502685546875
1,1056855,-12.356836318969727,-33.89364242553711,22.494321823120117,-28.376073837280273
1,1056857,16.410266876220703,19.962427139282227,32.19981384277344,-117.47882843017578
1,1056859,29.883970260620117,71.8837661743164,-18.468244552612305,-22.473432540893555
1,1056861,2.2493832111358643,-37.420501708984375,-27.171098709106445,44.7653923034668
1,1056863,4.935295104980469,-58.487579345703125,31.50990867614746,-1.5070693492889404
1,1056865,-8.193062782287598,14.76931381225586,9.644497871398926,16.76222801208496
1,1056867,-1.0550776720046997,9.89323902130127,-18.91815757751465,25.462570190429688
1,1056869,-16.67206382751465,21.975879669189453,-12.01098346710205,-12.362579345703125
1,1056871,-23.403669357299805,8.410810470581055,-53.08069610595703,-60.504798889160156
1,1056873,15.047839164733887,-36.09003829956055,14.114877700805664,-15.14372730255127
1,1056875,-0.011247253976762295,0.5760281682014465,96.83414459228516,76.51036071777344
1,1056877,13.307267189025879,21.513294219970703,2.3760297298431396,-9.687237739562988
1,1056879,21.638092041015625,3.9632482528686523,-58.25117492675781,-38.7249641418457
1,1056881,-43.597023010253906,-14.808355331420898,-5.33399772644043,41.276885986328125
1,1056883,-27.420490264892578,0.07654496282339096,10.3983793258667,-12.876635551452637
1,1056885,50.711883544921875,19.00353240966797,-24.946468353271484,-30.649600982666016
1,1056887,2.0400381088256836,-20.010217666625977,-5.030658721923828,25.894977569580078
1,1056889,1.1748223304748535,9.528831481933594,50.79129409790039,37.53487777709961
1,1056891,19.31161117553711,46.48614501953125,30.80138397216797,25.238391876220703
1,1056893,-47.9509391784668,-37.89728927612305,-19.705581665039062,-18.68379020690918
1,1056895,4.997424602508545,-42.94313049316406,-25.628154754638672,-34.25543212890625
1,1056897,42.029170989990234,28.730634689331055,-16.01293182373047,-18.632505416870117
1,1056899,-23.166929244995117,2.942777633666992,-13.89095687866211,-21.67055320739746
1,1056901,-26.1999568939209,6.958674430847168,18.029573440551758,15.20153522491455
1,1056903,6.281418323516846,-0.20554587244987488,7.525456428527832,23.150102615356445
1,1056905,-14.200970649719238,-43.74665069580078,-27.025300979614258,17.868240356445312
1,1056907,19.31218719482422,39.55913162231445,7.589315891265869,35.96707534790039
1,1056909,39.0550537109375,35.57122802734375,41.28642654418945,-87.38883972167969
1,1056911,9.826064109802246,-27.66965675354004,24.601503372192383,-101.24275207519531
1,1056913,-7.268218994140625,13.94287109375,-53.023128509521484,115.54998016357422
1,1056915,-47.924739837646484,-17.84449005126953,-29.42736053466797,113.08165740966797
1,1056917,-13.688188552856445,-32.83620834350586,38.36275863647461,-67.46438598632812
1,1056919,49.26239776611328,16.60838508605957,-20.88985824584961,-26.906715393066406
1,1056921,-5.9892354011535645,10.321890830993652,-0.7309236526489258,36.13417053222656
1,1056923,-26.93718719482422,18.297466278076172,39.26940155029297,-30.372936248779297
1,1056925,29.634132385253906,-2.853848934173584,-5.81461763381958,-23.992841720581055
1,1056927,-22.98884391784668,-23.52488136291504,-26.81291961669922,-6.919010639190674
1,1056929,-17.15279769897461,1.1727579832077026,13.357279777526855,8.883605003356934
1,1056931,47.31742858886719,-17.722597122192383,30.996185302734375,32.50550842285156
1,1056933,-24.18585205078125,-2.588423728942871,-37.375282287597656,-10.374613761901855
1,1056935,-20.014963150024414,36.074886322021484,-14.811864852905273,-24.040273666381836
1,1056937,41.64702224731445,9.96336841583252,16.552942276000977,-5.339206695556641
1,1056939,-9.914029121398926,-20.511869430541992,1.6448829174041748,6.39284086227417
1,1056941,-35.59564208984375,16.255643844604492,17.000106811523438,58.74686050415039
1,1056943,-14.810795783996582,13.025424003601074,3.0918972492218018,26.097251892089844
1,1056945,39.35830307006836,-35.793922424316406,3.8197548389434814,-57.04192352294922
1,1056947,6.296692371368408,5.575710296630859,-30.846845626831055,-16.64260482788086
1,1056949,-47.823997497558594,14.800237655639648,-14.052734375,41.99808120727539
1,1056951,16.618148803710938,-23.031694412231445,24.957067489624023,-14.90487003326416
1,1056953,37.10664749145508,12.722831726074219,6.936841011047363,-77.72088623046875
1,1056955,28.77066421508789,25.23293113708496,4.571877479553223,29.568866729736328
1,1056957,-26.554763793945312,-11.753589630126953,-34.96157455444336,50.802520751953125
1,1056959,-23.196378707885742,-24.54877281188965,2.596832752227783,-22.103559494018555
1,1056961,17.49205207824707,-5.575228691101074,29.800655364990234,-2.627079963684082
1,1056963,-21.735750198364258,-2.2512102127075195,-10.483346939086914,-20.236717224121094
1,1056965,3.220777750015259,4.067903518676758,-0.22179771959781647,-18.74506378173828
1,1056967,19.585847854614258,20.455829620361328,-17.112564086914062,20.702245712280273
1,1056969,18.92129135131836,14.628175735473633,-5.753188133239746,53.52777099609375
1,1056971,-15.501657485961914,-8.46436595916748,27.43722915649414,22.402830123901367
1,1056974,-26.195268630981445,-12.394573211669922,14.09378433227539,-65.19511413574219
1,1056975,27.59556770324707,-6.209871768951416,-3.3682260513305664,-36.32263946533203
1,1056976,-23.8279972076416,-10.498910903930664,-4.40597677230835,49.06605529785156
1,1056979,0.6909680366516113,20.747743606567383,-14.611392974853516,0.426557719707489
1,1056980,27.830570220947266,10.18772029876709,-0.2632268965244293,-28.04912757873535
1,1056983,-31.26354217529297,-20.562149047851562,1.4070454835891724,15.54562759399414
1,1056984,12.278474807739258,0.9349955916404724,-13.983762741088867,41.398765563964844
1,1056987,28.08915138244629,10.600680351257324,25.767505645751953,20.280515670776367
1,1056988,-33.99625778198242,-18.19378662109375,-2.8634843826293945,-70.09904479980469
1,1056991,-36.26322937011719,-3.8529856204986572,-11.598742485046387,-2.200505018234253
1,1056992,12.238048553466797,45.9402961730957,32.269981384277344,30.2593994140625
1,1056995,19.108041763305664,-15.469797134399414,-13.861895561218262,-39.67064666748047
1,1056996,4.106665134429932,-53.349117279052734,-39.49700927734375,19.703107833862305
1,1056999,0.21030472218990326,-11.563831329345703,10.110356330871582,-4.99194860458374
1,1057000,-17.811138153076172,-10.705607414245605,0.17915792763233185,-91.44795227050781
1,1057003,17.14622688293457,55.79084396362305,-8.75554084777832,69.92871856689453
1,1057006,32.48600387573242,26.2103214263916,16.655941009521484,184.91017150878906
1,1057007,-15.365955352783203,-39.842308044433594,16.567089080810547,-35.55446243286133
1,1057008,12.897007942199707,47.426612854003906,5.373658657073975,-152.9469757080078
1,1057011,-12.389644622802734,18.90378761291504,-25.383729934692383,-64.35218811035156
1,1057012,-11.143505096435547,-18.445676803588867,1.6657757759094238,76.08336639404297
1,1057015,28.28614044189453,-3.3215672969818115,2.2545454502105713,82.0428237915039
1,1057016,-6.6063385009765625,-17.408872604370117,2.933009386062622,-17.47519874572754
1,1057019,-16.621379852294922,7.635683536529541,11.257844924926758,-20.12958526611328
1,1057020,-10.121886253356934,17.394222259521484,-6.221503734588623,-23.612768173217773
1,1057023,8.579995155334473,14.21364974975586,19.175811767578125,6.369295120239258
1,1057024,-24.5566463470459,-4.047181606292725,6.475306987762451,1.6562436819076538
1,1057027,0.5837545394897461,-45.27823257446289,-17.58389663696289,-43.91519546508789
1,1057028,26.4495849609375,-54.3007698059082,-30.527212142944336,3.434385299682617
1,1057031,-39.12613296508789,23.442846298217773,-14.039885520935059,31.930757522583008
1,1057032,18.4404296875,66.3815689086914,35.70265197753906,-10.630005836486816
1,1057035,35.98180389404297,-17.854000091552734,18.19972801208496,16.386821746826172
1,1057036,-36.0924186706543,-44.333839416503906,-23.6182918548584,70.76614379882812
1,1057039,3.794414520263672,7.654971122741699,12.363842010498047,-44.57361602783203
1,1057040,14.039997100830078,5.619591236114502,33.937950134277344,-59.35520553588867
1,1057043,-17.321542739868164,9.1142578125,-13.152530670166016,29.135944366455078
1,1057044,15.064653396606445,13.25953483581543,-47.80058288574219,-14.163257598876953
1,1057047,30.125507354736328,-1.5837956666946411,10.805330276489258,7.011411666870117
1,1057048,-8.325936317443848,9.892953872680664,36.15937423706055,14.65147876739502
1,1057051,-45.980533599853516,18.55105209350586,-43.852840423583984,-5.44497013092041
1,1057052,7.385013103485107,-28.56062889099121,-10.075715065002441,14.339934349060059
1,1057055,61.20836639404297,-38.58704376220703,25.542003631591797,-15.530518531799316
1,1057056,-25.405263900756836,1.9092319011688232,-14.58369255065918,-3.5244357585906982
1,1057059,-28.904293060302734,21.84906768798828,-16.867246627807617,63.12725067138672
1,1057060,22.79875946044922,20.344362258911133,6.502650737762451,-24.82416343688965
1,1057063,-36.19808578491211,7.795722007751465,78.79828643798828,-83.1021957397461
1,1057064,28.61566162109375,-3.6377735137939453,20.767213821411133,35.64396667480469
1,1057067,44.912353515625,-17.77886390686035,-85.80512237548828,23.624431610107422
1,1057068,-84.50203704833984,-9.081021308898926,-22.74608039855957,-21.937841415405273
1,1057071,-33.84830093383789,1.8071653842926025,16.528261184692383,-4.86875057220459
1,1057072,47.78782653808594,-10.824674606323242,12.233782768249512,6.946026802062988
1,1057075,0.9672811627388,-7.083795070648193,19.281579971313477,48.70161819458008
1,1057076,18.513450622558594,42.961891174316406,-11.848002433776855,17.41326904296875
1,1057079,51.68326950073242,39.57840347290039,9.337371826171875,-26.659191131591797
1,1057080,-23.846006393432617,-25.41141128540039,9.40676498413086,-11.018377304077148
1,1057083,-47.17478942871094,-39.93830108642578,-29.386934280395508,-24.443645477294922
1,1057084,22.2632999420166,-7.895129203796387,9.177287101745605,-31.315309524536133
1,1057087,37.838069915771484,0.034411750733852386,-8.674736976623535,17.734777450561523
1,1057088,-8.232918739318848,11.112671852111816,-19.41124725341797,49.85651779174805
1,1057091,-28.914907455444336,10.148276329040527,24.874244689941406,-15.208380699157715
1,1057092,-21.072744369506836,-4.33219575881958,4.555461883544922,-57.78673553466797
1,1057095,-13.035014152526855,3.6714725494384766,8.350234031677246,37.3278694152832
1,1057096,9.856460571289062,13.72807788848877,-1.2064021825790405,26.307125091552734
1,1057099,19.36114501953125,3.8405940532684326,-12.115758895874023,-56.88859939575195
1,1057100,3.417825698852539,-30.73609161376953,10.874887466430664,19.085323333740234
1,1057103,-19.61986541748047,-4.015061855316162,-4.563979625701904,38.8905029296875
1,1057104,-11.131111145019531,19.200803756713867,-9.636534690856934,5.16746187210083
1,1057107,23.88800048828125,18.813156127929688,17.89504623413086,10.766059875488281
1,1057108,22.4631404876709,10.544299125671387,-3.069368839263916,-43.845977783203125
1,1057111,-3.2263050079345703,-44.3112907409668,-24.321910858154297,-17.37425422668457
1,1057112,-9.691144943237305,10.712916374206543,44.64024353027344,59.151634216308594
1,1057115,-4.357030868530273,20.461729049682617,6.9514617919921875,-19.87998390197754
1,1057116,8.74808406829834,-54.901573181152344,-56.12532424926758,-53.326595306396484
1,1057119,18.739349365234375,35.886932373046875,10.570054054260254,28.218555450439453
1,1057120,-25.685426712036133,65.04492950439453,17.119009017944336,10.433252334594727
1,1057123,-29.567230224609375,-57.521820068359375,-16.353811264038086,-22.435039520263672
1,1057124,15.347336769104004,-60.35383224487305,5.572341442108154,10.729942321777344
1,1057127,32.475040435791016,29.68358612060547,25.496360778808594,43.086124420166016
1,1057128,5.710208415985107,49.62895202636719,-8.922713279724121,33.30438995361328
1,1057131,-26.220836639404297,-9.291948318481445,-22.474292755126953,-18.10004234313965
1,1057132,4.84271764755249,-29.06017303466797,11.391328811645508,-49.9962158203125
1,1057135,-3.8842506408691406,2.201568126678467,10.546449661254883,3.102818489074707
1,1057136,-6.568926811218262,-10.600075721740723,-4.1403961181640625,-13.706546783447266
1,1057139,18.798410415649414,-19.88790512084961,3.369464635848999,-16.967283248901367
1,1057140,4.618279457092285,19.572471618652344,-6.782538890838623,39.505714416503906
1,1057143,1.6941187381744385,17.563310623168945,-23.21820831298828,-5.537583351135254
1,1057144,-40.960411071777344,-14.557486534118652,1.8094217777252197,8.961791038513184
1,1057147,-30.100486755371094,4.575874328613281,9.54475212097168,-17.907184600830078
1,1057148,21.963796615600586,3.7715003490448,-9.145367622375488,-45.07486343383789
1,1057151,32.94763946533203,28.01213264465332,16.67930030822754,31.679651260375977
1,1057152,27.89293670654297,3.224156379699707,-4.596423149108887,4.96082878112793
1,1057155,-0.868009626865387,-20.07660675048828,-0.5378184914588928,6.112575531005859
1,1057156,5.681446552276611,34.198177337646484,17.25514793395996,49.57928466796875
1,1057159,-29.981670379638672,-35.57619857788086,-4.759159564971924,-5.949122905731201
1,1057160,-34.48821258544922,-8.796626091003418,12.651673316955566,-44.37179183959961
1,1057163,26.544816970825195,53.91596221923828,-15.48006820678711,-4.174744606018066
1,1057164,-15.09606647491455,-35.20644760131836,0.8746392130851746,13.378632545471191
1,1057167,-4.605468273162842,-25.182435989379883,5.08726692199707,-1.746609091758728
1,1057169,39.75208282470703,0.0015133349224925041,-30.456100463867188,23.18785858154297
1,1057171,11.780479431152344,6.289925575256348,11.544742584228516,-13.39709186553955
1,1057173,4.566516876220703,10.776262283325195,41.552425384521484,-30.202411651611328
1,1057175,-50.6771240234375,-0.23790495097637177,-5.109461784362793,51.63771057128906
1,1057177,-42.82372283935547,5.125677585601807,-49.007877349853516,-8.437851905822754
1,1057179,8.852742195129395,-34.11792755126953,-12.622964859008789,-50.669410705566406
1,1057181,43.049400329589844,-4.816982269287109,10.734458923339844,35.94810485839844
1,1057183,26.552974700927734,19.515169143676758,-13.832432746887207,43.38026428222656
1,1057185,-53.790435791015625,-17.69502067565918,-23.64756965637207,4.489801406860352
1,1057189,-5.267464637756348,-2.1969549655914307,70.65767669677734,-53.608951568603516
1,1057190,33.43614959716797,57.91468048095703,95.98297119140625,-50.79622268676758
1,1057191,-10.618155479431152,3.3276326656341553,-38.23495864868164,3.1911306381225586
1,1057192,27.011672973632812,-39.1856689453125,-45.75114059448242,12.671102523803711
1,1057195,83.95536804199219,32.378013610839844,2.1779868602752686,31.226306915283203
1,1057196,7.116465091705322,9.991121292114258,-20.188762664794922,30.708477020263672
1,1057199,-126.93792724609375,-16.748289108276367,-38.13473892211914,-24.45237159729004
1,1057200,-53.288108825683594,8.340459823608398,-0.3395267426967621,-21.42866325378418
1,1057203,85.67659759521484,-6.7267165184021,-11.195404052734375,10.723464965820312
1,1057204,38.09062957763672,-29.519546508789062,-66.38858032226562,6.835807800292969
1,1057207,-20.2320556640625,11.798309326171875,20.847843170166016,33.122371673583984
1,1057208,-14.872281074523926,12.777767181396484,85.7800064086914,-1.0091956853866577
1,1057211,1.897746205329895,3.140223741531372,53.527164459228516,-66.52769470214844
1,1057212,30.416603088378906,10.963175773620605,1.7415322065353394,3.2615973949432373
1,1057215,-13.536964416503906,-62.80537414550781,-20.128440856933594,52.76797103881836
1,1057216,-70.77765655517578,-18.31072998046875,23.762510299682617,10.721794128417969
1,1057219,-33.773292541503906,34.57172393798828,-11.021419525146484,-22.433944702148438
1,1057220,13.685222625732422,-9.098599433898926,-20.56528663635254,-26.124284744262695
1,1057223,31.545469284057617,39.16056823730469,6.020941257476807,6.6635260581970215
1,1057224,0.144210085272789,54.25004959106445,-40.27638626098633,8.61129093170166
1,1057227,38.978477478027344,-20.1229305267334,-2.3312935829162598,28.74593734741211
1,1057228,30.694400787353516,-54.953304290771484,-10.42257022857666,16.05376434326172
1,1057231,-31.75966453552246,-27.777050018310547,-38.91170883178711,-36.94151306152344
1,1057232,28.28489875793457,-8.711357116699219,53.23210144042969,-19.281225204467773
1,1057235,-55.95457077026367,23.763530731201172,34.318172454833984,9.431098937988281
1,1057236,-80.89424133300781,52.385746002197266,-8.930444717407227,-3.45977783203125
1,1057239,87.43399047851562,3.429503917694092,-15.100488662719727,19.169485092163086
1,1057240,62.96738815307617,5.0572896003723145,-23.7661190032959,16.03171157836914
1,1057243,-8.405265808105469,-20.511730194091797,-5.460800647735596,-58.47797775268555
1,1057244,21.020862579345703,-57.83549880981445,5.608180522918701,13.652342796325684
1,1057247,-19.51775550842285,12.069725036621094,69.68791198730469,61.26138687133789
1,1057248,-47.607627868652344,22.226093292236328,12.75169563293457,-40.26752471923828
1,1057251,-18.719249725341797,13.531502723693848,-56.228363037109375,-22.37624740600586
1,1057252,28.927066802978516,39.19636154174805,7.395174503326416,17.89910316467285
1,1057255,22.68608856201172,-23.404876708984375,45.240966796875,-3.571579694747925
1,1057256,20.35326385498047,-61.68439865112305,19.179767608642578,-10.1043062210083
1,1057259,10.726187705993652,34.33391571044922,-40.08378219604492,-50.7906379699707
1,1057260,-74.3192367553711,46.360809326171875,-36.277957916259766,24.31659507751465
1,1057263,-43.09928894042969,-44.63343048095703,-52.42854309082031,70.3261489868164
1,1057264,21.534616470336914,-36.21967697143555,-45.451026916503906,-4.063030242919922
1,1057267,-1.0592710971832275,16.696197509765625,25.271207809448242,22.203266143798828
1,1057268,10.621305465698242,13.755085945129395,28.68573760986328,-29.80718421936035
1,1057271,39.293365478515625,-7.950582504272461,47.98432159423828,-37.57189178466797
1,1057272,-18.794565200805664,10.502814292907715,34.249549865722656,73.58509826660156
1,1057275,-51.39107894897461,19.155786514282227,-21.445247650146484,-7.766814708709717
1,1057276,41.87623596191406,-31.878841400146484,-33.00904846191406,-72.87664794921875
1,1057279,92.36119842529297,-0.6627210378646851,-27.792226791381836,24.523971557617188
1,1057280,67.95238494873047,49.088172912597656,57.88511657714844,12.122062683105469
1,1057283,-27.38979721069336,-7.153008460998535,111.48069763183594,-31.86741828918457
1,1057284,-174.6972198486328,-17.05108070373535,14.929024696350098,1.6613463163375854
1,1057287,-90.19493865966797,-9.061250686645508,-92.17798614501953,22.82699203491211
1,1057288,61.112220764160156,-21.977739334106445,-87.86707305908203,21.04454231262207
1,1057291,71.97659301757812,15.615132331848145,-51.518619537353516,-45.378196716308594
1,1057292,42.37666702270508,26.289451599121094,-33.87299728393555,-36.350128173828125
1,1057295,-32.6348991394043,-4.268214225769043,42.260047912597656,73.48417663574219
1,1057296,-24.142641067504883,-0.2336314171552658,52.21528244018555,81.23221588134766
1,1057299,27.073854446411133,-3.944653272628784,84.37369537353516,-68.11064147949219
1,1057300,85.77887725830078,-42.20701599121094,92.34355163574219,-126.55119323730469
1,1057303,37.438236236572266,25.814952850341797,-60.16923522949219,-3.9344637393951416
1,1057304,-153.9150390625,56.97301483154297,-48.417869567871094,69.07572174072266
1,1057307,-83.85115051269531,-41.41682434082031,-50.41755294799805,51.6826171875
1,1057308,80.01445770263672,-44.3398551940918,-92.19223022460938,22.653230667114258
1,1057311,87.2379379272461,25.239225387573242,27.216541290283203,-19.37082290649414
1,1057312,22.639968872070312,59.826637268066406,60.84117889404297,-35.63718032836914
1,1057315,-59.88251495361328,-3.941624164581299,20.19700050354004,49.251808166503906
1,1057316,-68.31451416015625,-61.95484161376953,3.878024101257324,12.666800498962402
1,1057319,44.49100875854492,1.554894208908081,18.121932983398438,-51.70261764526367
1,1057320,60.04707717895508,33.81058883666992,11.22541332244873,21.73170280456543
1,1057323,-85.44617462158203,-11.599570274353027,-30.230838775634766,9.174590110778809
1,1057324,14.167513847351074,-19.4399471282959,23.913393020629883,-27.598705291748047
1,1057327,104.27854919433594,-6.976075649261475,13.840048789978027,-10.336905479431152
1,1057328,-40.723594665527344,-18.13614273071289,-45.12308883666992,-17.642498016357422
1,1057331,-26.422536849975586,18.804401397705078,65.75664520263672,-10.113414764404297
1,1057332,-17.975784301757812,0.5642181634902954,45.398677825927734,58.67042541503906
1,1057335,-76.1524887084961,2.3980703353881836,-115.27799224853516,5.981020927429199
1,1057336,13.306052207946777,36.76652908325195,-92.79790496826172,-65.55717468261719
1,1057339,42.81368637084961,-16.74582290649414,-38.29194259643555,36.00249099731445
1,1057340,48.73601150512695,7.6105499267578125,-9.78215503692627,58.23283386230469
1,1057343,26.121158599853516,26.557748794555664,107.12466430664062,-3.662914752960205
1,1057344,-57.81948471069336,7.649871826171875,108.76123046875,-16.088134765625
1,1057347,-29.17498779296875,-43.93766403198242,-4.337615489959717,-45.451717376708984
1,1057348,91.22740173339844,-37.803924560546875,11.914257049560547,-55.127925872802734
1,1057351,57.673789978027344,53.6075325012207,5.989710330963135,-5.967801570892334
1,1057353,-128.06585693359375,29.974367141723633,-41.61837387084961,46.82771682739258
1,1057355,-90.752197265625,-35.33115005493164,-21.42427635192871,71.46536254882812
1,1057357,13.97183895111084,-58.189453125,-58.59322738647461,-17.880624771118164
1,1057359,45.51960754394531,9.009245872497559,-5.772806644439697,-65.90617370605469
1,1057361,75.07132720947266,39.809226989746094,51.89789962768555,36.447120666503906
1,1057363,87.6615219116211,-2.485835075378418,-14.680842399597168,26.81049919128418
1,1057365,-23.629404067993164,-10.967483520507812,-32.951839447021484,-41.16749572753906
1,1057367,-186.10792541503906,4.998504161834717,17.116540908813477,-4.881300926208496
1,1057369,-46.07866668701172,27.084245681762695,24.004741668701172,24.078372955322266
1,1057371,139.91165161132812,-1.5936541557312012,-74.45647430419922,7.370739459991455
1,1057373,70.30384063720703,-4.91710090637207,2.7292323112487793,32.5128173828125
1,1057375,-11.293401718139648,1.8068082332611084,129.2722930908203,-26.238529205322266
1,1057377,-41.080322265625,-36.95185852050781,38.22753143310547,-57.91340637207031
1,1057379,-29.428974151611328,4.066970348358154,-56.93557357788086,27.42613410949707
1,1057381,67.30298614501953,35.58017349243164,-64.74388885498047,12.865757942199707
1,1057382,-60.90397262573242,-31.09649085998535,0.1183648630976677,-4.5746283531188965
1,1057386,-97.22442626953125,-14.169697761535645,36.57600402832031,-0.7081013321876526
1,1057387,85.63337707519531,30.966777801513672,30.731281280517578,12.548966407775879
1,1057388,31.785457611083984,-10.437230110168457,23.63984489440918,32.90668869018555
1,1057391,6.313583850860596,-1.0166780948638916,28.544761657714844,-23.933353424072266
1,1057392,-11.123831748962402,10.849912643432617,-13.617452621459961,-47.614585876464844
1,1057395,-54.73792266845703,1.4292092323303223,-96.19988250732422,3.9643256664276123
1,1057396,22.05707550048828,26.701698303222656,-45.56885528564453,50.12748718261719
1,1057399,4.720185279846191,-1.7259231805801392,-43.2141227722168,-0.10769511759281158
1,1057400,40.86371994018555,-3.7404236793518066,-53.13426208496094,-53.34453582763672
1,1057403,39.34196853637695,-21.38296890258789,92.9866714477539,42.49430847167969
1,1057404,-50.84275817871094,-30.089706420898438,101.13819885253906,47.884944915771484
1,1057407,-9.9906005859375,11.447830200195312,22.91208839416504,-31.092449188232422
1,1057408,10.771443367004395,-5.591917991638184,9.179312705993652,-46.34037780761719
1,1057411,-6.06876802444458,11.226486206054688,-12.893231391906738,-45.82863998413086
1,1057412,21.521638870239258,18.231643676757812,-43.636714935302734,8.19121265411377
1,1057415,-15.454813003540039,-26.796344757080078,-30.52056884765625,27.3404598236084
1,1057416,-71.42671203613281,-15.29616641998291,27.402645111083984,1.6302388906478882
1,1057419,-13.278714179992676,45.852970123291016,39.820030212402344,15.252022743225098
1,1057420,-2.8274409770965576,23.9692440032959,-1.9906792640686035,65.72245788574219
1,1057423,38.11843490600586,-33.730289459228516,-72.45098114013672,42.04438781738281
1,1057424,108.39208221435547,-12.208362579345703,-29.766925811767578,-45.21815872192383
1,1057427,61.40234375,8.013028144836426,22.188785552978516,-84.02865600585938
1,1057428,-33.018943786621094,22.425739288330078,-5.918161869049072,-4.428213119506836
1,1057431,-154.07736206054688,20.28205680847168,42.52509307861328,52.95786666870117
1,1057432,-79.32112884521484,-44.6368522644043,25.62873077392578,17.39139747619629
1,1057435,81.042724609375,-41.222476959228516,-62.32041931152344,-36.34075164794922
1,1057436,55.66212463378906,4.012047290802002,-43.29015350341797,-62.465187072753906
1,1057439,14.341167449951172,10.745160102844238,45.89588928222656,42.86534118652344
1,1057440,-14.197267532348633,38.6857795715332,67.18498992919922,57.69523620605469
1,1057443,-44.4547119140625,-0.9928939342498779,16.210878372192383,-30.58180046081543
1,1057444,9.10074520111084,-18.09027099609375,-11.378403663635254,-45.993595123291016
1,1057447,43.7750129699707,42.41840362548828,-10.362834930419922,19.6397762298584
1,1057448,31.627758026123047,28.95732879638672,31.285125732421875,34.55936050415039
1,1057451,12.957415580749512,-18.214406967163086,5.495506286621094,-9.048900604248047
1,1057452,-18.53155517578125,-57.82387924194336,-52.216983795166016,13.31898021697998
1,1057455,-36.222320556640625,-9.989274024963379,-62.79878234863281,-0.32260939478874207
1,1057456,-12.115130424499512,32.41717529296875,-51.91828155517578,-19.00811195373535
1,1057459,25.281373977661133,-39.37399673461914,46.0157470703125,21.821531295776367
1,1057460,11.301260948181152,4.0664753913879395,52.18686294555664,19.128469467163086
1,1057463,-8.408852577209473,45.760929107666016,61.74228286743164,-21.217220306396484
1,1057464,-24.879480361938477,-31.010696411132812,16.392221450805664,-14.151477813720703
1,1057467,-22.880464553833008,-23.521400451660156,-115.72103118896484,-54.31988525390625
1,1057468,12.347091674804688,4.881580352783203,-26.602479934692383,-25.773487091064453
1,1057471,-10.652176856994629,6.636081218719482,6.023683547973633,80.52555084228516
1,1057472,-11.753279685974121,19.964141845703125,22.477243423461914,61.857704162597656
1,1057475,61.854515075683594,19.351518630981445,99.56321716308594,20.138626098632812
1,1057476,34.87116241455078,1.1399284601211548,37.15885543823242,-39.22513198852539
1,1057479,-47.10990524291992,8.874622344970703,2.7728183269500732,-64.94732666015625
1,1057480,-29.047517776489258,-19.50029945373535,-14.460501670837402,-27.854494094848633
1,1057483,17.124174118041992,-40.23225784301758,-74.61803436279297,-9.631382942199707
1,1057484,15.025834083557129,15.227989196777344,-44.50844192504883,40.20564651489258
1,1057487,-14.412450790405273,17.553747177124023,-9.384838104248047,42.16991424560547
1,1057488,-22.064544677734375,24.080188751220703,-33.325443267822266,8.628724098205566
1,1057491,53.03572082519531,8.729724884033203,7.756504535675049,-23.788471221923828
1,1057492,6.182043075561523,-31.253923416137695,-4.783016204833984,-35.588722229003906
1,1057495,-95.72661590576172,-9.730355262756348,-8.76061725616455,39.14265823364258
1,1057496,24.309524536132812,11.220939636230469,110.21209716796875,-10.674116134643555
1,1057499,20.3319091796875,-8.138154983520508,103.41606903076172,-59.6440315246582
1,1057500,-1.3104192018508911,0.5582903027534485,-32.945404052734375,37.861785888671875
1,1057503,58.95806884765625,21.600114822387695,-127.74420928955078,29.073017120361328
1,1057504,-45.34835433959961,2.809495449066162,-49.40332794189453,-19.04343605041504
1,1057507,-55.841636657714844,9.042990684509277,61.53396224975586,1.6053686141967773
1,1057508,36.102298736572266,-42.95484924316406,-7.063380241394043,-6.595356464385986
1,1057511,45.43590545654297,-36.25038146972656,18.837352752685547,-9.968711853027344
1,1057512,23.823392868041992,47.561100006103516,51.56290817260742,32.48226547241211
1,1057515,-27.4813232421875,-7.300788879394531,-48.51675033569336,-1.4674170017242432
1,1057516,-17.867321014404297,-16.716894149780273,14.427927017211914,-33.25368881225586
1,1057519,96.82353973388672,57.98893356323242,92.64126586914062,23.478992462158203
1,1057520,16.335355758666992,48.80134201049805,-1.8750602006912231,0.3060173988342285
1,1057523,-161.7054443359375,-22.198389053344727,-101.30330657958984,-14.276773452758789
1,1057524,-94.4227294921875,-90.83757781982422,-98.378173828125,21.78504180908203
1,1057527,77.95005798339844,-34.111812591552734,-100.13690948486328,36.43104553222656
1,1057528,77.17742156982422,60.67461395263672,-13.79517936706543,17.487089157104492
1,1057531,8.070958137512207,40.37265396118164,191.41302490234375,-0.32842546701431274
1,1057532,-14.591069221496582,28.5025634765625,139.7588653564453,3.548022747039795
1,1057535,1.1883244514465332,-30.058250427246094,-22.27814483642578,-53.93751907348633
1,1057536,32.862178802490234,-81.36174774169922,-60.46638488769531,-49.59085464477539
1,1057539,-23.10593032836914,23.339155197143555,-45.79377746582031,0.35880136489868164
1,1057540,-52.700260162353516,27.447391510009766,5.854637622833252,23.695337295532227
1,1057543,7.5499958992004395,-52.83967971801758,-15.384161949157715,11.24117374420166
1,1057544,35.39091110229492,29.64632797241211,20.827377319335938,29.919340133666992
1,1057547,56.78809356689453,62.800662994384766,75.14108276367188,-14.358582496643066
1,1057548,0.05447734147310257,-63.353336334228516,-13.018889427185059,-76.82382202148438
1,1057551,-115.91726684570312,-20.099422454833984,-30.033939361572266,34.805992126464844
1,1057552,-18.080842971801758,68.02713012695312,-33.91681671142578,27.61534881591797
1,1057555,49.837669372558594,5.712335586547852,-73.86518096923828,-32.62505340576172
1,1057556,29.94109344482422,14.916525840759277,19.745758056640625,22.69841194152832
1,1057559,5.640345096588135,-30.558490753173828,66.12816619873047,30.26423454284668
1,1057560,-39.96416473388672,-30.333736419677734,-10.049660682678223,-2.0684571266174316
1,1057563,48.70035171508789,30.124929428100586,-18.655521392822266,-14.810873031616211
1,1057564,27.48386573791504,-53.74690628051758,-11.014772415161133,27.958723068237305
1,1057567,-29.964336395263672,-2.451774835586548,-19.792600631713867,33.29334259033203
1,1057568,-23.09844970703125,45.20404815673828,40.877891540527344,-37.973934173583984
1,1057571,-60.77836227416992,-15.343708992004395,35.65398025512695,-36.50611877441406
1,1057572,19.45796012878418,9.147714614868164,-14.520919799804688,-6.351589679718018
1,1057575,72.3005142211914,12.73838996887207,-23.554262161254883,28.486482620239258
1,1057576,-0.05324794724583626,-2.726454019546509,-23.62495231628418,19.248939514160156
1,1057579,-45.35821533203125,0.23906643688678741,-25.50947380065918,-39.36872863769531
1,1057581,-15.944671630859375,-20.505109786987305,14.302266120910645,20.68680191040039
1,1057583,20.618118286132812,1.3593777418136597,57.775264739990234,27.766845703125
1,1057585,-4.686581611633301,18.32251739501953,-0.053586676716804504,-55.22571563720703
1,1057587,18.358156204223633,22.36794090270996,43.50822830200195,-44.066810607910156
1,1057589,38.28105163574219,-13.341751098632812,82.2983169555664,44.58333969116211
1,1057591,-7.4024200439453125,-10.386667251586914,-58.89274597167969,35.767948150634766
1,1057593,-48.696041107177734,42.939208984375,-80.32661437988281,-47.23306655883789
1,1057597,-63.70330810546875,-58.72256851196289,-33.899658203125,0.6443160772323608
1,1057597,11.689924240112305,-54.80278778076172,-20.021814346313477,30.760330200195312
1,1057599,73.2779541015625,57.05116653442383,2.47335147857666,-12.16600513458252
1,1057601,55.86681365966797,45.32876968383789,-29.319000244140625,30.263837814331055
1,1057603,15.637449264526367,-4.6033830642700195,23.309770584106445,19.144145965576172
1,1057605,-79.8236083984375,0.8036818504333496,93.42542266845703,-58.98683166503906
1,1057607,-77.76004791259766,-41.529205322265625,7.830050945281982,-15.515066146850586
1,1057609,55.50941848754883,-52.49209976196289,-13.328821182250977,37.88983917236328
1,1057611,73.74051666259766,59.574928283691406,22.494478225708008,12.595212936401367
1,1057613,11.260437965393066,15.231772422790527,-66.2571792602539,-57.58832931518555
1,1057615,-44.90020751953125,-23.748430252075195,-43.348365783691406,-46.95624923706055
1,1057617,-72.82431030273438,23.07168197631836,12.576273918151855,94.91100311279297
1,1057619,12.471086502075195,-25.774641036987305,17.731475830078125,104.20628356933594
1,1057621,49.56330108642578,-21.855854034423828,82.15225219726562,-21.624427795410156
1,1057623,27.175331115722656,39.43687057495117,10.301088333129883,-68.58617401123047
1,1057625,-13.325078010559082,8.322653770446777,-61.058345794677734,-74.78292846679688
1,1057627,-25.407638549804688,-1.3193529844284058,-46.948577880859375,25.472604751586914
1,1057629,45.20862579345703,19.45418357849121,-36.65229034423828,94.34476470947266
1,1057631,-10.870010375976562,-3.4247028827667236,-17.421911239624023,-47.39160919189453
1,1057633,-33.14756774902344,-25.780668258666992,12.505361557006836,-53.11996841430664
1,1057635,13.626211166381836,-30.770204544067383,81.60928344726562,63.66694259643555
1,1057637,-1.8993933200836182,27.856996536254883,75.4865951538086,7.615541458129883
1,1057639,-15.924732208251953,9.23555850982666,24.242523193359375,-86.78056335449219
1,1057641,-34.40653610229492,-24.180782318115234,-48.738059997558594,-12.085274696350098
1,1057643,7.83507776260376,12.897562026977539,-48.85418701171875,59.7779541015625
1,1057645,20.293777465820312,-23.845792770385742,4.921539783477783,0.42778319120407104
1,1057647,-5.092156410217285,3.081679582595825,15.095767974853516,-22.272058486938477
1,1057649,5.679460525512695,40.0,46.127750396728516,16.379472732543945
1,1057651,30.008724212646484,-9.118916511535645,-10.442093849182129,34.90913772583008
1,1057653,56.80445098876953,-2.627185583114624,-110.2373275756836,12.281867027282715
1,1057655,-11.091622352600098,-17.809295654296875,-63.8160285949707,-23.292001724243164
1,1057657,-89.87174224853516,-7.527809143066406,34.87306213378906,-0.02806197665631771
1,1057659,1.3065153360366821,27.454471588134766,6.9572930335998535,22.813522338867188
1,1057661,76.23500061035156,28.3607234954834,70.41832733154297,-35.795536041259766
1,1057663,-25.308191299438477,-15.817665100097656,64.09882354736328,-37.26792907714844
1,1057665,-55.2411003112793,-47.82872009277344,-86.51483154296875,16.55368995666504
1,1057667,4.034374713897705,15.928892135620117,-41.00753402709961,5.100513458251953
1,1057669,20.834386825561523,16.46770668029785,96.71463775634766,6.679173469543457
1,1057671,-7.057735919952393,-3.3773717880249023,98.52230072021484,10.94793701171875
1,1057673,27.970703125,5.042569637298584,-75.25941467285156,-20.641592025756836
1,1057675,74.56552124023438,26.60877799987793,-54.730140686035156,5.761817932128906
1,1057677,-103.21820068359375,-5.2972846031188965,44.9075927734375,62.69279098510742
1,1057679,-101.67031860351562,-70.48318481445312,-43.803977966308594,20.578723907470703
1,1057681,82.01499938964844,22.221296310424805,-85.05061340332031,-94.48728942871094
1,1057683,33.65948486328125,36.11237335205078,-39.00819396972656,-37.70209503173828
1,1057685,9.224931716918945,-43.734779357910156,79.154296875,100.65485382080078
1,1057687,34.61549377441406,27.976398468017578,56.7426643371582,21.935726165771484
1,1057689,-45.19511413574219,39.402408599853516,26.20607566833496,-96.61400604248047
1,1057691,-16.717317581176758,-45.85396957397461,67.25717163085938,-33.39625930786133
1,1057693,52.45017623901367,-44.22064208984375,-76.22095489501953,56.87260055541992
1,1057695,-9.840537071228027,21.759742736816406,-58.643836975097656,27.22832489013672
1,1057697,-17.192445755004883,44.42265701293945,-0.47837379574775696,-33.05148696899414
1,1057699,10.128805160522461,10.288467407226562,-15.71709156036377,-25.393510818481445
1,1057701,-18.455766677856445,26.136714935302734,63.55326843261719,49.36216354370117
1,1057703,6.399928569793701,19.3745174407959,8.728662490844727,36.58397674560547
1,1057705,17.746789932250977,-76.88123321533203,-5.6450982093811035,-37.61712646484375
1,1057707,-29.9776554107666,-53.10367965698242,17.64020347595215,-38.0059814453125
