Aktueller Finger,timestamp_ms,sensor_0,sensor_1,sensor_2,sensor_3
0,419816,-19.808147430419922,6.530710220336914,-16.713516235351562,2.733804225921631
0,420071,-5.482723712921143,-24.97295379638672,-23.129791259765625,44.01984786987305
0,420073,51.45995330810547,19.58450698852539,37.309879302978516,7.713535785675049
0,420075,-32.43568420410156,31.280902862548828,43.39221954345703,-22.064456939697266
0,420077,-69.24005889892578,-66.13558959960938,-85.19691467285156,-28.463666915893555
0,420079,46.958045959472656,0.4532627463340759,-19.365867614746094,19.770751953125
0,420081,28.658720016479492,34.29563903808594,93.1734619140625,2.135065793991089
0,421687,-6.163520812988281,-17.57805061340332,-28.84653663635254,17.028118133544922
0,421687,-7.890006065368652,-0.0986785963177681,-55.06950759887695,54.732208251953125
0,421687,-16.777523040771484,2.0367846488952637,34.78507614135742,-25.552181243896484
0,421687,17.27065086364746,10.072196960449219,7.887787818908691,-31.14188575744629
0,421689,-3.01774001121521,19.933992385864258,-17.449657440185547,-8.30018138885498
0,421690,-19.779359817504883,-25.137075424194336,-5.760402679443359,-5.0068039894104
0,421691,8.804003715515137,-35.06782913208008,-8.816008567810059,-14.820764541625977
0,421694,20.079288482666016,30.614709854125977,14.412522315979004,-55.10289001464844
0,421696,12.806459426879883,40.04033660888672,13.7473783493042,8.750935554504395
0,421698,-15.026244163513184,-9.67345905303955,9.145781517028809,72.87667083740234
0,421700,-3.2671432495117188,-25.526905059814453,31.85718536376953,-11.973028182983398
0,421702,16.981632232666016,-5.653209686279297,19.605344772338867,-68.99008178710938
0,421704,-21.199169158935547,20.747394561767578,-23.79595947265625,12.430363655090332
0,421706,-8.355481147766113,17.571130752563477,-28.28564453125,90.97445678710938
0,421708,22.363521575927734,-21.116106033325195,-3.9121904373168945,13.140565872192383
0,421711,-2.8196592330932617,-3.7776567935943604,-1.0058605670928955,-68.57759094238281
0,421732,-11.429224014282227,9.480426788330078,-19.418901443481445,3.306191921234131
0,421732,-0.05538639426231384,-18.885587692260742,-22.16849708557129,44.5086784362793
0,421733,-5.143787384033203,-3.06245493888855,4.265197277069092,-15.768261909484863
0,421733,-2.102389097213745,10.247154235839844,9.758152961730957,-37.480018615722656
0,421733,5.440112113952637,-2.5095839500427246,6.921178340911865,9.01363754272461
0,421733,-0.7665898203849792,-10.659010887145996,20.29266357421875,20.486431121826172
0,421733,-2.214599847793579,7.317478656768799,-4.255722522735596,-15.47059440612793
0,421733,10.14090633392334,9.712648391723633,-14.350817680358887,-19.247222900390625
0,421734,-3.4474759101867676,-20.795618057250977,19.225202560424805,13.262983322143555
0,421734,-3.233879327774048,15.107661247253418,25.978830337524414,14.126197814941406
0,421734,22.429702758789062,20.669973373413086,2.428828001022339,4.10573148727417
0,421735,1.275349497795105,-28.907245635986328,-4.309613227844238,21.38726806640625
0,421735,-20.205810546875,-5.430523872375488,-1.565291166305542,-6.4828033447265625
0,421738,3.0220515727996826,15.07270622253418,-11.245142936706543,-16.669233322143555
0,421740,10.161276817321777,1.624746322631836,4.0057830810546875,21.666439056396484
0,421742,-10.65074634552002,-13.052266120910645,8.364303588867188,8.584979057312012
0,421744,-4.5741071701049805,9.793334007263184,-13.723827362060547,-14.829977989196777
0,421746,-7.442366600036621,10.543094635009766,-20.78620719909668,-21.824634552001953
0,421748,-0.1987232267856598,-13.395332336425781,10.331029891967773,-12.71869945526123
0,421750,9.811403274536133,-1.5643104314804077,3.3929781913757324,-9.825713157653809
0,421752,0.9519827961921692,0.6262000203132629,-29.98410415649414,0.6734481453895569
0,421754,2.411776065826416,3.993922233581543,-5.037160873413086,47.11180114746094
0,421756,1.9606529474258423,-3.3197827339172363,4.12283992767334,26.06473731994629
0,421758,2.89554762840271,-1.7320513725280762,22.588457107543945,-44.65412902832031
0,421793,15.766345977783203,28.19784164428711,54.940460205078125,-32.285011291503906
0,421793,7.333283424377441,17.081859588623047,20.338117599487305,33.3138427734375
0,421793,-29.204944610595703,-19.90513038635254,-31.025964736938477,19.08708381652832
0,421794,-0.13498210906982422,6.69272518157959,-16.00018882751465,-17.337270736694336
0,421794,18.87697410583496,2.9628961086273193,-1.1776686906814575,4.453657627105713
0,421794,-15.274273872375488,-31.64484977722168,-10.882220268249512,-2.137622117996216
0,421794,-22.87525177001953,-19.656259536743164,-14.754018783569336,-3.037963628768921
0,421794,-10.685583114624023,-1.8623020648956299,-23.82225227355957,5.185702323913574
0,421795,4.826772212982178,34.058223724365234,-8.20687484741211,-4.354792594909668
0,421795,8.203644752502441,5.971993923187256,0.39392203092575073,-21.800012588500977
0,421795,1.4066030979156494,-52.5672607421875,-18.02153968811035,-36.6225700378418
0,421795,-3.3704559803009033,-18.329477310180664,-3.3102340698242188,31.882232666015625
0,421795,3.730889320373535,30.115453720092773,10.90803337097168,40.50121307373047
0,421795,15.786140441894531,15.423062324523926,1.5646874904632568,-19.69728660583496
0,421796,10.919052124023438,9.8259859085083,16.53702735900879,-5.8564453125
0,421796,4.708446979522705,17.9425106048584,23.05953598022461,8.284273147583008
0,421796,6.543064594268799,0.5207356214523315,12.249058723449707,1.5382879972457886
0,421797,-1.0610910654067993,17.43230628967285,32.5652961730957,-3.8030736446380615
0,421797,9.422947883605957,1.3441025018692017,22.230587005615234,13.558125495910645
0,421798,-13.774219512939453,-37.23808670043945,-32.381900787353516,15.718785285949707
0,421800,-44.47391128540039,-16.306734085083008,-26.613115310668945,-51.82924270629883
0,421802,-0.49909093976020813,-0.7478599548339844,1.666210651397705,-37.905006408691406
0,421804,6.631403923034668,4.539727687835693,-20.76324462890625,45.661983489990234
0,421806,4.4242095947265625,3.2062747478485107,-5.796204090118408,50.21466827392578
0,421808,29.046817779541016,4.3807220458984375,30.042572021484375,1.941075086593628
0,421810,-15.78820514678955,-7.482812881469727,-16.1868896484375,-36.95112609863281
0,421812,-17.582529067993164,-18.779922485351562,-13.471439361572266,-18.92899513244629
0,421814,19.422218322753906,30.124980926513672,14.96332836151123,4.9477033615112305
0,421816,7.090848922729492,27.505922317504883,2.393792152404785,11.828417778015137
0,421818,-1.9584674835205078,-28.341997146606445,2.1292150020599365,25.200469970703125
0,421820,-15.31360149383545,-19.60407066345215,12.402751922607422,-18.361072540283203
0,421822,13.358908653259277,5.516256332397461,10.773757934570312,-44.67022705078125
0,421869,11.928336143493652,13.134146690368652,-40.233673095703125,38.92953872680664
0,421870,-25.124574661254883,4.96257209777832,-22.39900779724121,58.981788635253906
0,421870,4.86478853225708,4.027995586395264,41.66656494140625,-35.809181213378906
0,421870,4.549860000610352,5.606147766113281,20.194656372070312,-33.33182907104492
0,421870,-13.59164810180664,-19.950082778930664,-20.4284725189209,22.472511291503906
0,421870,-9.258096694946289,-12.990034103393555,-8.280229568481445,5.009195804595947
0,421870,19.116836547851562,17.38529396057129,17.300344467163086,-8.142555236816406
0,421871,33.982669830322266,17.278671264648438,-6.448988437652588,-11.731891632080078
0,421871,-15.69373893737793,-1.3324027061462402,-20.649934768676758,2.199751853942871
0,421871,-13.110298156738281,-5.061851978302002,13.289859771728516,13.65152645111084
0,421871,13.727395057678223,14.653550148010254,24.030611038208008,-10.999433517456055
0,421871,1.336988925933838,16.51496124267578,0.537704586982727,-4.241792678833008
0,421872,-0.38097211718559265,-25.322988510131836,-17.669504165649414,1.027549386024475
0,421872,-13.402159690856934,-22.995147705078125,-8.40505599975586,-16.92548370361328
0,421872,-10.522884368896484,8.387529373168945,4.112401962280273,7.884566783905029
0,421872,4.360705852508545,8.098540306091309,2.869873523712158,20.783172607421875
0,421872,3.6534876823425293,2.7467048168182373,-10.273263931274414,-17.37600326538086
0,421872,10.552803993225098,-10.70166301727295,7.476233959197998,11.242583274841309
0,421873,-8.616238594055176,0.2812731862068176,14.08737850189209,19.788516998291016
0,421873,-10.878911018371582,20.012449264526367,-23.57464027404785,-27.53976821899414
0,421873,11.652329444885254,-12.282777786254883,-5.782648086547852,-2.750044107437134
0,421873,15.432469367980957,-27.480302810668945,9.384218215942383,-1.3267505168914795
0,421873,1.2341160774230957,5.028623580932617,0.6998699307441711,-7.881817817687988
0,421873,-25.411882400512695,1.807944893836975,12.441530227661133,20.723648071289062
0,421875,-11.392661094665527,5.557811737060547,-4.246110439300537,-7.973930358886719
0,421875,-2.382319211959839,6.823794841766357,-12.67888069152832,-30.956350326538086
0,421876,15.693463325500488,-7.041625499725342,1.2958353757858276,-1.3765010833740234
0,421877,18.40191650390625,-2.03193736076355,4.949009895324707,39.957115173339844
0,421880,-18.898767471313477,-5.878638744354248,18.524024963378906,10.51468276977539
0,421881,-1.8762469291687012,9.700093269348145,57.4310417175293,-29.65746307373047
0,421884,4.975297451019287,3.9852840900421143,16.986347198486328,19.936620712280273
0,421885,-6.592403411865234,-8.723478317260742,-89.34249877929688,2.127234935760498
0,421888,-1.3751887083053589,15.384848594665527,-75.27671813964844,-16.211097717285156
0,421890,-5.217910289764404,6.501126766204834,-0.41552937030792236,10.092143058776855
0,421892,11.173741340637207,1.4641438722610474,56.81820297241211,-3.7045843601226807
0,421894,16.339601516723633,14.321978569030762,12.640878677368164,5.2932915687561035
0,421896,-8.426841735839844,-15.8990478515625,-27.404804229736328,9.052165985107422
0,421898,6.913116455078125,-14.834924697875977,38.65505599975586,6.403214454650879
0,421900,-1.258475422859192,5.830677032470703,8.770800590515137,5.9536848068237305
0,421902,-22.857295989990234,-9.76724910736084,-12.464751243591309,-18.30459213256836
0,421905,21.123830795288086,-4.181708335876465,4.536265850067139,-6.40603494644165
0,421965,12.15835952758789,10.564470291137695,-3.683678388595581,22.3369140625
0,421965,-33.397281646728516,6.72966194152832,14.499105453491211,-16.305408477783203
0,421965,-3.875434398651123,-3.089991331100464,4.6789870262146,-18.869522094726562
0,421966,12.286993026733398,-14.368621826171875,-5.263391494750977,26.780271530151367
0,421966,0.7436676621437073,0.29180851578712463,3.3074724674224854,13.506449699401855
0,421966,14.36875057220459,18.894908905029297,-14.963386535644531,-30.48394012451172
0,421966,1.9973478317260742,-7.858748912811279,-17.718551635742188,-21.252912521362305
0,421966,-15.962072372436523,-16.407590866088867,-18.810903549194336,15.83410930633545
0,421966,-11.39134407043457,23.07770538330078,-14.602614402770996,11.45831298828125
0,421967,9.306127548217773,13.079178810119629,19.95119857788086,-13.529016494750977
0,421967,16.562362670898438,-15.210355758666992,25.716651916503906,-7.957952976226807
0,421967,-3.471884250640869,-5.30789852142334,13.472916603088379,25.86408233642578
0,421967,5.2238335609436035,2.0563926696777344,7.008958339691162,3.1379408836364746
0,421967,7.059199333190918,-5.3637800216674805,-3.420581102371216,-33.79994583129883
0,421967,-13.1494722366333,-0.7066637277603149,-3.2248313426971436,15.975666999816895
0,421968,-11.904667854309082,5.621960163116455,-1.1981253623962402,23.341541290283203
0,421968,-2.173295736312866,10.276666641235352,-12.348688125610352,-30.085119247436523
0,421968,4.40099573135376,16.798145294189453,-10.622322082519531,2.287590742111206
0,421968,-0.2942553162574768,-36.190120697021484,-2.124539613723755,27.580583572387695
0,421968,2.982120990753174,-22.014907836914062,11.781332969665527,-10.679115295410156
0,421969,10.615412712097168,30.036853790283203,13.006750106811523,-5.869717597961426
0,421969,-2.219163417816162,-5.301137447357178,2.4427266120910645,16.584333419799805
0,421969,-0.7339951395988464,-6.490136623382568,1.025442123413086,-22.71084976196289
0,421969,-8.290392875671387,10.860005378723145,-14.029448509216309,-11.173757553100586
0,421969,-11.055656433105469,12.075638771057129,-7.039526462554932,31.486074447631836
0,421969,9.639986038208008,-8.61330795288086,20.30278778076172,-6.045971393585205
0,421970,2.110260486602783,-17.469436645507812,6.475897312164307,-0.03139134868979454
0,421970,4.0003790855407715,29.90505027770996,-16.005081176757812,15.920342445373535
0,421970,4.5560784339904785,12.531659126281738,-3.8621981143951416,-8.894998550415039
0,421970,-7.637312889099121,-13.593070030212402,12.249683380126953,-14.23635482788086
0,421971,-9.938789367675781,-5.424104690551758,-12.468644142150879,-18.758848190307617
0,421971,1.8650190830230713,-16.639219284057617,-23.430191040039062,-12.678898811340332
0,421972,13.393802642822266,2.474611282348633,16.533763885498047,-2.6945879459381104
0,421972,-6.332857131958008,13.579985618591309,4.3395538330078125,13.622159957885742
0,421975,-15.65712833404541,1.2213966846466064,-16.435213088989258,35.251487731933594
0,421976,23.963899612426758,-12.677323341369629,7.296200275421143,28.461158752441406
0,421979,20.345693588256836,-4.205472469329834,5.469120502471924,-17.061174392700195
0,421980,-40.09795379638672,3.3358020782470703,-8.618587493896484,-43.4862060546875
0,421983,-4.530288219451904,4.950436115264893,18.684526443481445,-1.7873246669769287
0,421984,32.89519500732422,21.077808380126953,24.001094818115234,22.67275047302246
0,421987,-15.080073356628418,-8.108808517456055,-33.07221984863281,8.14757251739502
0,421988,-15.326920509338379,-25.956764221191406,-12.840596199035645,35.31181716918945
0,421991,25.844377517700195,6.680280685424805,26.83563804626465,1.018579363822937
0,421992,9.220799446105957,19.289396286010742,19.255849838256836,-68.4901123046875
0,421995,-27.22610092163086,1.6266553401947021,-16.69342613220215,-5.749758243560791
0,421996,-11.70150375366211,-17.440176010131836,-32.24014663696289,24.188106536865234
0,421999,9.183661460876465,-17.68311309814453,11.096355438232422,-12.506182670593262
0,422000,20.02463722229004,12.554558753967285,23.010602951049805,3.442060708999634
0,422072,-1.1900696754455566,32.898372650146484,0.9345741868019104,4.621791839599609
0,422073,-15.48898983001709,-8.930326461791992,-37.29866409301758,-15.47091007232666
0,422073,12.527698516845703,-27.852529525756836,-4.09572696685791,10.705883026123047
0,422073,-4.020430088043213,8.026397705078125,41.44881057739258,20.9323673248291
0,422073,-14.050275802612305,4.7850494384765625,5.386212348937988,-23.11703109741211
0,422073,10.3095064163208,-2.037696361541748,-20.915014266967773,1.344103455543518
0,422073,0.927844762802124,14.816690444946289,-7.557400226593018,23.273643493652344
0,422074,-4.299843788146973,-7.470577239990234,-9.977330207824707,-7.625729560852051
0,422074,6.362222671508789,-6.599372863769531,1.471890926361084,-2.1624069213867188
0,422074,-2.6457760334014893,10.607200622558594,16.517980575561523,-7.519854545593262
0,422074,-10.0706205368042,-7.642192363739014,-4.496689796447754,-2.4361820220947266
0,422074,4.90604305267334,1.879128098487854,2.3220791816711426,27.308311462402344
0,422074,19.148101806640625,5.168637752532959,3.867680311203003,11.301122665405273
0,422075,-4.541212558746338,-7.441761493682861,7.159730911254883,-21.823909759521484
0,422075,-14.641433715820312,-3.0531535148620605,21.89838218688965,-8.828598022460938
0,422075,14.320916175842285,-4.4039225578308105,-3.4972572326660156,18.508134841918945
0,422075,10.925233840942383,3.9291651248931885,-24.296646118164062,-7.487827301025391
0,422075,-15.222908020019531,8.454029083251953,1.130416750907898,-8.225872039794922
0,422075,-2.9844861030578613,0.10106371343135834,5.924386978149414,6.802684783935547
0,422076,19.949600219726562,-14.586580276489258,-20.080596923828125,-2.893270254135132
0,422076,-6.151556015014648,0.556634247303009,-6.2882513999938965,8.396623611450195
0,422076,-20.609560012817383,7.6485419273376465,7.585771083831787,-1.4438502788543701
0,422076,4.6148810386657715,-19.654176712036133,-0.4822453260421753,-0.2891903221607208
0,422076,2.158372640609741,8.347383499145508,-10.179862976074219,-6.103591442108154
0,422076,-12.35533332824707,3.518320083618164,-0.7854160070419312,-3.031599760055542
0,422077,1.6846164464950562,-1.1333718299865723,19.407621383666992,10.46540355682373
0,422077,-1.386693000793457,19.908994674682617,13.203730583190918,-10.563928604125977
0,422077,3.9504575729370117,-8.12486743927002,-1.4847736358642578,2.3114185333251953
0,422077,7.297804832458496,-17.3936824798584,-11.5765962600708,21.30883026123047
0,422077,-20.60806655883789,-8.113607406616211,-2.104952335357666,-6.419851303100586
0,422078,-6.790348529815674,13.768051147460938,16.514141082763672,-12.98266315460205
0,422078,19.55524444580078,20.37590217590332,2.449122428894043,0.32293596863746643
0,422078,22.871429443359375,-8.924999237060547,-21.05786895751953,-7.334341049194336
0,422078,-9.98106861114502,-10.314066886901855,8.981149673461914,6.542064666748047
0,422078,-8.11135196685791,4.75426721572876,20.205034255981445,-0.6952611207962036
0,422078,17.028881072998047,-7.117685794830322,-19.65453338623047,-16.809236526489258
0,422080,-0.3415011167526245,9.7589693069458,-3.6108524799346924,-19.239980697631836
0,422080,-9.879076957702637,2.3983616828918457,15.203926086425781,4.406142711639404
0,422080,-11.21652603149414,-12.453003883361816,-6.638822078704834,22.381380081176758
0,422080,-4.079711437225342,2.842982292175293,3.384200096130371,-13.474625587463379
0,422082,4.112096309661865,-2.908597469329834,1.7237002849578857,-11.405864715576172
0,422084,7.420966148376465,16.353918075561523,-20.881532669067383,-15.37299919128418
0,422086,7.731410503387451,23.917640686035156,-3.274256944656372,4.420553684234619
0,422088,-0.274361252784729,-3.6914665699005127,10.174928665161133,43.95954895019531
0,422090,-23.090394973754883,-31.572023391723633,-6.960441589355469,10.171433448791504
0,422092,4.580775737762451,23.37098503112793,14.8129243850708,-6.2240519523620605
0,422094,24.65830421447754,43.29301834106445,5.037554740905762,-5.470088481903076
0,422096,-12.201403617858887,-36.66431427001953,-42.14186477661133,-21.671049118041992
0,422098,3.1471762657165527,-37.877525329589844,3.1361091136932373,-8.160131454467773
0,422100,-1.8203752040863037,-9.502785682678223,24.844411849975586,23.336605072021484
0,422102,-18.190431594848633,0.719264030456543,-2.5290427207946777,16.248287200927734
0,422104,11.831873893737793,29.670366287231445,5.168114185333252,-5.179037570953369
0,422106,5.82864236831665,6.694365501403809,-10.085888862609863,1.7374244928359985
0,422108,-15.162848472595215,-36.6230583190918,-4.321352958679199,7.443080425262451
0,422110,4.936016082763672,3.0787441730499268,12.857267379760742,1.2822072505950928
0,422112,24.940929412841797,40.17499923706055,8.867347717285156,26.243206024169922
0,422114,-4.553915500640869,-12.026252746582031,-21.083599090576172,3.2955830097198486
0,422199,-21.488290786743164,-42.618011474609375,-2.900731325149536,-61.05885314941406
0,422199,12.496784210205078,6.1781744956970215,43.20256042480469,-9.522481918334961
0,422199,2.0480947494506836,27.658409118652344,-4.366868495941162,40.16557312011719
0,422199,-7.889939785003662,-0.2298724353313446,-15.992878913879395,-15.477136611938477
0,422199,15.824148178100586,-6.239792823791504,4.53268575668335,-29.139965057373047
0,422199,-8.301464080810547,4.215728282928467,2.780881643295288,8.443321228027344
0,422200,-13.965411186218262,-3.9689693450927734,-0.9475995302200317,15.571269035339355
0,422200,5.147411823272705,-10.400810241699219,-3.724931240081787,-7.305269718170166
0,422200,2.008105993270874,2.514885902404785,-1.0599151849746704,-8.845632553100586
0,422200,1.2168291807174683,22.671220779418945,-12.001017570495605,11.480056762695312
0,422200,-3.0901529788970947,-4.321119785308838,3.866908311843872,19.192052841186523
0,422201,-9.095922470092773,-12.752942085266113,14.914225578308105,21.267555236816406
0,422201,3.494596481323242,19.751028060913086,-7.998104572296143,-19.130966186523438
0,422201,8.156161308288574,0.7775328159332275,-15.516670227050781,-26.10664176940918
0,422201,3.3935091495513916,0.7142053842544556,-1.3204149007797241,15.299698829650879
0,422201,6.402094841003418,0.827556848526001,4.831241130828857,7.483589172363281
0,422201,4.201344013214111,-18.761606216430664,-2.860771894454956,-11.34196662902832
0,422202,-0.8828735947608948,-3.229851245880127,-1.0689719915390015,-2.6776297092437744
0,422202,-9.490827560424805,7.0143585205078125,-5.0612053871154785,-4.576537609100342
0,422202,-15.581110000610352,-2.417585611343384,-4.8912577629089355,-10.613631248474121
0,422202,-0.8283571600914001,7.31761360168457,2.991105079650879,15.595125198364258
0,422202,27.28251075744629,16.093372344970703,4.9954962730407715,1.3830747604370117
0,422202,-3.711912155151367,-4.404581069946289,2.9344072341918945,-5.018897533416748
0,422203,-17.508703231811523,-8.915240287780762,1.1270724534988403,29.868398666381836
0,422203,14.995022773742676,-2.7201337814331055,11.11875057220459,-13.502894401550293
0,422203,-4.4328999519348145,3.9363245964050293,-3.8333957195281982,-22.824260711669922
0,422203,4.957304954528809,7.306619167327881,-2.517575740814209,8.987789154052734
0,422203,10.860602378845215,3.0515589714050293,16.688053131103516,-2.5737032890319824
0,422204,-18.373624801635742,-25.110727310180664,-3.141577959060669,15.744444847106934
0,422204,-8.110747337341309,-14.427413940429688,1.2637132406234741,6.31549596786499
0,422204,12.830039024353027,31.221363067626953,5.7725443840026855,-16.172330856323242
0,422204,-6.790571689605713,-9.945267677307129,-23.49483871459961,5.8957719802856445
0,422204,-17.201601028442383,-15.99647045135498,-6.183351993560791,4.676583290100098
0,422204,5.876673698425293,24.757835388183594,23.69933319091797,-6.187134742736816
0,422205,10.180280685424805,5.856185436248779,0.6269547939300537,5.253065586090088
0,422205,9.282471656799316,-23.677875518798828,-34.71623229980469,-7.37022066116333
0,422205,-18.831737518310547,-18.567419052124023,-1.8306909799575806,-7.270650386810303
0,422205,-11.22970199584961,19.561979293823242,35.82637023925781,15.294452667236328
0,422205,35.40217971801758,22.2106990814209,-5.770735263824463,1.5477102994918823
0,422205,-0.6907839179039001,-12.874990463256836,-22.40976333618164,-7.507488250732422
0,422206,-17.205339431762695,3.4481897354125977,-16.470754623413086,-8.488669395446777
0,422206,9.6428861618042,12.904841423034668,-2.5064477920532227,-4.022672653198242
0,422207,6.642204284667969,-9.688420295715332,27.662065505981445,-6.225240230560303
0,422207,9.88690185546875,6.223331451416016,17.456336975097656,0.30441275238990784
0,422207,-7.639456748962402,4.011734485626221,8.869545936584473,24.577543258666992
0,422208,-15.475495338439941,-6.9716596603393555,-5.274438381195068,-16.13901138305664
0,422209,-0.8835071325302124,-18.175439834594727,-14.532816886901855,-23.79281997680664
0,422210,-3.3268120288848877,-12.069602966308594,-8.026516914367676,21.40408706665039
0,422211,-2.9612715244293213,8.859236717224121,-0.8833042979240417,13.377559661865234
0,422214,2.5222766399383545,-3.7351486682891846,4.848301887512207,-15.812417984008789
0,422215,11.976551055908203,7.421921253204346,10.070393562316895,-0.8868626952171326
0,422218,3.222125291824341,9.702980995178223,-4.339505672454834,13.150971412658691
0,422219,-14.249570846557617,-21.42218017578125,-7.764800548553467,4.699141979217529
0,422222,-16.45058822631836,-12.48529052734375,31.14779281616211,28.070972442626953
0,422223,0.5645515322685242,23.28717613220215,-26.698022842407227,0.04581837356090546
0,422226,25.862112045288086,23.287813186645508,-26.878620147705078,-28.079587936401367
0,422228,11.990178108215332,-13.918124198913574,30.817882537841797,-4.96796989440918
0,422230,-9.456466674804688,-9.375556945800781,-8.587846755981445,1.614793062210083
0,422232,3.3660125732421875,22.577529907226562,11.188879013061523,5.941481590270996
0,422234,2.8576948642730713,2.6000864505767822,7.18672513961792,-9.285274505615234
0,422236,-24.06044578552246,-17.35502815246582,-39.5709114074707,2.361058473587036
0,422238,12.842373847961426,-0.9294624924659729,32.31593322753906,-6.160364627838135
0,422240,29.98963737487793,-4.190222263336182,63.28904342651367,-52.96364212036133
0,422242,-30.901182174682617,0.2502431869506836,-51.69612121582031,3.9661033153533936
0,422338,-20.1816349029541,-5.351418495178223,-56.709327697753906,63.244606018066406
0,422338,17.243595123291016,-22.039026260375977,16.6853084564209,6.62460470199585
0,422339,0.8991342186927795,24.417095184326172,12.0132417678833,-23.271682739257812
0,422339,-17.745338439941406,14.297492027282715,17.49958610534668,20.599468231201172
0,422339,-3.9243345260620117,-18.786623001098633,15.076929092407227,7.684754848480225
0,422339,24.33553123474121,0.2434033304452896,-11.756895065307617,-28.189680099487305
0,422339,8.386335372924805,13.425228118896484,-18.363218307495117,2.178638219833374
0,422339,-24.32217025756836,5.858314037322998,3.025407552719116,32.6302375793457
0,422340,8.751523971557617,-12.236083030700684,17.701358795166016,3.2664389610290527
0,422340,29.649864196777344,11.285239219665527,-6.785669803619385,-32.7041130065918
0,422340,-6.7942585945129395,13.697147369384766,-8.164567947387695,-16.121877670288086
0,422340,-19.966293334960938,-18.49820327758789,15.154026985168457,11.391156196594238
0,422340,-5.236278057098389,-7.927333831787109,0.244310200214386,3.5764434337615967
0,422341,14.897710800170898,17.572345733642578,-0.8215006589889526,-0.4344100058078766
0,422341,15.32030963897705,-1.227312684059143,8.727391242980957,2.6411383152008057
0,422341,-16.20405387878418,-13.723123550415039,-9.720907211303711,-0.7282966375350952
0,422341,-19.68535804748535,8.50226879119873,-5.087131500244141,8.385503768920898
0,422341,17.768070220947266,12.788637161254883,9.152313232421875,9.098895072937012
0,422341,2.8244941234588623,-6.4819512367248535,-5.268345832824707,-1.0391443967819214
0,422342,-11.788642883300781,-23.632001876831055,-20.050167083740234,-16.670581817626953
0,422342,7.913985252380371,2.318176746368408,3.5420892238616943,0.322208046913147
0,422342,-11.632233619689941,17.304597854614258,16.11411476135254,9.030837059020996
0,422342,9.727603912353516,5.757988452911377,-6.912023067474365,-21.98938751220703
0,422342,7.111762523651123,0.4031848609447479,-10.431407928466797,10.010353088378906
0,422342,-13.20738410949707,-12.857189178466797,6.1950273513793945,16.294940948486328
0,422343,22.022890090942383,-5.672713756561279,-1.3758723735809326,-24.725852966308594
0,422343,-2.938265323638916,12.492979049682617,-19.99213981628418,6.067565441131592
0,422343,-27.4847354888916,4.647305965423584,7.438626289367676,11.654181480407715
0,422343,9.702484130859375,-11.276918411254883,14.24915885925293,2.0364949703216553
0,422343,23.729570388793945,1.3142386674880981,-14.760025978088379,-2.9006636142730713
0,422343,-12.823870658874512,1.857744574546814,1.6249834299087524,-21.521364212036133
0,422344,-15.25865650177002,-3.53537654876709,10.274137496948242,22.583492279052734
0,422344,3.079420328140259,-0.043997377157211304,-2.7971012592315674,7.165720462799072
0,422344,-9.381632804870605,-5.898768424987793,16.958648681640625,-20.1575927734375
0,422344,5.390243053436279,6.698410511016846,13.151354789733887,3.316805601119995
0,422344,7.829380989074707,-5.989251136779785,-28.77804183959961,-10.821148872375488
0,422344,-0.5293315649032593,-3.889927864074707,-7.596828937530518,8.144523620605469
0,422345,8.762096405029297,14.001941680908203,7.908499240875244,20.117332458496094
0,422345,-1.0699529647827148,-16.165842056274414,-13.047277450561523,-6.53580904006958
0,422345,-4.312121391296387,3.3719639778137207,16.16794776916504,-7.245242118835449
0,422345,2.0300841331481934,28.083120346069336,4.824785232543945,11.20781135559082
0,422345,-9.219217300415039,-6.687293529510498,-8.868644714355469,8.275726318359375
0,422345,-11.656805038452148,-23.695268630981445,15.7744140625,-17.98369789123535
0,422346,16.325868606567383,7.864487171173096,-6.26160192489624,-29.971830368041992
0,422346,12.478260040283203,15.360431671142578,-15.313713073730469,23.829559326171875
0,422346,-0.4098154306411743,-7.655757427215576,13.423216819763184,41.92169952392578
0,422346,9.452751159667969,-7.136841773986816,-1.6273488998413086,-21.118675231933594
0,422346,-17.614906311035156,-5.807810306549072,-15.34847640991211,3.618769407272339
0,422348,-10.972065925598145,4.716806411743164,16.689512252807617,3.351522445678711
0,422348,8.493045806884766,-6.136429786682129,-0.7906174063682556,-38.44224548339844
0,422348,-17.82851791381836,-19.16749382019043,-7.5576276779174805,19.292572021484375
0,422348,0.9226410984992981,13.608793258666992,23.363691329956055,18.6809139251709
0,422348,36.411617279052734,25.77116584777832,-6.4444708824157715,-28.27492332458496
0,422350,-0.5257656574249268,-13.43165397644043,-26.38497543334961,-10.98020076751709
0,422352,-25.12905502319336,-1.4579697847366333,28.301769256591797,2.048454523086548
0,422354,21.997873306274414,39.7786865234375,21.519845962524414,-5.00598669052124
0,422356,1.0411921739578247,-22.352380752563477,-42.5059814453125,8.715717315673828
0,422358,-28.79681396484375,-29.302820205688477,-10.64413070678711,9.569684028625488
0,422360,-0.8285406231880188,10.902181625366211,33.67603302001953,-12.880722045898438
0,422362,7.6428093910217285,-18.68645477294922,-0.18044646084308624,12.968768119812012
0,422364,16.397539138793945,17.215375900268555,-27.784643173217773,7.549522876739502
0,422366,12.467744827270508,31.246667861938477,-0.3722386360168457,-23.871097564697266
0,422368,-27.838621139526367,-19.5770320892334,21.689550399780273,48.235252380371094
0,422370,-17.683452606201172,6.846484661102295,20.04735565185547,20.195941925048828
0,422372,26.06210708618164,13.338486671447754,-11.33708667755127,-56.003597259521484
0,422374,-8.380139350891113,-38.08287811279297,-39.40085983276367,1.4733431339263916
0,422376,-11.81806468963623,-28.512252807617188,11.774880409240723,0.18250051140785217
0,422378,38.43253707885742,27.666473388671875,32.48833084106445,-8.443836212158203
0,422380,1.3500128984451294,27.788192749023438,-22.621864318847656,17.735013961791992
0,422382,-44.98389434814453,-11.231054306030273,4.627346038818359,2.9855728149414062
0,422385,8.645301818847656,-2.3611011505126953,14.628440856933594,-4.891750812530518
0,422490,19.125957489013672,-6.163259983062744,-34.61559295654297,6.87456750869751
0,422491,-4.898102760314941,-1.1923542022705078,-1.126164436340332,2.7420878410339355
0,422491,14.67333698272705,13.65837574005127,12.877095222473145,-21.460693359375
0,422491,-15.020594596862793,-9.578447341918945,-6.8449249267578125,-3.213637590408325
0,422491,-26.615947723388672,-6.3325886726379395,0.966416597366333,18.70686912536621
0,422491,15.994058609008789,24.598365783691406,16.99077033996582,-5.550984859466553
0,422491,23.949472427368164,2.4559028148651123,4.7403340339660645,-20.684621810913086
0,422492,-3.0433318614959717,-27.02997589111328,-13.247285842895508,-13.220515251159668
0,422492,-9.762190818786621,9.010007858276367,-10.2059326171875,4.863570690155029
0,422492,8.590544700622559,29.59406089782715,-1.5182950496673584,6.765606880187988
0,422492,-0.20399589836597443,-4.812753677368164,14.44258975982666,-21.219165802001953
0,422492,-4.969974994659424,-37.14955139160156,5.659828186035156,-6.286284446716309
0,422492,-3.301811456680298,-15.008819580078125,1.180004596710205,21.699716567993164
0,422493,-7.07658576965332,21.330963134765625,2.0051064491271973,9.34444522857666
0,422493,15.514646530151367,18.193052291870117,-3.7011048793792725,5.296616077423096
0,422493,-13.991558074951172,-11.502193450927734,3.366518020629883,14.471336364746094
0,422493,-32.78178787231445,-9.389176368713379,3.7238004207611084,20.426727294921875
0,422493,23.199817657470703,24.00899887084961,3.18281888961792,5.404758453369141
0,422493,25.474672317504883,-3.48370099067688,-1.7946951389312744,-11.092033386230469
0,422494,-7.782637119293213,-20.118366241455078,-13.102612495422363,6.857370376586914
0,422494,-14.874531745910645,10.27653980255127,-10.693838119506836,8.45656967163086
0,422494,5.540380477905273,5.765980243682861,15.356657981872559,-21.2037353515625
0,422494,22.499521255493164,-4.028736591339111,8.452949523925781,-10.11114501953125
0,422494,-11.79537582397461,-16.29620361328125,-26.411611557006836,23.72978401184082
0,422494,-21.20810317993164,6.446846961975098,6.179505348205566,4.552069664001465
0,422495,22.623781204223633,17.872758865356445,11.530678749084473,-15.643708229064941
0,422495,4.886441230773926,-22.158000946044922,-14.160491943359375,0.17790645360946655
0,422495,-15.593496322631836,-1.211032748222351,-1.4478946924209595,-0.8887437582015991
0,422495,11.999171257019043,18.973793029785156,-3.1544835567474365,-5.8894877433776855
0,422495,-5.811172962188721,-11.705548286437988,14.602460861206055,-4.912463188171387
0,422496,-7.476871013641357,-10.586132049560547,13.59650993347168,1.4184366464614868
0,422496,6.955959320068359,7.5787577629089355,-7.612133026123047,-2.438952684402466
0,422496,3.0224645137786865,5.882861614227295,2.875168561935425,-24.912351608276367
0,422496,-4.1445417404174805,-15.466753959655762,-1.2998719215393066,15.151289939880371
0,422496,0.21751318871974945,7.182112216949463,-16.094633102416992,22.46123504638672
0,422496,6.884978294372559,25.085927963256836,3.6174535751342773,-12.20166015625
0,422497,-8.781705856323242,-15.686589241027832,20.607053756713867,-5.3124823570251465
0,422497,0.8044363260269165,-5.343627452850342,-5.384468078613281,0.030255647376179695
0,422497,-1.5499770641326904,10.600628852844238,-10.330465316772461,22.64807891845703
0,422497,-15.189833641052246,-8.27488899230957,12.60930061340332,12.001067161560059
0,422497,11.495208740234375,-5.907719135284424,7.92966365814209,-19.899831771850586
0,422497,16.358808517456055,8.519874572753906,-17.9525203704834,-2.8990683555603027
0,422498,-13.120887756347656,1.1057841777801514,-10.780960083007812,14.409934997558594
0,422498,2.8459084033966064,-3.3336055278778076,18.219161987304688,-17.805824279785156
0,422498,0.44425463676452637,3.5662951469421387,11.924677848815918,2.7122039794921875
0,422498,-12.416596412658691,-8.822566986083984,-7.185614585876465,22.552778244018555
0,422498,19.356874465942383,1.8669556379318237,-27.564361572265625,-44.45772171020508
0,422498,-1.5977298021316528,4.32407283782959,-11.33106803894043,-11.941939353942871
0,422499,-33.506736755371094,-7.73726749420166,28.043813705444336,27.11028480529785
0,422499,12.33569049835205,-3.169606924057007,-8.658178329467773,-5.8515119552612305
0,422499,24.54704475402832,-5.073934078216553,-19.692636489868164,6.934492111206055
0,422499,-17.523008346557617,15.231114387512207,22.46489715576172,-2.1222403049468994
0,422499,1.3333097696304321,2.2638192176818848,-1.845247507095337,-24.357566833496094
0,422501,2.5704121589660645,-18.74382209777832,-10.488880157470703,9.702896118164062
0,422501,-9.051557540893555,23.294206619262695,6.061496734619141,23.61258316040039
0,422501,10.608545303344727,33.20623016357422,2.6883695125579834,-23.8950138092041
0,422501,5.049694538116455,-20.88580894470215,2.14573335647583,0.7746089696884155
0,422501,-2.598954200744629,-36.00518798828125,-4.79121732711792,34.380489349365234
0,422503,-3.7401771545410156,23.900754928588867,16.04498863220215,-30.161666870117188
0,422504,6.691704750061035,26.363927841186523,13.015564918518066,-17.87269401550293
0,422507,1.7011548280715942,-21.8552303314209,-23.487564086914062,55.222450256347656
0,422508,-6.734218120574951,-7.436545372009277,-12.424647331237793,-1.3694316148757935
0,422511,15.317718505859375,19.2500057220459,24.32213592529297,-44.13454055786133
0,422512,1.4537689685821533,-1.226946234703064,9.914700508117676,9.209747314453125
0,422515,-15.702741622924805,-6.635507106781006,-25.88492202758789,7.019506931304932
0,422516,4.985012531280518,-0.6023200750350952,2.9477906227111816,0.7606814503669739
0,422517,2.6112263202667236,-34.04462432861328,7.590296268463135,11.652420043945312
0,422520,-0.20529833436012268,-8.155001640319824,-26.833852767944336,-2.2317168712615967
0,422521,13.13592529296875,40.96799087524414,21.437772750854492,-23.795677185058594
0,422524,5.667628765106201,6.6729416847229,40.39708709716797,4.451609134674072
0,422525,-26.651060104370117,-22.428802490234375,-25.816184997558594,23.63739013671875
0,422528,-24.310789108276367,6.005984306335449,-27.420108795166016,-16.099830627441406
0,422529,11.915911674499512,3.183117389678955,14.534276008605957,14.613715171813965
0,422532,12.694840431213379,-18.76946258544922,3.906620740890503,10.581633567810059
0,422533,2.7827608585357666,13.427864074707031,-16.419471740722656,-12.983810424804688
0,422536,-20.834238052368164,0.3136870265007019,-13.716594696044922,0.9041250944137573
0,422537,-10.639394760131836,-33.90103530883789,16.96660041809082,-43.155033111572266
0,422540,21.41465950012207,13.075926780700684,38.32618713378906,5.250649929046631
0,422541,19.677677154541016,40.075801849365234,-2.480231761932373,62.96426773071289
0,422659,0.18549397587776184,-21.17212677001953,-22.186298370361328,-13.360340118408203
0,422659,-12.069546699523926,-25.224748611450195,-6.407756805419922,-40.69362258911133
0,422660,6.64711332321167,25.963787078857422,2.382606029510498,6.463599681854248
0,422660,0.5023403167724609,11.987873077392578,6.118414402008057,20.687225341796875
0,422660,-14.213112831115723,-17.3785343170166,-7.176884651184082,2.9703707695007324
0,422660,-14.578160285949707,-5.083738327026367,9.14111614227295,-10.399324417114258
0,422660,18.744468688964844,26.04871940612793,16.295310974121094,-10.574503898620605
0,422661,24.624866485595703,6.655857563018799,-16.871341705322266,-8.416589736938477
0,422661,-13.548733711242676,-21.211423873901367,-11.788894653320312,-3.6666107177734375
0,422661,-23.082721710205078,-8.94149398803711,5.839382648468018,6.897216796875
0,422661,8.547419548034668,18.003170013427734,-0.9245840311050415,2.8512847423553467
0,422661,29.874319076538086,-2.334745407104492,4.586259841918945,1.6114561557769775
0,422661,-14.630929946899414,-19.83057975769043,-1.5169199705123901,12.543312072753906
0,422661,-15.500452995300293,5.337883472442627,-15.398133277893066,7.362789154052734
0,422662,10.891018867492676,7.5427751541137695,5.404582500457764,13.690690040588379
0,422662,-2.0838096141815186,21.106481552124023,11.624664306640625,-10.595742225646973
0,422662,0.17851698398590088,-6.636688232421875,-3.5524885654449463,-21.36370277404785
0,422662,-3.771002769470215,-21.85958480834961,-9.751553535461426,28.34718894958496
0,422662,-9.572426795959473,22.127891540527344,1.2007136344909668,24.604860305786133
0,422663,11.01038646697998,10.295162200927734,5.91899299621582,-13.15070629119873
0,422663,12.152178764343262,-20.442392349243164,-11.307357788085938,-23.411279678344727
0,422663,-5.989328861236572,-14.804677963256836,2.3692264556884766,-13.955472946166992
0,422663,-7.6646952629089355,13.265960693359375,9.794083595275879,13.526667594909668
0,422663,-2.9469285011291504,-6.157585620880127,-19.000049591064453,15.644577026367188
0,422663,1.8133313655853271,-16.6695499420166,-1.4644745588302612,-13.556365966796875
0,422664,10.437938690185547,30.332120895385742,19.266530990600586,2.835057258605957
0,422664,8.756735801696777,-1.511393666267395,-4.43500280380249,10.460240364074707
0,422664,-15.849339485168457,-16.487136840820312,-8.01062297821045,-22.638965606689453
0,422664,-3.9249675273895264,23.650278091430664,2.186934232711792,-1.1167168617248535
0,422664,14.264350891113281,-4.586947917938232,7.02161979675293,13.532987594604492
0,422665,-13.365745544433594,-16.473291397094727,-2.019434928894043,-16.64980697631836
0,422665,-9.217793464660645,3.647073745727539,7.968504428863525,-6.4212822914123535
0,422665,6.173727512359619,2.469193458557129,7.17098331451416,5.594958305358887
0,422665,-1.734693169593811,6.266059398651123,-18.398948669433594,-8.253311157226562
0,422665,11.830144882202148,-3.795590400695801,8.297760009765625,-7.36920690536499
0,422665,15.57239818572998,-18.120708465576172,14.533254623413086,-3.671003580093384
0,422666,-21.210079193115234,8.924468040466309,0.973243772983551,18.269758224487305
0,422666,-6.708457946777344,11.886481285095215,-4.949923992156982,12.481598854064941
0,422666,19.78577995300293,-14.990742683410645,-11.404196739196777,-11.258210182189941
0,422666,-6.998697280883789,2.928196430206299,-1.6032357215881348,13.474325180053711
0,422666,-4.220350742340088,13.426332473754883,-10.482336044311523,-9.106327056884766
0,422666,-9.485218048095703,-14.793801307678223,0.37825873494148254,-14.122605323791504
0,422667,-13.740267753601074,-13.071192741394043,15.77485466003418,30.62466049194336
0,422667,25.11613655090332,1.9430898427963257,-2.4118096828460693,1.675731897354126
0,422667,4.792873859405518,6.353474140167236,-10.016913414001465,-22.07452392578125
0,422667,-32.91899871826172,17.24118995666504,14.331809997558594,10.888982772827148
0,422667,5.661037921905518,-6.473532676696777,17.157426834106445,14.66103458404541
0,422667,19.07878875732422,-13.388338088989258,-12.18879508972168,2.062978744506836
0,422668,-15.574987411499023,13.547286987304688,-19.90199089050293,-3.293168067932129
0,422668,2.866197109222412,12.6282377243042,-0.5585448145866394,-10.725642204284668
0,422668,12.020829200744629,-14.517121315002441,9.67825984954834,-6.781006813049316
0,422668,-2.0237231254577637,-2.5809171199798584,4.03364372253418,3.573209762573242
0,422668,9.907854080200195,17.82073211669922,16.337684631347656,18.072206497192383
0,422668,0.745853841304779,-6.395515441894531,0.028851738199591637,-19.391721725463867
0,422669,-0.08543089032173157,11.27263069152832,-25.52661895751953,-8.014236450195312
0,422669,3.949761152267456,12.775936126708984,22.199609756469727,32.55105209350586
0,422669,5.181185245513916,-22.860788345336914,24.386499404907227,-45.10721969604492
0,422669,-0.34646809101104736,-1.488688588142395,-25.983789443969727,-19.813684463500977
0,422669,-23.984922409057617,12.14936351776123,-8.708868026733398,67.68638610839844
0,422671,-6.220806121826172,-20.08679962158203,0.18595123291015625,12.899548530578613
0,422671,14.474448204040527,-2.855367422103882,-16.8269100189209,-43.1654052734375
0,422671,3.660431146621704,5.272014141082764,-4.506740570068359,-23.28868293762207
0,422671,-14.780679702758789,-15.088057518005371,1.551838994026184,-1.8184362649917603
0,422671,-6.582756996154785,-0.4359646141529083,-3.492213487625122,6.095848083496094
0,422673,41.89680099487305,27.05058479309082,12.475431442260742,-19.769699096679688
0,422674,18.282447814941406,11.727551460266113,-1.7023605108261108,-33.5900764465332
0,422675,-49.690914154052734,-45.481895446777344,-36.106414794921875,31.326276779174805
0,422678,-7.225074768066406,-15.985247611999512,11.6605863571167,44.5351676940918
0,422679,23.5842342376709,26.53770637512207,37.23321533203125,-15.28653335571289
0,422682,-9.513809204101562,36.381309509277344,24.9421329498291,-19.848264694213867
0,422683,4.484179496765137,5.5155558586120605,9.421286582946777,37.639217376708984
0,422686,1.9771192073822021,-30.50908660888672,-35.135929107666016,16.45584487915039
0,422687,-1.6643837690353394,7.814819812774658,-12.939492225646973,-32.19878387451172
0,422690,-5.648714065551758,8.418440818786621,18.93754005432129,35.935638427734375
0,422691,-9.661850929260254,-16.804426193237305,3.8959994316101074,58.66508483886719
0,422694,2.4477055072784424,-5.027985572814941,-14.755480766296387,-46.87785339355469
0,422695,-5.4559431076049805,1.3740153312683105,-13.772567749023438,-97.38386535644531
0,422698,-1.2782659530639648,-31.28582763671875,-17.734312057495117,-7.546778202056885
0,422699,3.4708900451660156,-5.692739963531494,12.417590141296387,63.43463134765625
0,422702,19.81846046447754,73.10185241699219,57.46413803100586,19.88566017150879
0,422703,8.751309394836426,11.044181823730469,-15.35499095916748,-3.417910099029541
0,422706,-22.32269859313965,-68.52050018310547,-46.94940185546875,-2.065760374069214
0,422707,6.123795986175537,0.8893392086029053,29.343955993652344,-31.588685989379883
0,422710,-3.6629650592803955,42.16353988647461,5.052032470703125,-10.822734832763672
0,422711,-16.700002670288086,4.672702789306641,-11.386663436889648,43.113582611083984
0,422714,22.205297470092773,-25.09048843383789,13.613229751586914,24.468645095825195
0,422844,7.350717544555664,10.299346923828125,-15.201955795288086,-35.53990936279297
0,422844,-1.9002010822296143,21.961376190185547,5.613940238952637,-27.817758560180664
0,422844,-2.2230279445648193,-27.997238159179688,8.655860900878906,17.523447036743164
0,422844,-6.676307201385498,9.918846130371094,-15.990177154541016,6.599343299865723
0,422844,2.680069923400879,19.855436325073242,1.0161789655685425,-20.45945167541504
0,422844,-2.8008899688720703,-31.45256805419922,16.11383056640625,-15.470643043518066
0,422845,11.62132453918457,-5.236819744110107,-1.402113676071167,-5.415369510650635
0,422845,13.249846458435059,9.087890625,-17.239429473876953,6.59763765335083
0,422845,-8.41634464263916,0.3014780879020691,11.101513862609863,23.505382537841797
0,422845,4.084997653961182,16.321746826171875,13.60901927947998,17.873159408569336
0,422845,6.1449875831604,-13.01371955871582,-17.212594985961914,-0.8292428255081177
0,422845,-22.98921012878418,-12.301626205444336,-5.082996368408203,18.57612419128418
0,422846,-10.87293815612793,21.25523567199707,3.793034315109253,9.984596252441406
0,422846,5.876217365264893,-25.18189239501953,-14.20520305633545,-16.214916229248047
0,422846,-0.7157085537910461,-21.47113037109375,-4.418801307678223,11.92281723022461
0,422846,-3.001897096633911,24.998390197753906,1.6259493827819824,15.808716773986816
0,422846,-1.0334954261779785,-3.1879422664642334,9.334567070007324,-11.017038345336914
0,422846,-5.568994522094727,-13.099353790283203,9.104860305786133,-9.573576927185059
0,422847,-9.933527946472168,-8.76941204071045,-13.297849655151367,13.162111282348633
0,422847,4.395956516265869,15.072392463684082,-2.0785417556762695,-1.4100896120071411
0,422847,2.043530225753784,18.56972885131836,16.37324333190918,-6.609099864959717
0,422847,1.8246597051620483,-12.72171688079834,-0.6698402166366577,3.835447311401367
0,422847,14.777579307556152,3.926023483276367,-10.750740051269531,-13.31550407409668
0,422848,1.3501960039138794,-2.6968541145324707,12.659976959228516,-1.8847439289093018
0,422848,-15.857368469238281,2.2931506633758545,1.4130992889404297,2.900975227355957
0,422848,9.011131286621094,16.85663604736328,-7.772090435028076,-10.865567207336426
0,422848,18.910974502563477,1.8711979389190674,0.8576694130897522,1.2095587253570557
0,422848,-4.702508449554443,8.636421203613281,-1.1505686044692993,-0.24271729588508606
0,422848,-6.434670925140381,-4.077729225158691,13.95279598236084,-16.132423400878906
0,422849,2.1749637126922607,-6.3028178215026855,-8.279422760009766,5.872931957244873
0,422849,-3.1613500118255615,-1.6863946914672852,-25.786264419555664,6.141635417938232
0,422849,-15.173911094665527,-33.32896041870117,6.131872177124023,-8.347740173339844
0,422849,13.821276664733887,-0.16904811561107635,11.323790550231934,-2.834056854248047
0,422849,12.693172454833984,38.6203498840332,5.257165431976318,-19.722354888916016
0,422849,-6.866877555847168,1.5782630443572998,-8.42908000946045,-17.248567581176758
0,422850,6.201797962188721,-15.156411170959473,-19.76810646057129,17.911046981811523
0,422850,-0.19027180969715118,-19.2459659576416,32.329063415527344,20.495651245117188
0,422850,-13.246169090270996,1.4965124130249023,24.6453800201416,1.3719524145126343
0,422850,-11.073594093322754,28.731170654296875,-13.89967155456543,-0.9765777587890625
0,422850,16.70100212097168,0.3151738941669464,9.514314651489258,-10.969000816345215
0,422850,10.723134994506836,-12.65773868560791,-7.684051036834717,0.47949695587158203
0,422851,-12.557351112365723,-3.6910805702209473,-20.086353302001953,17.483455657958984
0,422851,-0.28975045680999756,20.481807708740234,9.761598587036133,-20.941904067993164
0,422851,5.748816013336182,9.648183822631836,11.444294929504395,-9.572127342224121
0,422851,-16.738332748413086,-18.461278915405273,-3.9578354358673096,26.64449691772461
0,422851,-12.539460182189941,5.060561180114746,-0.5431686639785767,-1.8933742046356201
0,422851,24.19884490966797,-4.7394304275512695,-2.7350211143493652,-2.8789007663726807
0,422852,-3.158985137939453,-5.817108154296875,-14.646279335021973,0.375100314617157
0,422852,-17.951387405395508,12.774324417114258,-3.2256033420562744,9.587825775146484
0,422852,16.69902992248535,5.465556621551514,12.366792678833008,17.0068302154541
0,422852,5.914993762969971,2.4569478034973145,-4.242991924285889,-30.57855224609375
0,422852,-3.009394884109497,-27.759815216064453,-12.277925491333008,-2.256838798522949
0,422852,-6.055444717407227,-14.912626266479492,7.842039108276367,30.3348331451416
0,422853,1.5750657320022583,19.542564392089844,2.943052291870117,-11.063140869140625
0,422853,14.080185890197754,3.332345962524414,-7.21524715423584,-19.90518569946289
0,422853,-9.956597328186035,-4.134171009063721,6.945518493652344,9.181992530822754
0,422853,-16.02133560180664,-15.38598346710205,-4.909579753875732,13.397701263427734
0,422853,-0.9189621210098267,9.576837539672852,-10.215689659118652,-26.677146911621094
0,422854,2.147779703140259,16.631397247314453,12.554581642150879,1.3193628787994385
0,422854,4.272395133972168,-24.629837036132812,-2.077564239501953,26.52184295654297
0,422854,8.87753963470459,-4.222480773925781,-10.749412536621094,-12.772509574890137
0,422854,6.365029335021973,19.887855529785156,14.613985061645508,-10.968194007873535
0,422854,5.2528181076049805,-5.666638374328613,8.239391326904297,5.4767327308654785
0,422854,-2.8860909938812256,-12.266242027282715,-9.878524780273438,12.856843948364258
0,422854,-7.7386674880981445,6.056087017059326,7.720484256744385,3.066772699356079
0,422856,2.441835880279541,1.840478539466858,-0.8117121458053589,7.592360496520996
0,422856,0.978137195110321,9.192483901977539,-2.8627212047576904,13.475992202758789
0,422856,-3.9316017627716064,8.503460884094238,9.390881538391113,-31.67831802368164
0,422856,2.509253978729248,-19.97834587097168,-17.607004165649414,-3.1971232891082764
0,422856,-7.577515602111816,-8.448091506958008,8.613633155822754,38.55022048950195
0,422857,-11.774737358093262,25.455162048339844,18.659992218017578,-12.768583297729492
0,422858,13.393037796020508,2.9113879203796387,-20.681489944458008,-18.34035301208496
0,422859,-2.3292510509490967,-20.990495681762695,12.121212005615234,-14.283547401428223
0,422862,-11.088603973388672,19.81359100341797,15.988568305969238,-34.60125732421875
0,422863,17.702106475830078,7.620234489440918,-21.225440979003906,7.118487358093262
0,422866,8.164278030395508,-25.707429885864258,-23.037261962890625,39.13923645019531
0,422867,-14.094679832458496,11.664560317993164,-13.675392150878906,5.89758825302124
0,422870,-4.037116527557373,-3.976581573486328,13.852185249328613,-6.507463455200195
0,422871,13.415523529052734,-18.78496742248535,1.4181580543518066,1.0726794004440308
0,422874,19.502660751342773,43.69588851928711,11.015048027038574,-5.74869441986084
0,422875,3.946719169616699,3.542250871658325,4.418939590454102,1.3541877269744873
0,422878,-17.47361946105957,-37.21831130981445,-11.622239112854004,9.714247703552246
0,422879,-4.20106840133667,15.39611530303955,31.23862075805664,-1.3151094913482666
0,422882,-12.1580228805542,6.432915210723877,4.784003257751465,-10.191709518432617
0,422884,-3.0601494312286377,-10.167218208312988,-20.06488800048828,-0.47949859499931335
0,423010,18.053163528442383,5.300167560577393,-13.924643516540527,1.904464602470398
0,423011,-0.5170567631721497,4.677537441253662,-10.041842460632324,17.80270767211914
0,423011,-11.875994682312012,-4.731462478637695,3.2146658897399902,-0.34158599376678467
0,423011,-16.641069412231445,-2.1648285388946533,23.557331085205078,-24.90626335144043
0,423011,2.3285093307495117,-2.103527545928955,15.784412384033203,14.836767196655273
0,423011,8.8023042678833,-1.8747246265411377,-18.299335479736328,26.929479598999023
0,423011,5.352989196777344,6.385307312011719,-21.442920684814453,-5.603428840637207
0,423012,3.0796689987182617,-5.352190017700195,-0.21881362795829773,-8.576035499572754
0,423012,3.3250675201416016,5.7671732902526855,23.97715950012207,6.066279888153076
0,423012,7.7768683433532715,1.144843578338623,0.514596164226532,-9.150795936584473
0,423012,-10.815119743347168,-16.01891326904297,-10.78555965423584,-9.440180778503418
0,423012,6.648880481719971,18.809297561645508,12.313246726989746,2.733816623687744
0,423013,19.565351486206055,6.177731990814209,0.956451952457428,-22.547916412353516
0,423013,-17.27683448791504,-11.654507637023926,2.336376428604126,-21.788379669189453
0,423013,-21.66395378112793,0.45364663004875183,-3.712829828262329,5.240635871887207
0,423013,-2.023836851119995,-10.78360652923584,-23.441301345825195,12.980525970458984
0,423013,-2.96492075920105,7.3986616134643555,-7.60558557510376,10.918473243713379
0,423013,9.823660850524902,14.549339294433594,19.90134048461914,2.676877975463867
0,423014,8.026305198669434,-10.46346664428711,18.450048446655273,1.7490602731704712
0,423014,-8.379027366638184,-7.799962043762207,-10.345455169677734,3.4877490997314453
0,423014,4.992481708526611,2.3714730739593506,-6.278156757354736,-3.9486405849456787
0,423014,11.061145782470703,-1.4500329494476318,12.073808670043945,-14.406606674194336
0,423014,-1.2578781843185425,-9.692178726196289,-6.025167942047119,8.774728775024414
0,423014,-12.854440689086914,-4.786221981048584,-8.133942604064941,25.141559600830078
0,423015,-2.428832769393921,9.355581283569336,9.755230903625488,-6.438451290130615
0,423015,14.782361030578613,5.308372974395752,-7.544213771820068,-13.469624519348145
0,423015,0.1811894178390503,-4.847455024719238,-16.551395416259766,14.802913665771484
0,423015,-2.392523765563965,-0.6839815974235535,8.475019454956055,14.456571578979492
0,423015,12.281649589538574,6.699056148529053,5.779009819030762,-10.447344779968262
0,423015,-13.177993774414062,4.764073371887207,-15.208622932434082,-18.93302345275879
0,423016,-23.148778915405273,-2.910291910171509,4.06884241104126,4.194286823272705
0,423016,15.84132194519043,-11.075263977050781,11.74255084991455,10.788162231445312
0,423016,2.2227072715759277,5.966879844665527,0.21044714748859406,-11.194794654846191
0,423016,-4.862387180328369,7.709847450256348,3.6608669757843018,-6.088840484619141
0,423016,26.50083351135254,1.8336676359176636,-0.11889111250638962,-5.126682281494141
0,423016,-2.083280324935913,5.458161354064941,-1.1032060384750366,0.555634081363678
0,423017,-18.834280014038086,-13.730537414550781,9.142577171325684,6.716022491455078
0,423017,5.936271667480469,-3.444159507751465,-0.8000400066375732,-15.681801795959473
0,423017,7.089687347412109,-8.33072566986084,-3.4376869201660156,12.495192527770996
0,423017,-11.281291007995605,-11.66637897491455,2.40380859375,20.905498504638672
0,423017,5.352777481079102,39.416866302490234,-5.867823123931885,-19.9339656829834
0,423018,5.059290409088135,-0.8448662161827087,2.99440598487854,-5.803706169128418
0,423018,-21.37840461730957,-34.43135070800781,0.3149321377277374,21.108110427856445
0,423018,-6.357458591461182,12.961925506591797,5.229658126831055,22.15413475036621
0,423018,6.365792751312256,20.80916404724121,1.235480785369873,-4.262966632843018
0,423018,11.811416625976562,17.794157028198242,-10.319313049316406,-36.33998107910156
0,423018,13.855183601379395,-11.37021255493164,8.853135108947754,-5.849104404449463
0,423019,-10.817593574523926,-22.172122955322266,1.24965500831604,28.39313316345215
0,423019,-20.25110626220703,6.567738056182861,-4.521836757659912,-0.10155611485242844
0,423019,11.481061935424805,3.7315971851348877,-7.79128885269165,-16.08437156677246
0,423019,1.5514694452285767,-9.360306739807129,1.7109020948410034,-2.615980863571167
0,423019,0.3924531936645508,-1.5752226114273071,21.67786407470703,-4.415929317474365
0,423019,32.33481979370117,5.0080718994140625,-12.348288536071777,-14.658964157104492
0,423020,-14.990738868713379,0.8655321002006531,-18.53047752380371,-1.109861135482788
0,423020,-24.13581085205078,-19.2429141998291,5.130037784576416,16.72728729248047
0,423020,15.930148124694824,-8.552213668823242,5.1720147132873535,15.47269344329834
0,423020,-15.12421989440918,27.22003173828125,0.7429367899894714,5.503003120422363
0,423020,-7.501275062561035,15.639832496643066,-6.638782501220703,-25.427827835083008
0,423020,22.963123321533203,-15.380216598510742,-11.559321403503418,-11.82706069946289
0,423021,-18.886995315551758,-8.647923469543457,1.8979829549789429,37.427032470703125
0,423021,-6.083817005157471,17.81854820251465,15.864630699157715,15.595026016235352
0,423021,27.691667556762695,-9.365376472473145,-0.8738871216773987,-24.576871871948242
0,423021,-12.837082862854004,-20.87813949584961,1.5727509260177612,4.824005126953125
0,423022,-14.141453742980957,31.172910690307617,9.533197402954102,35.98213195800781
0,423022,19.13329315185547,16.388158798217773,-3.4996113777160645,-7.858212947845459
0,423023,14.040042877197266,-33.509742736816406,-17.012475967407227,-28.880239486694336
0,423023,3.6961348056793213,6.818937301635742,-8.73493480682373,-0.530397355556488
0,423023,-8.83899211883545,21.918548583984375,8.678457260131836,3.8047287464141846
0,423023,-22.993877410888672,-14.152653694152832,8.637502670288086,11.431575775146484
0,423024,-1.6493128538131714,-2.451076030731201,2.8473453521728516,3.183288812637329
0,423026,12.590808868408203,19.004369735717773,1.564963459968567,-8.354212760925293
0,423028,12.510197639465332,-0.013451127335429192,5.324202060699463,5.755581378936768
0,423030,14.12018871307373,-23.839143753051758,-17.744321823120117,-4.944512844085693
0,423033,-18.64468002319336,20.09259033203125,-9.253082275390625,-23.77349281311035
0,423034,-28.569482803344727,-6.937112808227539,-17.689510345458984,-14.34053897857666
0,423037,9.900498390197754,-31.87396240234375,21.34494972229004,2.641688585281372
0,423038,9.975159645080566,19.514427185058594,64.69776916503906,7.183087348937988
0,423041,-13.816433906555176,-19.271371841430664,-19.69680404663086,15.409870147705078
0,423042,15.57194709777832,-14.732863426208496,-34.62479782104492,5.458525657653809
0,423045,-0.6597786545753479,14.714045524597168,-18.824365615844727,-11.819957733154297
0,423046,-16.65119171142578,10.189882278442383,6.529736518859863,-16.892894744873047
0,423047,14.58456802368164,0.044428933411836624,25.149715423583984,9.830269813537598
0,423050,17.196250915527344,-3.2638275623321533,-13.60440731048584,47.60453796386719
0,423051,11.308618545532227,16.187881469726562,-2.9060091972351074,4.931661605834961
0,423054,-24.17936897277832,-8.195082664489746,5.3783087730407715,-53.740386962890625
0,423055,-16.657976150512695,-5.554519176483154,-10.581408500671387,-22.740341186523438
0,423058,9.200580596923828,-3.553851366043091,-1.383463978767395,39.45392608642578
0,423059,11.352666854858398,-5.935111999511719,9.323832511901855,11.88978099822998
0,423062,10.576749801635742,22.00406265258789,5.479166507720947,-45.21737289428711
0,423063,-3.8215839862823486,11.019889831542969,-3.22279953956604,-24.37145233154297
0,423066,-16.10249900817871,-9.869500160217285,-13.857961654663086,25.988452911376953
0,423067,-6.153377532958984,6.319340229034424,14.973980903625488,51.58716583251953
0,423206,15.093403816223145,12.706780433654785,19.838619232177734,2.663816452026367
0,423206,-11.210610389709473,-18.276107788085938,-25.18900489807129,-34.549537658691406
0,423206,-2.41155743598938,-12.708488464355469,-13.131757736206055,9.260810852050781
0,423206,20.426250457763672,12.113809585571289,10.888646125793457,21.786788940429688
0,423207,-3.6571173667907715,7.087907314300537,14.981463432312012,19.809354782104492
0,423207,-7.115697860717773,-2.2448084354400635,-0.34742575883865356,-14.780978202819824
0,423207,4.385342597961426,8.410264015197754,-11.428725242614746,-37.60200500488281
0,423207,-8.827600479125977,7.425683975219727,15.375286102294922,16.594772338867188
0,423207,0.5229740142822266,-24.00802993774414,2.293071746826172,4.02404260635376
0,423207,18.264007568359375,-26.115203857421875,-9.564360618591309,-30.04085922241211
0,423208,-12.042900085449219,11.479659080505371,11.512682914733887,9.641510963439941
0,423208,-11.36495590209961,21.78221321105957,7.529269695281982,-5.857516765594482
0,423208,14.599944114685059,-6.003553867340088,-9.403321266174316,-11.571784973144531
0,423208,5.644725322723389,-5.176816940307617,-0.3925352394580841,29.382408142089844
0,423208,-16.458179473876953,8.232280731201172,10.01637077331543,-12.158821105957031
0,423209,-8.436890602111816,-7.4566240310668945,-14.645665168762207,-12.417777061462402
0,423209,5.321218013763428,-20.413658142089844,-2.439232349395752,37.23828125
0,423209,6.3598833084106445,-0.3064258098602295,4.802860736846924,8.395756721496582
0,423209,11.01331615447998,31.77796745300293,-17.1004638671875,-27.39932632446289
0,423209,2.45236873626709,-0.24611090123653412,7.132736682891846,-9.068416595458984
0,423209,-17.465599060058594,-42.97355651855469,6.274986743927002,17.477256774902344
0,423210,-18.106746673583984,2.6396915912628174,-10.151418685913086,8.626336097717285
0,423210,1.5073381662368774,32.57731628417969,17.13985824584961,-14.477978706359863
0,423210,24.265865325927734,16.35153579711914,3.1751699447631836,-7.851089000701904
0,423210,16.491945266723633,-7.98807954788208,-32.77522277832031,0.6715860366821289
0,423210,-24.92701530456543,-21.61153221130371,-10.799544334411621,0.05102716013789177
0,423210,-10.56717586517334,16.078351974487305,24.378427505493164,-1.0038490295410156
0,423211,13.506834030151367,17.004003524780273,10.538891792297363,1.2126617431640625
0,423211,-3.2359097003936768,-17.77859115600586,-10.485876083374023,-11.44399356842041
0,423211,9.442798614501953,-5.246226787567139,-8.477385520935059,-12.057110786437988
0,423211,3.109869956970215,7.303470611572266,-4.54651403427124,24.40230369567871
0,423211,-12.221906661987305,-9.672718048095703,9.447281837463379,13.841809272766113
0,423211,8.855658531188965,-9.269524574279785,0.07964006811380386,-23.528806686401367
0,423212,11.442517280578613,16.816390991210938,-4.2982282638549805,-4.081439971923828
0,423212,1.4370596408843994,29.427976608276367,10.7957763671875,25.66907501220703
0,423212,-1.9612436294555664,-23.940105438232422,0.8035419583320618,11.703145027160645
0,423212,-4.125699996948242,-27.46954917907715,-3.22003436088562,1.049656867980957
0,423212,-5.992344379425049,27.493547439575195,1.4400146007537842,-3.602111339569092
0,423212,-4.4799299240112305,-10.585577011108398,-1.572957992553711,-8.419896125793457
0,423213,2.360506296157837,-6.84616231918335,4.063454627990723,7.331557750701904
0,423213,10.256464004516602,19.239181518554688,-2.056241273880005,-8.936805725097656
0,423213,-9.205602645874023,-20.632226943969727,-14.352316856384277,0.34165698289871216
0,423213,-20.552024841308594,-4.925365924835205,6.638418197631836,16.864086151123047
0,423213,5.374259948730469,15.667501449584961,5.328564643859863,-18.82646369934082
0,423213,7.5353779792785645,2.746999502182007,-3.3931524753570557,6.9999518394470215
0,423214,10.286433219909668,-4.693989276885986,3.4830000400543213,19.857213973999023
0,423214,4.988221645355225,-13.421605110168457,-8.746940612792969,-18.729774475097656
0,423214,-17.121288299560547,-8.848236083984375,9.313043594360352,-16.5140323638916
0,423214,1.7563308477401733,9.233426094055176,-1.102369785308838,5.588625431060791
0,423214,3.3682668209075928,7.789601802825928,-13.170048713684082,9.508414268493652
0,423214,-11.973810195922852,-3.140664577484131,22.538557052612305,-0.12428418546915054
0,423215,8.835176467895508,3.7102105617523193,-2.243577718734741,-7.604494571685791
0,423215,5.464631080627441,7.966064453125,-16.634260177612305,2.2031469345092773
0,423215,-2.594999313354492,-7.4436726570129395,21.0465030670166,10.441740989685059
0,423215,1.4303447008132935,-8.575538635253906,4.3364973068237305,-6.916199684143066
0,423215,-8.635087966918945,14.442208290100098,-23.03450584411621,-12.809024810791016
0,423215,-1.6353238821029663,5.017396926879883,-11.751232147216797,7.594995975494385
0,423216,6.17584228515625,7.071146488189697,13.411297798156738,3.1930038928985596
0,423216,-0.8391999006271362,7.7531023025512695,9.517857551574707,-20.910810470581055
0,423216,-3.7281405925750732,-24.970457077026367,-15.585907936096191,2.439354419708252
0,423216,4.812897682189941,-17.769315719604492,15.218875885009766,12.940710067749023
0,423216,2.442948818206787,24.20098304748535,27.177812576293945,4.974359035491943
0,423217,6.232028484344482,33.01889419555664,-15.984062194824219,-23.394207000732422
0,423217,12.680377960205078,-23.586681365966797,-19.802940368652344,-18.936683654785156
0,423217,-1.9542312622070312,-27.25168800354004,18.83847999572754,22.78422737121582
0,423217,-14.078004837036133,17.547161102294922,22.293622970581055,0.32992053031921387
0,423217,-14.329225540161133,-7.592200756072998,-12.125944137573242,10.748321533203125
0,423217,13.680588722229004,-4.2243828773498535,-0.16524609923362732,12.519604682922363
0,423218,23.468050003051758,29.707584381103516,2.801917552947998,-25.568300247192383
0,423219,-7.056956768035889,-7.536518096923828,-3.206596612930298,-28.846452713012695
0,423219,-12.519006729125977,-25.897756576538086,15.745573997497559,5.776783466339111
0,423219,-0.9400519132614136,10.22808837890625,-9.204543113708496,12.011752128601074
0,423219,-3.7616701126098633,0.8593131303787231,-33.16584396362305,10.409757614135742
0,423220,-8.264601707458496,-11.627666473388672,-14.453071594238281,18.37239646911621
0,423220,11.29757022857666,21.289287567138672,22.578893661499023,-12.359500885009766
0,423221,-13.213739395141602,6.8007378578186035,-2.79711651802063,10.434796333312988
0,423222,-19.156959533691406,-12.4019136428833,-40.511146545410156,21.032691955566406
0,423224,42.653018951416016,8.718356132507324,10.733421325683594,-12.28665542602539
0,423226,12.14698314666748,-6.519425868988037,16.956024169921875,-2.5211286544799805
0,423228,-32.17998504638672,3.467740058898926,-17.265268325805664,27.39923095703125
0,423230,6.258974075317383,7.7724127769470215,5.768606662750244,12.791645050048828
0,423232,13.83031177520752,-8.273521423339844,21.11932373046875,-33.92441940307617
0,423234,-19.522336959838867,-8.76055908203125,-4.258068084716797,-13.388427734375
0,423236,-6.831960201263428,-20.308744430541992,-14.661042213439941,29.40067481994629
0,423238,5.201399326324463,-6.003610610961914,27.391435623168945,-10.725285530090332
0,423240,-1.8457900285720825,8.227071762084961,27.842130661010742,-36.384971618652344
0,423242,24.47368812561035,40.58699035644531,2.057192325592041,-6.793597221374512
0,423244,6.266631126403809,12.514691352844238,1.9479883909225464,1.8384774923324585
0,423246,-27.116107940673828,-52.88864517211914,-35.39529037475586,22.735883712768555
0,423248,-9.945910453796387,-11.21108341217041,-26.71824836730957,22.298791885375977
0,423250,17.280494689941406,38.15997314453125,20.80586814880371,2.6209049224853516
0,423252,9.596746444702148,5.431429386138916,2.784306526184082,-5.284115791320801
0,423254,-13.601044654846191,-20.406654357910156,-0.003984822891652584,-21.916927337646484
0,423256,3.123422622680664,-5.169844627380371,-5.622853755950928,-13.155220985412598
0,423258,-2.649676561355591,9.887421607971191,-5.377645969390869,-15.80137825012207
0,423260,-0.75051349401474,-0.6801376342773438,25.957820892333984,0.4221420884132385
0,423262,8.659669876098633,2.362227201461792,-0.8874908685684204,39.27149963378906
0,423264,-10.880949020385742,14.821127891540527,-31.086050033569336,12.583690643310547
0,423413,-4.168246269226074,-6.301789283752441,2.1226866245269775,-15.417315483093262
0,423413,15.251681327819824,12.43137264251709,42.371070861816406,-23.416057586669922
0,423413,7.902531147003174,8.481717109680176,-7.562896251678467,-1.9371341466903687
0,423413,-11.17437744140625,-19.141164779663086,-29.841691970825195,16.02252197265625
0,423413,5.401456356048584,0.634148120880127,0.7935628294944763,-12.26482105255127
0,423414,7.609949111938477,-8.246652603149414,8.948996543884277,18.8102970123291
0,423414,-15.751326560974121,-13.637619972229004,7.337975978851318,17.172513961791992
0,423414,-10.010647773742676,11.159897804260254,-6.8309221267700195,-24.799734115600586
0,423414,17.182918548583984,13.070206642150879,5.7908501625061035,7.017201900482178
0,423414,5.1615166664123535,-11.687207221984863,-5.824334621429443,18.001846313476562
0,423414,-28.719253540039062,-10.13385009765625,-9.855201721191406,-0.2657894790172577
0,423415,7.994322299957275,-1.322698950767517,10.254226684570312,-11.466257095336914
0,423415,16.324111938476562,-8.683121681213379,6.261041164398193,3.6162638664245605
0,423415,-28.752347946166992,9.685370445251465,4.862332820892334,10.745657920837402
0,423415,0.5216695666313171,14.170389175415039,-0.7069332003593445,-4.00271463394165
0,423415,30.506153106689453,5.274351596832275,-10.413825035095215,-3.3645219802856445
0,423416,6.270160675048828,-16.441713333129883,-4.435258865356445,-5.866408824920654
0,423416,-22.774524688720703,-17.196870803833008,5.016141414642334,6.3341779708862305
0,423416,-15.405579566955566,17.6527042388916,-2.4417405128479004,-0.7268237471580505
0,423416,29.966520309448242,1.1200511455535889,-4.916605472564697,-7.118208408355713
0,423416,11.77011489868164,-12.079262733459473,5.872769832611084,-5.864262580871582
0,423416,-27.957138061523438,16.163637161254883,2.8476974964141846,-7.083429336547852
0,423417,1.0212396383285522,5.272756576538086,-4.355375289916992,-11.998573303222656
0,423417,5.038695812225342,-7.2206830978393555,6.156840801239014,-3.57808256149292
0,423417,-0.5391845703125,10.605184555053711,6.768758296966553,19.114913940429688
0,423417,27.604501724243164,6.134073257446289,-9.423975944519043,-3.682469129562378
0,423417,0.9449792504310608,-15.58749008178711,-9.403475761413574,-0.5793910622596741
0,423417,-17.735837936401367,1.938600778579712,5.020417213439941,1.5790596008300781
0,423418,-12.207159042358398,5.388373851776123,5.303685665130615,-6.23856782913208
0,423418,-0.9186024069786072,-21.393686294555664,-10.097817420959473,2.641341209411621
0,423418,8.326740264892578,0.12632840871810913,6.667934417724609,-0.15346695482730865
0,423418,-14.317627906799316,20.51639175415039,15.2241792678833,-2.532740592956543
0,423418,-0.40467122197151184,9.068321228027344,-11.275836944580078,-10.92686939239502
0,423418,12.548194885253906,-25.866212844848633,-5.806796550750732,-3.673865795135498
0,423419,-6.970815181732178,-17.328454971313477,2.9085371494293213,9.789412498474121
0,423419,-11.503023147583008,32.84046936035156,-2.879958152770996,20.074209213256836
0,423419,11.332980155944824,22.279895782470703,11.626201629638672,8.975484848022461
0,423419,9.407425880432129,-13.239839553833008,9.263120651245117,-17.974153518676758
0,423419,-4.228364944458008,-22.617815017700195,-6.748007297515869,-4.399686336517334
0,423419,-2.688035249710083,-17.503442764282227,1.739904761314392,34.304351806640625
0,423420,8.610772132873535,16.117719650268555,2.2326040267944336,8.070467948913574
0,423420,13.79803466796875,34.06588363647461,2.756894111633301,-37.5206184387207
0,423420,-10.245000839233398,-8.62549877166748,0.15141870081424713,0.31572940945625305
0,423420,-20.6605224609375,-17.687358856201172,-5.577554225921631,16.022140502929688
0,423420,3.851982831954956,3.6898388862609863,-8.968770027160645,-25.16309356689453
0,423420,21.2112979888916,4.930809497833252,-12.655111312866211,11.982068061828613
0,423421,-5.139758586883545,2.2416110038757324,3.5102829933166504,32.86865997314453
0,423421,-12.707383155822754,3.760798692703247,1.1481904983520508,-34.03376388549805
0,423421,11.356817245483398,8.661825180053711,-14.681020736694336,-29.626184463500977
0,423421,-4.664487838745117,-7.096661567687988,-3.8107311725616455,28.260744094848633
0,423421,-17.129316329956055,-11.909261703491211,18.485029220581055,24.506711959838867
0,423421,16.589784622192383,-2.081106185913086,14.779426574707031,-7.57506799697876
0,423422,15.343461036682129,-1.2409489154815674,-4.000059604644775,2.7079803943634033
0,423422,-11.825608253479004,6.8214545249938965,-17.356603622436523,8.974847793579102
0,423422,-16.40252113342285,7.076357841491699,-4.45901346206665,5.801750659942627
0,423422,3.533599853515625,-16.829444885253906,22.5040225982666,-1.0847053527832031
0,423422,22.484127044677734,-12.739214897155762,1.1247330904006958,-19.688875198364258
0,423422,-12.297002792358398,23.564193725585938,-13.935365676879883,11.866141319274902
0,423423,-14.027743339538574,3.868222236633301,15.613763809204102,10.833702087402344
0,423423,11.686185836791992,-11.394075393676758,8.654061317443848,-19.905431747436523
0,423423,-6.506915092468262,14.763702392578125,-16.019729614257812,-18.425731658935547
0,423423,5.104031085968018,-7.57835054397583,-4.547325611114502,-19.046018600463867
0,423423,9.989741325378418,-13.548306465148926,15.728155136108398,7.865533828735352
0,423423,3.2983176708221436,20.46814727783203,8.783140182495117,19.158342361450195
0,423424,9.541977882385254,-6.562687873840332,-24.331668853759766,1.2448419332504272
0,423424,-10.609188079833984,-14.435991287231445,-14.027726173400879,-9.789641380310059
0,423424,-11.583955764770508,26.910037994384766,17.648012161254883,-13.817224502563477
0,423424,-7.452164649963379,-4.898570537567139,2.7801599502563477,17.92656898498535
0,423424,12.299052238464355,-18.43212127685547,-12.335272789001465,0.9763548374176025
0,423424,17.399057388305664,-2.1794447898864746,-5.576543807983398,-5.178189277648926
0,423425,-27.090774536132812,2.6823554039001465,8.897184371948242,11.445755004882812
0,423425,-7.8493194580078125,27.3061580657959,12.196563720703125,-24.1606388092041
0,423425,22.034229278564453,-4.8304266929626465,-6.528473377227783,12.581672668457031
0,423425,-8.666043281555176,-31.284732818603516,-18.840564727783203,21.395610809326172
0,423426,-12.946205139160156,7.040658950805664,13.316993713378906,-11.61974048614502
0,423427,6.907326698303223,12.087750434875488,25.29732322692871,-7.335696220397949
0,423427,0.15524017810821533,-22.818180084228516,-15.116527557373047,-1.7785820960998535
0,423427,-1.1725343465805054,1.0893988609313965,-1.3828586339950562,11.866130828857422
0,423427,3.5819292068481445,13.321064949035645,17.297595977783203,9.501537322998047
0,423427,7.838930606842041,-3.67788028717041,-7.502621650695801,-12.860925674438477
0,423427,1.5083686113357544,7.57370662689209,-15.540926933288574,-11.956028938293457
0,423429,-14.701305389404297,-1.7091553211212158,-10.24824333190918,-3.4791183471679688
0,423430,3.6070377826690674,8.252838134765625,23.96539306640625,2.0266740322113037
0,423431,12.260527610778809,13.55235481262207,8.477149963378906,23.688194274902344
0,423434,-8.08098030090332,-13.003244400024414,-32.573997497558594,-18.252817153930664
0,423435,-2.9519546031951904,-6.243956565856934,12.392170906066895,-21.456867218017578
0,423438,3.702880620956421,-10.552124977111816,7.965991973876953,-4.9976067543029785
0,423439,2.952509880065918,-9.506553649902344,-3.9801101684570312,-26.35869598388672
0,423442,14.080288887023926,30.008304595947266,22.206310272216797,68.078857421875
0,423443,-0.28629806637763977,3.7041819095611572,-30.502620697021484,37.431819915771484
0,423446,-13.194671630859375,-31.78066062927246,-42.52797317504883,-70.32278442382812
0,423447,-11.504556655883789,11.21275520324707,36.87859344482422,1.1561477184295654
0,423450,10.212285041809082,19.38884925842285,38.83272933959961,36.25240707397461
0,423452,9.340897560119629,-9.93667984008789,-33.87889862060547,-2.613422155380249
0,423454,-13.567545890808105,5.17464542388916,-14.10411548614502,-1.5057400465011597
0,423456,-5.982295989990234,-7.969681739807129,32.40315246582031,-3.7634963989257812
0,423458,-3.1180903911590576,-4.253152370452881,12.021432876586914,-23.40498161315918
0,423460,-9.152222633361816,11.663681983947754,-10.285778045654297,34.73298263549805
0,423462,11.70472240447998,-0.3554518520832062,-7.8746724128723145,27.464523315429688
0,423464,32.61407470703125,14.990239143371582,3.7547988891601562,-38.542659759521484
0,423466,-10.443761825561523,-12.87643814086914,-6.649539470672607,2.8185267448425293
0,423468,-31.386579513549805,-31.14961814880371,-20.38106346130371,-0.9214504957199097
0,423470,8.655183792114258,28.96294403076172,-6.334077835083008,-31.04181480407715
0,423472,15.459037780761719,3.6389598846435547,6.328711986541748,22.12273406982422
0,423630,-8.575605392456055,-34.6250114440918,7.925400257110596,19.887516021728516
0,423630,0.3491239547729492,11.024699211120605,6.637314319610596,-13.959420204162598
0,423630,11.584066390991211,-0.20779186487197876,-9.479045867919922,10.047945976257324
0,423630,3.1055729389190674,11.447381973266602,-5.332304000854492,3.6438679695129395
0,423631,-3.95523738861084,16.871318817138672,5.272433280944824,-15.308101654052734
0,423631,-4.3928608894348145,-24.934480667114258,-3.793804168701172,-5.415707588195801
0,423631,-5.245416641235352,-12.291312217712402,19.181262969970703,-4.50902795791626
0,423631,7.241150856018066,11.46980094909668,16.30201530456543,2.7502386569976807
0,423631,4.100927352905273,13.675287246704102,-21.545284271240234,18.171180725097656
0,423632,-9.565473556518555,6.018810749053955,-3.8597605228424072,-9.09634780883789
0,423632,15.887980461120605,10.55733871459961,15.321263313293457,-17.425342559814453
0,423632,10.961801528930664,3.7848963737487793,-9.332305908203125,2.9368255138397217
0,423632,-7.609030246734619,-30.614194869995117,-10.385199546813965,11.372761726379395
0,423632,-11.828458786010742,-15.33495807647705,3.683809757232666,-1.3429615497589111
0,423632,-18.390552520751953,28.628145217895508,3.069695472717285,-4.4712114334106445
0,423633,1.8521997928619385,20.128042221069336,9.969225883483887,-4.274454116821289
0,423633,9.817215919494629,-13.718819618225098,0.9266778826713562,-19.089353561401367
0,423633,-19.106569290161133,-25.65838050842285,-14.577042579650879,15.8102388381958
0,423633,-17.31674575805664,-16.9438533782959,3.4995813369750977,34.401119232177734
0,423633,21.85422706604004,8.027454376220703,22.954946517944336,-9.685393333435059
0,423633,22.638198852539062,21.740230560302734,-11.18462085723877,-16.228111267089844
0,423634,-6.030104637145996,1.4920655488967896,-20.4393310546875,11.929561614990234
0,423634,-18.896677017211914,-16.559967041015625,7.758887767791748,-17.04584312438965
0,423634,-12.263688087463379,-4.954243183135986,-3.1817374229431152,-15.392538070678711
0,423634,9.642343521118164,34.19041061401367,-4.250214576721191,16.637516021728516
0,423634,14.439647674560547,13.123482704162598,3.9197545051574707,6.803551197052002
0,423634,4.557844161987305,-40.46521759033203,7.612263202667236,12.925148963928223
0,423635,8.334925651550293,-19.342193603515625,10.863579750061035,-6.051548004150391
0,423635,-1.627573013305664,6.916131973266602,-4.72389554977417,-12.422396659851074
0,423635,-13.416991233825684,14.100287437438965,-5.964315891265869,13.332840919494629
0,423635,5.170870304107666,18.255992889404297,10.624754905700684,0.4478703439235687
0,423635,5.310173988342285,10.454642295837402,-0.1263294667005539,-14.68211841583252
0,423635,-1.0695703029632568,-9.196362495422363,-11.544452667236328,-10.789091110229492
0,423636,15.834671974182129,-18.03600311279297,8.398995399475098,13.82823657989502
0,423636,1.3503129482269287,3.2701544761657715,3.3000965118408203,5.32930850982666
0,423636,-10.901169776916504,9.654498100280762,-6.415632724761963,-24.667133331298828
0,423636,-6.285414695739746,-7.258937358856201,5.215840816497803,-2.192817211151123
0,423636,-3.8598239421844482,6.692033290863037,5.449305534362793,5.899838924407959
0,423636,9.769257545471191,19.464672088623047,-5.082332134246826,15.684120178222656
0,423637,-6.4619622230529785,-14.771964073181152,-7.314876079559326,11.269365310668945
0,423637,-8.650035858154297,-8.613885879516602,1.1272982358932495,-29.63991928100586
0,423637,0.8942026495933533,6.720402240753174,-3.816631555557251,-0.37219029664993286
0,423637,-13.777885437011719,3.67234468460083,8.346395492553711,14.448530197143555
0,423637,13.886892318725586,-0.5293886065483093,15.214248657226562,2.846675395965576
0,423637,8.708423614501953,-16.83732032775879,-7.401339530944824,3.6304707527160645
0,423638,-8.195649147033691,2.7203705310821533,-5.3068647384643555,-7.340988636016846
0,423638,12.14210033416748,0.08283399045467377,0.7583711743354797,-1.5374857187271118
0,423638,-14.821019172668457,-8.140608787536621,1.1796096563339233,2.3252739906311035
0,423638,-5.542491912841797,10.081477165222168,9.853928565979004,13.454063415527344
0,423638,13.47777271270752,-5.205231666564941,-10.77357292175293,11.540421485900879
0,423638,-17.051156997680664,2.0677452087402344,-18.098604202270508,-7.069358825683594
0,423639,-5.242093086242676,8.653243064880371,3.1737234592437744,-5.744235038757324
0,423639,19.739595413208008,-7.134281158447266,-4.369604587554932,-1.1214953660964966
0,423639,9.999289512634277,11.525012016296387,-12.521700859069824,-5.706240653991699
0,423639,-11.8087739944458,-3.1041436195373535,2.8926358222961426,3.980008602142334
0,423639,-3.341047763824463,-15.0865478515625,8.616677284240723,16.064577102661133
0,423639,14.847469329833984,9.55738353729248,-0.7133228778839111,5.461648941040039
0,423640,-4.864626884460449,16.759244918823242,9.461592674255371,-12.227519989013672
0,423640,2.1696126461029053,8.145062446594238,13.742182731628418,-12.40334415435791
0,423640,12.7314453125,-10.46385669708252,-5.456794261932373,-1.9849345684051514
0,423640,-3.7216999530792236,-5.081857204437256,-7.607443809509277,15.17453384399414
0,423640,-6.548872470855713,-1.0524383783340454,14.770894050598145,0.8725965619087219
0,423641,-3.0415518283843994,-14.998191833496094,2.6003527641296387,-13.932343482971191
0,423641,-4.258689880371094,-1.3581891059875488,-18.193347930908203,11.169147491455078
0,423641,1.7977571487426758,16.52439308166504,6.978593826293945,-9.060118675231934
0,423641,16.824462890625,10.478008270263672,-5.680190086364746,-22.8504581451416
0,423641,-1.0884947776794434,-11.361366271972656,-17.349241256713867,10.572503089904785
0,423641,-18.207977294921875,7.564991474151611,6.428965091705322,2.4442367553710938
0,423642,-10.512207984924316,4.421839237213135,0.8880564570426941,-7.1271796226501465
0,423642,10.7603178024292,-34.72357177734375,4.661556720733643,15.807035446166992
0,423642,23.930858612060547,15.725301742553711,10.502528190612793,-3.7260468006134033
0,423642,-11.046149253845215,26.82880401611328,-2.813426971435547,-10.472175598144531
0,423642,-20.453561782836914,-13.165063858032227,4.066967010498047,14.868278503417969
0,423642,6.168266773223877,-6.617966651916504,-4.89961051940918,-0.9223717451095581
0,423643,-9.096701622009277,0.06895355880260468,-5.675039768218994,1.7033236026763916
0,423643,0.2173527628183365,-2.685849666595459,19.81865692138672,20.951982498168945
0,423643,29.084716796875,3.153247117996216,-1.2024390697479248,-6.580105304718018
0,423643,-7.114809989929199,-5.820850372314453,-14.827072143554688,-9.615245819091797
0,423643,-18.36966323852539,-13.639154434204102,-1.1727726459503174,17.948423385620117
0,423645,-4.497679233551025,-0.9078032970428467,-8.694726943969727,-7.515220642089844
0,423645,3.8495864868164062,8.847630500793457,-3.747187376022339,-43.80744934082031
0,423645,16.615089416503906,15.723164558410645,8.98528003692627,-1.6253575086593628
0,423645,-3.9212582111358643,-16.72265625,-8.907352447509766,31.20157814025879
0,423645,-7.274115085601807,-9.831117630004883,-8.881304740905762,-7.1746039390563965
0,423645,-13.657641410827637,16.157535552978516,11.692712783813477,-15.997467994689941
0,423646,-2.5955421924591064,-4.994562149047852,-8.079062461853027,-2.7847399711608887
0,423647,18.633129119873047,5.117288112640381,-9.379276275634766,16.017786026000977
0,423648,-23.70424461364746,-15.871453285217285,13.672173500061035,24.8564453125
0,423649,-8.221443176269531,-17.020111083984375,15.956974029541016,0.11613640934228897
0,423652,39.68383026123047,38.904022216796875,3.688868284225464,21.109092712402344
0,423653,12.36981201171875,14.85704231262207,-9.267367362976074,-4.074018478393555
0,423656,-13.572114944458008,-35.809478759765625,5.660181999206543,-45.50263977050781
0,423658,-21.779508590698242,-22.167280197143555,2.557100296020508,10.664335250854492
0,423660,1.6639409065246582,31.20701789855957,13.541170120239258,37.30348205566406
0,423662,37.82026290893555,37.224246978759766,18.351850509643555,4.103569984436035
0,423664,-0.19691452383995056,-28.43402099609375,-11.648284912109375,-39.52842330932617
0,423666,-23.82956314086914,-25.286441802978516,-39.21965026855469,-39.894554138183594
0,423668,-5.222858905792236,29.93045997619629,-22.658206939697266,-3.3330800533294678
0,423670,1.2203037738800049,7.938204288482666,58.459503173828125,22.240936279296875
0,423672,9.172846794128418,-21.801372528076172,-29.206714630126953,22.10610580444336
0,423674,-7.847472190856934,-10.387711524963379,-54.224788665771484,1.807037115097046
0,423676,-1.9036669731140137,23.209096908569336,86.37946319580078,-22.85626792907715
0,423678,9.342556953430176,11.316298484802246,22.669715881347656,1.6610805988311768
0,423680,0.4952562153339386,-12.259011268615723,-49.364891052246094,24.669172286987305
0,423682,-5.6290178298950195,-3.819697380065918,-11.88033390045166,15.065106391906738
0,423684,7.043859004974365,-1.838539481163025,14.263440132141113,-8.426651000976562
0,423686,5.2945966720581055,3.643662214279175,1.3443132638931274,-26.662630081176758
0,423688,-18.572546005249023,-6.731523036956787,-2.99777889251709,18.69253921508789
0,423690,2.119622230529785,-0.9172986149787903,11.517580032348633,21.570310592651367
0,423692,-8.937965393066406,13.887471199035645,-8.475186347961426,-14.784212112426758
0,423694,4.4374918937683105,12.41955852508545,-3.660431146621704,1.9732965230941772
0,423861,19.799421310424805,-8.682479858398438,6.466772556304932,-0.4040743112564087
0,423862,-10.50894546508789,-19.799264907836914,-3.993300437927246,-30.07448959350586
0,423862,-2.0845000743865967,-4.483278751373291,-6.022099494934082,-5.541318416595459
0,423862,-3.648099660873413,4.389458656311035,6.137349605560303,11.974203109741211
0,423862,1.374782919883728,-2.446293830871582,3.3222713470458984,3.786573648452759
0,423862,-5.684502601623535,-4.277101516723633,-3.8821887969970703,-7.559255123138428
0,423862,3.554065465927124,24.39232063293457,8.117586135864258,-9.035346984863281
0,423863,10.198694229125977,7.6997222900390625,12.322061538696289,10.185019493103027
0,423863,-2.6087889671325684,-25.273902893066406,-6.086191654205322,1.5896588563919067
0,423863,19.411361694335938,-5.722484111785889,-15.845254898071289,-18.526765823364258
0,423863,-15.033354759216309,1.9178532361984253,-3.8105764389038086,10.910675048828125
0,423863,-23.884538650512695,9.679736137390137,2.893843650817871,38.19444274902344
0,423863,14.22788143157959,9.884501457214355,4.02138614654541,1.0268195867538452
0,423864,-0.9257023334503174,-3.289541482925415,-3.4365243911743164,-16.357454299926758
0,423864,-13.644824981689453,1.886233925819397,4.776484489440918,-4.971808433532715
0,423864,14.135469436645508,-3.825347661972046,13.174875259399414,-7.421645641326904
0,423864,17.324907302856445,-16.7564697265625,-12.778125762939453,8.541525840759277
0,423864,-7.345874786376953,12.09581470489502,-8.497199058532715,9.157668113708496
0,423864,0.9117225408554077,19.081689834594727,10.781240463256836,-15.561128616333008
0,423865,1.6963276863098145,-25.19554901123047,-1.1077933311462402,-9.608678817749023
0,423865,-13.165193557739258,-2.140183210372925,-9.47859001159668,19.656076431274414
0,423865,-7.010289192199707,12.297582626342773,-9.401089668273926,14.973299980163574
0,423865,0.26538339257240295,-2.394073247909546,-8.400909423828125,-11.1713228225708
0,423865,9.679597854614258,17.266159057617188,9.799808502197266,-2.959343194961548
0,423865,9.35265827178955,-9.327544212341309,26.965648651123047,-12.136007308959961
0,423866,1.4869142770767212,-23.550748825073242,-7.400267601013184,-4.355118274688721
0,423866,-13.80451488494873,13.44335651397705,-18.851713180541992,17.42422103881836
0,423866,-10.58730411529541,8.546504020690918,7.668420791625977,-0.09338172525167465
0,423866,20.430423736572266,-3.940084934234619,2.0026516914367676,-18.159860610961914
0,423866,3.6332638263702393,-10.903511047363281,-6.782259464263916,-17.25980567932129
0,423867,-5.304553985595703,-16.693912506103516,-1.0357049703598022,31.22976303100586
0,423867,2.1307461261749268,19.13052749633789,10.365714073181152,22.190494537353516
0,423867,-14.657529830932617,14.303189277648926,5.328224182128906,-32.727783203125
0,423867,8.648256301879883,-11.71784782409668,-1.560410499572754,-0.715478241443634
0,423867,12.044663429260254,10.981722831726074,0.9603478908538818,17.775209426879883
0,423867,-6.039867877960205,6.4955949783325195,-3.3870813846588135,-0.6993986368179321
0,423868,0.9887174963951111,-19.537796020507812,-11.286507606506348,6.21847677230835
0,423868,-10.04243278503418,0.6597054600715637,10.450841903686523,-16.829195022583008
0,423868,-3.8354077339172363,4.537036895751953,15.900420188903809,2.396394729614258
0,423868,17.626401901245117,-0.2579554617404938,-15.190701484680176,14.186885833740234
0,423868,1.5506048202514648,7.499693393707275,-1.4217060804367065,-22.932092666625977
0,423868,-21.779537200927734,-16.527507781982422,14.238897323608398,10.645909309387207
0,423869,-1.9954431056976318,-9.593228340148926,-0.9701809883117676,6.832146167755127
0,423869,15.642148971557617,28.98787498474121,-6.357216835021973,-15.798299789428711
0,423869,6.895439147949219,-10.852278709411621,-10.410892486572266,13.759065628051758
0,423869,-18.98221778869629,-22.876609802246094,-3.7732839584350586,-3.172626256942749
0,423869,-5.358799457550049,35.364036560058594,12.496678352355957,-18.070730209350586
0,423869,22.627288818359375,1.7214696407318115,-7.34864616394043,25.38668441772461
0,423870,-14.612235069274902,-21.309818267822266,-9.648000717163086,15.06763744354248
0,423870,-11.649521827697754,6.618786811828613,20.0784969329834,-33.9268913269043
0,423870,12.723030090332031,-1.356597661972046,-6.951310157775879,-6.2208099365234375
0,423870,-3.561168670654297,-12.01541805267334,-22.696765899658203,5.149017333984375
0,423870,6.315557956695557,-3.994464635848999,19.334442138671875,3.861135482788086
0,423870,9.920561790466309,22.393972396850586,10.680021286010742,22.880765914916992
0,423871,-3.244518518447876,16.400346755981445,-14.503448486328125,-14.658722877502441
0,423871,-6.258345603942871,-16.636560440063477,-2.0141894817352295,-33.80880355834961
0,423871,-16.96092987060547,-22.499895095825195,-3.188825845718384,11.168030738830566
0,423871,3.2145745754241943,6.667875289916992,0.3655891716480255,25.89882469177246
0,423871,14.765748023986816,16.266952514648438,5.68316125869751,-1.9975451231002808
0,423871,-3.4443304538726807,-8.11340045928955,-5.318264007568359,-0.6234031915664673
0,423872,6.885337829589844,17.805517196655273,1.2140204906463623,10.746797561645508
0,423872,11.403614044189453,10.772072792053223,12.142621040344238,4.052672863006592
0,423872,-3.6190707683563232,-29.374773025512695,0.04201598837971687,-17.881181716918945
0,423872,-12.980907440185547,-14.174643516540527,-1.901085376739502,-9.625249862670898
0,423872,-1.4784905910491943,9.798261642456055,12.065669059753418,14.951103210449219
0,423872,14.888855934143066,25.173044204711914,-0.6455625891685486,3.2168943881988525
0,423873,-0.878868818283081,11.953411102294922,-5.222104549407959,-17.20117950439453
0,423873,-10.724618911743164,-13.333120346069336,10.253786087036133,-10.655397415161133
0,423873,-1.7431052923202515,-15.69086742401123,9.191522598266602,13.528645515441895
0,423873,4.686732769012451,12.933709144592285,-4.6465373039245605,-1.8494207859039307
0,423873,6.275228977203369,-3.097437858581543,-9.801319122314453,-21.25271224975586
0,423873,0.24940061569213867,-9.923083305358887,-3.706174850463867,25.037981033325195
0,423874,-4.565741539001465,21.528837203979492,-12.361681938171387,21.75062370300293
0,423874,-5.068234920501709,-16.34904670715332,-0.04102758318185806,-27.131914138793945
0,423874,-1.494596004486084,-37.30615997314453,4.334996700286865,4.240158557891846
0,423874,6.185309410095215,5.611562252044678,-10.428486824035645,17.708568572998047
0,423874,1.4548447132110596,31.153093338012695,-2.287533760070801,-9.343650817871094
0,423874,-10.099510192871094,-8.41309928894043,8.636892318725586,-6.333115577697754
0,423875,1.270975947380066,-16.708581924438477,8.852133750915527,8.904747009277344
0,423875,2.5631344318389893,4.852776050567627,-12.013557434082031,-1.9851738214492798
0,423875,-6.137197017669678,-4.678297996520996,-1.1976509094238281,-19.253324508666992
0,423875,-1.9244589805603027,9.298306465148926,0.44358834624290466,7.092156887054443
0,423875,2.549072742462158,6.114865303039551,-15.890125274658203,20.39152717590332
0,423875,2.234156847000122,0.9031168222427368,11.29150104522705,-7.118008136749268
0,423877,-1.9070141315460205,-1.4770808219909668,16.16497230529785,-8.787092208862305
0,423877,7.668570041656494,-9.401387214660645,-16.17328453063965,6.486568927764893
0,423877,3.97548508644104,-4.781238079071045,-13.401211738586426,-11.24643611907959
0,423877,-6.0908074378967285,10.186751365661621,24.223217010498047,6.941678524017334
0,423877,-0.678762674331665,28.14641571044922,23.293527603149414,28.452232360839844
0,423878,-1.0735855102539062,4.020242691040039,1.764337182044983,-31.30887794494629
0,423878,10.265033721923828,-10.016875267028809,-0.29562389850616455,-15.473207473754883
0,423879,1.9923732280731201,-1.8754218816757202,0.05795200914144516,31.240459442138672
0,423880,-12.88416576385498,-6.075752258300781,-20.8482666015625,-0.5502339005470276
0,423882,2.8748908042907715,5.586739540100098,-18.31363296508789,-20.901851654052734
0,423885,4.374478340148926,7.9979352951049805,24.448150634765625,-8.585041999816895
0,423886,-7.464563369750977,-19.205379486083984,5.165609359741211,7.313824653625488
0,423889,-1.4380561113357544,-0.22296451032161713,-12.862720489501953,7.929427623748779
0,423890,10.12126636505127,19.132505416870117,13.550159454345703,11.789692878723145
0,423893,-7.276731967926025,-21.42953109741211,-15.638298034667969,5.822523593902588
0,423894,-10.99213981628418,-24.399612426757812,-20.548500061035156,-5.590134143829346
0,423897,8.585554122924805,19.695011138916016,20.366764068603516,-11.049018859863281
0,423898,10.934917449951172,18.914710998535156,0.30821457505226135,-8.527523040771484
0,423899,1.1331326961517334,-5.8778815269470215,-18.226240158081055,1.3218599557876587
0,423902,-0.4008657932281494,-0.258698433637619,31.610973358154297,1.816796064376831
0,423903,-10.985589027404785,0.3468984067440033,17.221799850463867,2.7743823528289795
0,423906,-1.3907997608184814,14.589520454406738,-33.50055694580078,-1.596121072769165
0,423907,20.756772994995117,0.6209772825241089,-1.845618724822998,11.038213729858398
0,423910,-22.029157638549805,-31.95818519592285,-13.228140830993652,27.95393943786621
0,423911,-22.670745849609375,-2.506726026535034,-41.94481658935547,-23.521583557128906
0,423914,23.838865280151367,6.053215980529785,26.66277503967285,-26.930238723754883
0,423915,10.058149337768555,1.525708794593811,52.182044982910156,19.4865779876709
0,423918,-18.565000534057617,5.125703811645508,9.98437786102295,-10.644868850708008
0,423919,-4.270334720611572,-17.056499481201172,-6.4399189949035645,-3.952302932739258
0,423922,16.770872116088867,-1.6593166589736938,-9.022905349731445,38.672019958496094
0,423923,3.9870314598083496,23.832502365112305,2.5194272994995117,-4.424726486206055
0,423926,-2.590808629989624,16.4976863861084,-4.045414924621582,-33.9473991394043
0,423927,10.784024238586426,-2.898836851119995,-18.01640510559082,11.464123725891113
0,424105,9.16201114654541,-23.517669677734375,9.583104133605957,-7.350187301635742
0,424105,3.9238100051879883,4.057482719421387,7.049792289733887,-39.83085250854492
0,424105,-13.647187232971191,13.055947303771973,-11.50534725189209,16.161916732788086
0,424105,-24.546072006225586,-12.662030220031738,-3.338500738143921,28.7503662109375
0,424105,-0.20037345588207245,2.663936138153076,-11.118281364440918,-18.892175674438477
0,424105,7.811568737030029,-2.0919744968414307,5.426593780517578,2.762131452560425
0,424105,6.750181674957275,-3.220825433731079,11.622605323791504,35.75216293334961
0,424106,1.4695472717285156,6.3904218673706055,-7.496974468231201,6.782937526702881
0,424106,-5.259552001953125,-5.939906597137451,9.296422004699707,-8.16131591796875
0,424106,-15.292099952697754,7.0563740730285645,18.65520477294922,6.313626289367676
0,424106,5.293612480163574,-3.545361042022705,-13.285009384155273,-9.315540313720703
0,424106,26.921518325805664,12.085176467895508,-8.773602485656738,-24.8931827545166
0,424107,-11.187820434570312,9.50217342376709,9.49507999420166,9.090121269226074
0,424107,-0.7783952951431274,-35.697505950927734,-11.140955924987793,18.100406646728516
0,424107,8.219200134277344,15.508527755737305,-1.1431248188018799,-1.3477526903152466
0,424107,-3.4704668521881104,8.279519081115723,7.0882649421691895,-8.279243469238281
0,424107,0.7101824283599854,-24.389469146728516,-15.36306381225586,-8.561689376831055
0,424107,-16.797964096069336,13.33215618133545,0.8413640856742859,6.6848578453063965
0,424108,7.527327060699463,-2.155405044555664,11.727961540222168,-1.3681912422180176
0,424108,14.606786727905273,6.092643737792969,0.23895025253295898,-12.313033103942871
0,424108,-13.409280776977539,24.78558349609375,12.662242889404297,9.165814399719238
0,424108,-12.078372955322266,-29.499267578125,-1.9345486164093018,25.724348068237305
0,424108,-0.9310112595558167,-16.217676162719727,-8.45743465423584,0.6455800533294678
0,424108,21.610572814941406,28.451690673828125,-0.5110001564025879,-25.146211624145508
0,424109,6.7376484870910645,4.9741902351379395,-8.49471664428711,1.1347228288650513
0,424109,-30.516389846801758,5.142459392547607,9.264707565307617,-4.273011207580566
0,424109,-3.057985305786133,-6.920798301696777,-2.5220656394958496,-9.138696670532227
0,424109,28.102462768554688,-26.07777214050293,-13.309957504272461,14.054677963256836
0,424109,-4.235872268676758,5.931216716766357,12.37061595916748,-15.0126314163208
0,424109,-8.845544815063477,10.940704345703125,5.492926120758057,-21.970312118530273
0,424110,9.762701034545898,-14.048016548156738,-1.9178105592727661,16.92925453186035
0,424110,-7.239658832550049,2.9045798778533936,-7.322382926940918,22.772119522094727
0,424110,0.9731405973434448,29.785179138183594,0.7245351672172546,1.101646065711975
0,424110,2.8927807807922363,-2.1429243087768555,13.80702018737793,-1.204317569732666
0,424110,1.2822930812835693,-15.411124229431152,-5.214331150054932,4.463752746582031
0,424110,-4.526769161224365,-9.535967826843262,-16.148983001708984,12.312439918518066
0,424111,-18.131488800048828,-16.188323974609375,-3.1264655590057373,1.4487895965576172
0,424111,19.46998405456543,29.769737243652344,13.661762237548828,-26.79044532775879
0,424111,13.602825164794922,14.590828895568848,9.449263572692871,-10.461148262023926
0,424111,-15.528616905212402,-26.890316009521484,-5.437597274780273,26.8783016204834
0,424111,-1.0651556253433228,8.948103904724121,-2.2295351028442383,-4.640850067138672
0,424112,-0.8864127397537231,-8.642581939697266,1.5036969184875488,-9.445304870605469
0,424112,-3.1906566619873047,-31.589155197143555,-9.353509902954102,15.963896751403809
0,424112,8.524224281311035,28.348234176635742,-7.903499126434326,-23.659963607788086
0,424112,12.591287612915039,28.059823989868164,8.173526763916016,-7.00951623916626
0,424112,-12.498284339904785,-23.411407470703125,6.507467269897461,15.436647415161133
0,424112,-13.599719047546387,-15.813831329345703,-3.5028419494628906,-1.3331395387649536
0,424113,2.0181593894958496,10.0387544631958,3.026061534881592,14.292542457580566
0,424113,8.228655815124512,12.365106582641602,8.95651626586914,4.448036193847656
0,424113,8.493645668029785,-18.821640014648438,-6.277961730957031,-2.7520790100097656
0,424113,-17.900142669677734,4.40467643737793,-7.335421562194824,-10.15174388885498
0,424113,0.7340293526649475,34.40486526489258,19.034923553466797,-14.516914367675781
0,424113,20.36903953552246,-10.326260566711426,-3.71677565574646,17.48093032836914
0,424114,1.6014286279678345,-23.753488540649414,-11.144378662109375,-8.810344696044922
0,424114,-8.63002872467041,-3.380337953567505,8.384603500366211,-21.923351287841797
0,424114,-5.6809401512146,7.472522258758545,-10.114755630493164,10.350262641906738
0,424114,2.296051025390625,14.277132034301758,-0.2564021050930023,0.8196653723716736
0,424114,-0.03540048003196716,-1.8333646059036255,0.4013276696205139,-9.249323844909668
0,424114,5.741950511932373,-23.470273971557617,-7.921104907989502,6.237947940826416
0,424115,4.602314472198486,-4.517125606536865,5.072066783905029,15.529956817626953
0,424115,-15.461355209350586,6.569674491882324,2.3656909465789795,3.8277366161346436
0,424115,-13.335853576660156,2.873293876647949,5.817878723144531,-3.7101998329162598
0,424115,9.605165481567383,16.644306182861328,-5.431368827819824,-1.8700700998306274
0,424115,4.118827819824219,6.387393474578857,8.469423294067383,4.170648097991943
0,424115,-5.51602029800415,-16.387882232666016,12.793525695800781,7.1552653312683105
0,424116,10.746577262878418,4.575376987457275,-18.022647857666016,-2.4168710708618164
0,424116,9.898249626159668,17.413143157958984,3.421704053878784,-9.898054122924805
0,424116,-16.09524154663086,-5.603500843048096,-1.3013087511062622,10.360858917236328
0,424116,-11.487393379211426,-13.56375503540039,-6.714493751525879,-0.6221907734870911
0,424116,29.44793128967285,-7.040924549102783,14.017180442810059,-7.237815856933594
0,424116,8.630396842956543,12.185688972473145,3.856337070465088,19.801958084106445
0,424117,-27.46966552734375,-3.2705769538879395,-4.530991554260254,-11.972410202026367
0,424117,9.716662406921387,-19.660619735717773,-7.154061317443848,-9.151822090148926
0,424117,5.813076496124268,30.37472915649414,4.443368434906006,0.15559031069278717
0,424117,-10.64362621307373,1.8776012659072876,-2.4466400146484375,-4.862360954284668
0,424117,8.021368026733398,-28.204364776611328,-14.65731430053711,26.618600845336914
0,424117,-4.496295928955078,27.85118865966797,10.052799224853516,-1.9091379642486572
0,424118,4.140788555145264,-2.7151236534118652,12.657243728637695,-33.596397399902344
0,424118,-4.820808410644531,-37.603702545166016,-6.735716342926025,6.617257118225098
0,424118,-19.371200561523438,14.619197845458984,-7.1150221824646,17.214567184448242
0,424118,10.117100715637207,31.8284969329834,2.1249423027038574,-22.122377395629883
0,424118,9.816414833068848,-8.89121150970459,3.003622055053711,4.50600004196167
0,424118,7.845758438110352,-14.178959846496582,-6.6843132972717285,20.657228469848633
0,424119,-5.232419967651367,5.848427772521973,-9.536794662475586,-27.858442306518555
0,424119,-22.453678131103516,-6.0211567878723145,5.6136860847473145,-5.327549934387207
0,424119,-2.413330554962158,-2.1891286373138428,16.319395065307617,25.081411361694336
0,424119,15.564723014831543,14.404223442077637,-3.8583271503448486,-11.185622215270996
0,424119,4.244968414306641,-8.768786430358887,-21.740123748779297,-4.4779815673828125
0,424121,10.037893295288086,3.450490713119507,6.984256267547607,28.731414794921875
0,424121,26.55939292907715,20.47455596923828,16.1251277923584,3.0056211948394775
0,424121,-18.083412170410156,-21.180517196655273,-17.568782806396484,-11.083888053894043
0,424121,-34.51686096191406,-5.539844989776611,-6.891797065734863,-3.1948659420013428
0,424121,6.127175331115723,33.07193374633789,15.818595886230469,-4.669198989868164
0,424121,19.838876724243164,-11.221586227416992,-4.299712181091309,9.02698802947998
0,424122,13.453963279724121,-17.544837951660156,2.5338568687438965,3.55161452293396
0,424122,-5.505579948425293,24.53812599182129,14.54029369354248,-17.63753318786621
0,424123,-23.6407527923584,-11.230474472045898,0.07522021979093552,-4.8985915184021
0,424123,-10.355057716369629,-16.328269958496094,4.320594310760498,26.75789451599121
0,424126,6.332070350646973,-9.270870208740234,-27.095151901245117,-8.99275016784668
0,424127,3.052844524383545,-27.178544998168945,-14.168052673339844,-7.932730674743652
0,424130,-5.489880561828613,19.64143943786621,31.041744232177734,29.8400821685791
0,424132,10.232757568359375,27.938899993896484,-13.420778274536133,-3.171499013900757
0,424134,18.80699348449707,5.284055709838867,0.899121105670929,-46.886375427246094
0,424136,-21.08835792541504,-13.005000114440918,31.400163650512695,-19.4068660736084
0,424138,-23.869293212890625,-25.774351119995117,-20.639835357666016,43.59050750732422
0,424140,35.46516799926758,9.895994186401367,-7.196263313293457,-13.144462585449219
0,424142,17.517091751098633,12.795744895935059,24.149551391601562,-8.957864761352539
0,424144,-18.7575626373291,7.2619948387146,-25.72923469543457,32.586578369140625
0,424146,-6.647082328796387,19.63250732421875,-17.256681442260742,-7.336857795715332
0,424148,-2.9252090454101562,3.1385622024536133,40.090824127197266,-21.769588470458984
0,424150,13.469883918762207,-12.731559753417969,-1.5030931234359741,7.598489284515381
0,424152,-5.76684045791626,-18.7377872467041,-36.82124328613281,10.269327163696289
0,424154,-6.676676273345947,-10.612335205078125,5.92838716506958,-23.01229476928711
0,424156,14.708662986755371,-1.6724369525909424,5.021284103393555,34.699066162109375
0,424159,-20.233728408813477,2.220200777053833,-3.688737392425537,24.39346694946289
0,424160,-12.497624397277832,-2.8245341777801514,28.421194076538086,-22.572729110717773
0,424163,24.887014389038086,14.743586540222168,9.268434524536133,-18.978473663330078
0,424164,-8.178956031799316,15.833831787109375,-28.548599243164062,-25.345003128051758
0,424167,-7.093876838684082,-9.705708503723145,-9.496454238891602,15.889759063720703
0,424168,27.44316864013672,0.8510667681694031,9.583151817321777,19.897520065307617
0,424171,-5.423610687255859,-9.983809471130371,16.027414321899414,-26.719999313354492
0,424172,-17.749914169311523,3.6337146759033203,14.946601867675781,22.285385131835938
0,424173,-0.8000040054321289,15.469498634338379,-23.337156295776367,24.961225509643555
0,424361,5.796276569366455,-9.913556098937988,-10.485306739807129,-44.49833679199219
0,424361,16.970333099365234,7.897021770477295,17.48891258239746,-7.751016139984131
0,424361,-4.881123065948486,5.224678993225098,-18.14085578918457,21.67432975769043
0,424361,-23.966760635375977,-26.32065200805664,-5.0028076171875,9.363632202148438
0,424361,-4.350567817687988,5.5380635261535645,24.276756286621094,1.8508187532424927
0,424361,14.489161491394043,14.824565887451172,-5.791384220123291,-4.787830829620361
0,424362,8.699939727783203,-18.887611389160156,5.930046081542969,0.6051182150840759
0,424362,-8.69611930847168,19.394983291625977,20.30103302001953,-4.035192012786865
0,424362,1.3535420894622803,13.687969207763672,-20.01223373413086,3.6784565448760986
0,424362,8.418760299682617,-25.572721481323242,-5.966412544250488,19.890066146850586
0,424362,-1.37516450881958,-1.8584095239639282,3.314714193344116,-6.638449192047119
0,424362,-2.8309123516082764,-0.882856011390686,-26.777359008789062,-25.154617309570312
0,424363,-2.0962326526641846,-6.193011283874512,-11.072783470153809,8.46861743927002
0,424363,2.113335132598877,-0.5971412658691406,6.960845947265625,13.534656524658203
0,424363,6.3743438720703125,-6.196616172790527,10.098617553710938,-25.284379959106445
0,424363,-6.207355976104736,6.768280982971191,8.553023338317871,-4.174837589263916
0,424363,-13.320592880249023,12.317926406860352,-9.439155578613281,4.043428897857666
0,424363,14.219233512878418,-16.116619110107422,-19.023544311523438,-25.26848793029785
0,424364,7.633686542510986,-9.266572952270508,9.257465362548828,2.228480100631714
0,424364,-10.836119651794434,19.786840438842773,23.884187698364258,27.793062210083008
0,424364,7.3013386726379395,19.78325653076172,-1.0200278759002686,4.250159740447998
0,424364,1.047270655632019,-16.552513122558594,-12.246788024902344,-6.842814922332764
0,424364,-16.991817474365234,-17.89838218688965,-0.6275522112846375,7.608236789703369
0,424364,-0.13198991119861603,32.577110290527344,17.93153190612793,7.849789619445801
0,424365,22.43181800842285,4.70855188369751,13.494784355163574,-6.1001715660095215
0,424365,-1.2432528734207153,-28.71735382080078,-1.009391188621521,-16.133142471313477
0,424365,-26.356775283813477,13.117183685302734,2.9122238159179688,8.287398338317871
0,424365,0.26662421226501465,21.731201171875,-1.7501271963119507,21.69523811340332
0,424365,14.764103889465332,-11.073620796203613,-8.91842269897461,2.4785852432250977
0,424365,-5.80281400680542,-11.761616706848145,-1.2361984252929688,-16.602521896362305
0,424366,4.774666786193848,-2.3075428009033203,5.414849758148193,7.9668450355529785
0,424366,8.429712295532227,2.6821553707122803,12.586861610412598,7.362712860107422
0,424366,-6.274127006530762,-2.1262874603271484,-9.128551483154297,-30.39714241027832
0,424366,3.6512703895568848,-10.23402214050293,-30.354873657226562,1.7110908031463623
0,424366,-11.434800148010254,5.321856498718262,-8.560426712036133,21.259042739868164
0,424367,-13.926802635192871,10.501119613647461,7.515077114105225,0.8911886215209961
0,424367,28.981239318847656,-18.82708168029785,-0.29722461104393005,-3.699690103530884
0,424367,10.53885555267334,-6.697055339813232,-2.609893560409546,9.515364646911621
0,424367,-33.73877716064453,24.21268081665039,15.923428535461426,-6.878835678100586
0,424367,11.020757675170898,-9.609378814697266,9.580911636352539,-31.5339298248291
0,424367,14.82932186126709,-11.442436218261719,-11.46942138671875,19.80004119873047
0,424368,-17.982284545898438,13.990023612976074,-4.518959999084473,13.507904052734375
0,424368,9.564502716064453,-0.34889286756515503,5.703619003295898,-18.276029586791992
0,424368,-0.0739535242319107,6.505676746368408,8.29502010345459,22.039064407348633
0,424368,-3.0295650959014893,9.32465934753418,-2.6678290367126465,0.4136847257614136
0,424368,12.44808578491211,-2.5521793365478516,-20.496837615966797,-14.003634452819824
0,424368,-10.854004859924316,2.766098976135254,-3.91711163520813,0.6373808979988098
0,424369,-8.172027587890625,-29.598814010620117,9.892806053161621,-9.349067687988281
0,424369,-0.92479407787323,-22.742137908935547,-4.3982367515563965,5.23457670211792
0,424369,-5.292295932769775,29.2150821685791,-3.251209020614624,1.1317826509475708
0,424369,2.8453195095062256,12.96792221069336,6.236373424530029,6.103977203369141
0,424369,-12.704124450683594,0.424978643655777,9.052913665771484,18.59248924255371
0,424369,4.928019046783447,4.513472557067871,5.094294548034668,-0.4515897333621979
0,424370,30.577377319335938,-1.3489201068878174,6.5800557136535645,-13.901098251342773
0,424370,-7.349397659301758,-4.47339391708374,2.544461965560913,-10.321228981018066
0,424370,-14.554600715637207,-12.726165771484375,-2.2471683025360107,9.84859561920166
0,424370,22.14495277404785,6.189250946044922,15.629383087158203,7.504528522491455
0,424370,4.740436553955078,21.182819366455078,-7.598740577697754,-6.924126625061035
0,424370,-14.219544410705566,-0.3701378107070923,-26.5975284576416,6.856607437133789
0,424371,4.608077526092529,-1.6350712776184082,14.530789375305176,3.1107430458068848
0,424371,-6.21340274810791,5.551941871643066,7.800979137420654,-10.111761093139648
0,424371,2.977710485458374,-17.966476440429688,-13.351241111755371,6.645229339599609
0,424371,-3.6376187801361084,-7.776318550109863,-1.4307602643966675,-3.4601728916168213
0,424371,-16.503223419189453,0.7828729748725891,-0.9567559957504272,-15.565783500671387
0,424371,11.25885009765625,-3.723849058151245,-7.722912788391113,-8.671011924743652
0,424372,-2.4579591751098633,12.021484375,-3.0760631561279297,-9.090909004211426
0,424372,1.7798622846603394,-1.6231399774551392,14.016993522644043,4.771303176879883
0,424372,10.80740737915039,-23.837533950805664,-6.653628349304199,12.069499969482422
0,424372,-9.114067077636719,-5.028141975402832,-13.208121299743652,7.549644947052002
0,424372,-3.9735658168792725,24.306482315063477,10.646730422973633,-11.400110244750977
0,424372,7.083118438720703,20.869619369506836,-3.316801071166992,-11.725078582763672
0,424373,2.052748441696167,-16.869653701782227,-6.114752769470215,8.654520034790039
0,424373,-16.002552032470703,-24.166383743286133,13.34222412109375,12.532788276672363
0,424373,1.2000795602798462,24.4749755859375,9.789916038513184,-7.023303508758545
0,424373,14.801897048950195,-11.752330780029297,-8.313687324523926,-5.113985061645508
0,424373,-9.557356834411621,-21.0755615234375,15.291141510009766,17.088924407958984
0,424373,3.945237636566162,42.9155158996582,15.090983390808105,-13.516660690307617
0,424374,17.850627899169922,-7.617272853851318,-29.969728469848633,-5.869729995727539
0,424374,-15.442374229431152,-30.042404174804688,-4.165018081665039,22.89508628845215
0,424374,-0.07139583677053452,26.939434051513672,20.2276554107666,-14.776174545288086
0,424374,15.574172973632812,5.535274028778076,4.359565258026123,-15.109715461730957
0,424374,-20.48614501953125,-20.332294464111328,-3.8471949100494385,17.305038452148438
0,424374,4.26466178894043,16.305023193359375,-8.713704109191895,2.3604581356048584
0,424375,20.752063751220703,-1.7944906949996948,-6.164580345153809,-11.718171119689941
0,424375,-6.844369888305664,-4.52603816986084,2.0871927738189697,6.211544990539551
0,424375,-13.484801292419434,19.263315200805664,6.093291282653809,10.874667167663574
0,424375,-13.2553129196167,-7.328372001647949,-7.445418834686279,0.08576090633869171
0,424375,4.009207725524902,-4.272182941436768,0.1936730593442917,0.35832130908966064
0,424375,17.61414337158203,6.04986047744751,8.890082359313965,-7.35847806930542
0,424376,1.8313614130020142,-11.721855163574219,-7.397340297698975,-23.98398208618164
0,424376,-8.956151008605957,-15.225625991821289,-12.391343116760254,9.08624267578125
0,424376,-4.989813804626465,-2.7979283332824707,1.5082896947860718,33.17354202270508
0,424376,4.9822797775268555,9.754780769348145,16.135852813720703,-3.4909119606018066
0,424377,9.143024444580078,12.239723205566406,2.9445180892944336,-15.84431266784668
0,424378,-14.514150619506836,-5.666824817657471,-8.00217056274414,4.83524227142334
0,424378,-12.513317108154297,-5.278708457946777,1.9245764017105103,17.126604080200195
0,424378,11.038739204406738,9.168219566345215,4.373579978942871,-16.915742874145508
0,424378,12.997384071350098,-8.166413307189941,1.9599814414978027,-11.24984073638916
0,424378,-6.653968811035156,-7.90233850479126,-0.13103634119033813,29.385679244995117
0,424378,-1.130306363105774,28.312952041625977,0.4739338159561157,-6.464318752288818
0,424379,17.667457580566406,8.442883491516113,-11.25599479675293,-21.826942443847656
0,424379,-14.634921073913574,-24.06882667541504,-15.111075401306152,4.075290679931641
0,424380,-6.502492427825928,-4.355373382568359,2.4742441177368164,17.720130920410156
0,424381,16.442983627319336,15.84337329864502,2.8275017738342285,5.737144470214844
0,424384,-12.769211769104004,4.080136775970459,3.0714473724365234,-29.04191780090332
0,424385,-12.248406410217285,-7.6433796882629395,2.2709879875183105,-24.36808204650879
0,424388,20.07741355895996,1.8895891904830933,-2.5626893043518066,36.65652084350586
0,424389,7.700979709625244,7.133606910705566,6.518308162689209,33.44483947753906
0,424392,-24.911767959594727,-3.0534896850585938,-2.5815014839172363,-29.810550689697266
0,424393,-7.641073703765869,-11.091785430908203,-11.392054557800293,0.8280389904975891
0,424396,18.779085159301758,-3.306736946105957,16.032196044921875,0.8028695583343506
0,424397,7.780908584594727,1.7052552700042725,15.872790336608887,-24.12466049194336
0,424400,-14.571076393127441,-3.481221914291382,1.8291387557983398,18.361085891723633
0,424402,-5.201852798461914,9.678030967712402,-9.2067289352417,9.458333015441895
0,424404,17.651445388793945,9.469574928283691,-28.88654899597168,-16.39142417907715
0,424406,17.843313217163086,-20.34881591796875,3.5738461017608643,-18.81515884399414
0,424408,-23.585582733154297,-8.481693267822266,14.022908210754395,-1.3614801168441772
0,424410,-29.886016845703125,3.885338544845581,-2.7575554847717285,39.61788558959961
0,424412,32.24013900756836,6.935072422027588,8.433282852172852,12.180485725402832
0,424414,10.112676620483398,-2.328927516937256,1.1159420013427734,-43.99303436279297
0,424416,-26.029870986938477,-13.842151641845703,2.147904634475708,-17.159921646118164
0,424418,6.575716018676758,-4.4041056632995605,-4.1847405433654785,27.673799514770508
0,424420,8.554091453552246,21.173646926879883,7.2592010498046875,49.7872428894043
0,424422,1.9922277927398682,29.386695861816406,6.835842609405518,-14.456238746643066
0,424424,8.834089279174805,-12.925752639770508,-17.877777099609375,-39.114036560058594
0,424426,5.318542003631592,-25.082040786743164,9.984611511230469,8.91164779663086
0,424428,-10.104522705078125,8.57363224029541,-7.161340236663818,-6.174862384796143
0,424430,-5.3897223472595215,6.927483081817627,-14.681801795959473,18.277751922607422
1,424653,-10.893239974975586,-3.396883249282837,3.9718868732452393,-5.661518096923828
1,424654,-5.806754112243652,18.268579483032227,8.422141075134277,-31.255359649658203
1,424655,30.617271423339844,-13.317398071289062,11.04765796661377,10.638025283813477
1,424658,-16.3199520111084,-20.54920196533203,-13.50947380065918,25.776020050048828
1,424659,-19.681913375854492,6.09852409362793,0.17809179425239563,4.889619827270508
1,424662,31.401411056518555,8.257791519165039,8.894060134887695,-15.304787635803223
1,424663,-12.93325424194336,-11.42383098602295,-0.7955858111381531,1.5346876382827759
1,424666,-17.95361328125,-13.489026069641113,-22.15744972229004,15.521282196044922
1,424667,13.001690864562988,20.164724349975586,-14.42589282989502,10.466933250427246
1,424670,18.084383010864258,21.913055419921875,50.723209381103516,-16.929035186767578
1,424671,10.265941619873047,-2.6609671115875244,4.3759236335754395,-9.74779224395752
1,424674,-18.07155418395996,-22.840322494506836,-50.623016357421875,-36.491844177246094
1,424675,-10.751686096191406,15.609463691711426,23.33393669128418,7.293966293334961
1,424678,-4.145461082458496,9.490010261535645,38.50759506225586,58.81873321533203
