Aktueller Finger,timestamp_ms,sensor_0,sensor_1,sensor_2,sensor_3
0,698509,8.952996253967285,24.721492767333984,32.32549285888672,35.815731048583984
0,698510,50.380653381347656,52.295326232910156,29.303668975830078,-0.6587018370628357
0,698513,26.4405460357666,-18.71344566345215,-20.600872039794922,-36.15132141113281
0,698514,-25.408935546875,-58.455806732177734,-30.57360076904297,-6.996510028839111
0,698517,-12.077434539794922,41.24692916870117,10.16336727142334,17.621618270874023
0,698518,-9.875247955322266,42.92736053466797,37.727272033691406,5.141711235046387
0,698521,20.627729415893555,-62.22499084472656,-56.43995666503906,-28.963001251220703
0,698529,-35.527183532714844,-14.087977409362793,-10.942639350891113,-8.56572437286377
0,698529,-53.82886505126953,1.0003352165222168,77.77482604980469,10.4048490524292
0,698529,40.03331756591797,-13.660284996032715,-38.90511703491211,-11.5460844039917
0,698529,5.977174758911133,12.485036849975586,-66.60049438476562,-32.11017990112305
0,698531,-26.720617294311523,-27.25971031188965,6.92473030090332,-3.922840118408203
0,698533,-107.76992797851562,-105.93638610839844,-45.8829460144043,-15.648366928100586
0,698535,-77.60338592529297,-53.26371383666992,73.13333892822266,19.76031494140625
0,698537,194.872314453125,158.5589141845703,115.56716918945312,57.41191101074219
0,698539,105.9049301147461,103.87837219238281,-126.74480438232422,-36.82819747924805
0,698541,-84.3231430053711,-51.70132064819336,-26.43049430847168,-4.947169780731201
0,698543,-10.705215454101562,-23.355579376220703,56.66587448120117,37.052494049072266
0,698545,15.851799964904785,17.616256713867188,-13.07317066192627,-13.50704288482666
0,698547,1.7558246850967407,29.553647994995117,7.418668746948242,-11.345806121826172
0,698549,-3.9058775901794434,-31.928709030151367,-7.872124671936035,-2.822160005569458
0,698551,-13.856234550476074,-71.29141998291016,13.024908065795898,-16.796010971069336
0,698552,-20.738723754882812,-32.46966552734375,-15.045620918273926,-19.92806053161621
0,698574,30.539413452148438,80.1439437866211,-22.69247817993164,11.36123275756836
0,698574,30.474714279174805,72.53787994384766,40.673187255859375,66.79182434082031
0,698575,-48.74277114868164,-77.79560089111328,-1.175567626953125,7.941674709320068
0,698575,-9.67551326751709,-31.037214279174805,-41.86475372314453,-56.89861297607422
0,698575,14.647834777832031,45.140010833740234,5.223148822784424,-6.627634048461914
0,698575,-8.346935272216797,-2.491854429244995,6.219178199768066,26.56912612915039
0,698575,7.541579723358154,-35.593772888183594,8.666923522949219,16.273021697998047
0,698575,16.726673126220703,26.36797523498535,35.97141647338867,-12.031933784484863
0,698576,28.210020065307617,73.8945083618164,2.983513832092285,-23.515615463256836
0,698576,-31.176843643188477,-25.56593894958496,-36.55103302001953,17.71675682067871
0,698576,-44.1525993347168,-58.67628860473633,-17.687074661254883,31.652732849121094
0,698577,30.793521881103516,17.263202667236328,19.419958114624023,-30.021343231201172
0,698579,-14.780322074890137,-3.6469268798828125,30.451946258544922,-42.42375183105469
0,698581,-33.17720413208008,-47.57815933227539,-33.16079330444336,-16.605445861816406
0,698583,42.853214263916016,8.742918968200684,-18.06034278869629,20.73583984375
0,698585,12.856897354125977,29.91990852355957,54.55120086669922,45.341129302978516
0,698587,-21.46759796142578,-15.305970191955566,-17.07901382446289,-2.1280834674835205
0,698589,11.164192199707031,29.5730037689209,-15.092192649841309,-1.8761729001998901
0,698591,19.598793029785156,37.652809143066406,9.819235801696777,-12.855180740356445
0,698593,-5.909537315368652,-36.51890563964844,-29.537782669067383,-27.009294509887695
0,698595,4.990139007568359,13.599747657775879,10.502399444580078,24.48709487915039
0,698597,-4.33665657043457,-8.852163314819336,13.558588027954102,6.233217239379883
0,698599,-18.86479949951172,-49.935096740722656,-2.590421676635742,-8.394679069519043
0,698602,-1.5205316543579102,20.800710678100586,9.50629997253418,4.418243408203125
0,698636,-4.0661749839782715,13.567045211791992,-5.782995223999023,-16.909954071044922
0,698636,23.712553024291992,1.2665036916732788,-18.35260009765625,21.06966209411621
0,698637,-14.95931339263916,11.762860298156738,12.700845718383789,41.4442253112793
0,698637,-21.2502384185791,26.359159469604492,22.78823471069336,-47.1783561706543
0,698637,16.885982513427734,1.1581404209136963,-5.9599738121032715,-24.40920639038086
0,698637,21.829574584960938,-18.68744659423828,-2.097194194793701,72.81775665283203
0,698637,23.375181198120117,7.1943559646606445,-0.8144635558128357,-2.233736753463745
0,698637,-24.266632080078125,1.152724266052246,-5.135587692260742,-41.867225646972656
0,698638,-29.789766311645508,-21.566492080688477,-0.1426742523908615,36.26072692871094
0,698638,-4.690001010894775,-16.84252166748047,-1.8939120769500732,-14.605037689208984
0,698638,29.51382827758789,14.512604713439941,-0.8639037013053894,-54.53321838378906
0,698638,26.91465187072754,-5.043658256530762,4.852398872375488,21.798404693603516
0,698638,-31.68242835998535,11.024955749511719,-3.108375072479248,1.1431230306625366
0,698639,-10.765986442565918,19.3039608001709,-13.896613121032715,-20.171710968017578
0,698639,4.449943542480469,-25.67796516418457,6.816124439239502,44.13644790649414
0,698639,-6.781667232513428,1.6250606775283813,12.493496894836426,10.905765533447266
0,698639,30.984277725219727,-1.9717912673950195,-6.88066291809082,-46.912437438964844
0,698639,-20.647485733032227,-37.7750244140625,-35.09493637084961,-12.792881965637207
0,698641,-39.98115158081055,-9.330451965332031,-10.890478134155273,18.32082748413086
0,698641,41.387027740478516,-0.5861181020736694,23.558887481689453,1.0885744094848633
0,698643,-1.652724027633667,1.232289433479309,2.4952080249786377,5.563117504119873
0,698645,-38.78897476196289,33.122291564941406,6.630465507507324,15.438567161560059
0,698647,28.9219913482666,24.076921463012695,11.689861297607422,-10.729791641235352
0,698649,23.889404296875,-30.205623626708984,0.03070966713130474,-8.092503547668457
0,698651,-25.563995361328125,-27.575136184692383,10.209466934204102,9.444100379943848
0,698653,8.070398330688477,56.02979278564453,-6.820467948913574,-0.9712287187576294
0,698654,37.78425598144531,33.858638763427734,-12.962519645690918,-7.36651086807251
0,698657,-32.81062698364258,-55.580413818359375,1.2602381706237793,2.5644145011901855
0,698658,-36.64565658569336,6.963460922241211,-1.8779124021530151,-1.9806699752807617
0,698661,37.97697448730469,31.85002899169922,19.207042694091797,29.338008880615234
0,698662,3.8453476428985596,-33.43404769897461,12.543787002563477,28.621902465820312
0,698665,-19.8891658782959,-11.75757884979248,-14.386897087097168,-41.90342330932617
0,698712,30.539451599121094,-4.615170955657959,-22.515869140625,-45.71189498901367
0,698712,-22.512868881225586,-34.56406784057617,-0.558388352394104,32.235260009765625
0,698712,-32.76567077636719,14.791138648986816,4.471435546875,17.381195068359375
0,698712,18.540700912475586,44.28330993652344,-5.1620707511901855,-27.255874633789062
0,698712,3.496016025543213,2.42700457572937,6.110270977020264,35.17746353149414
0,698713,12.011638641357422,10.416777610778809,10.25097370147705,9.175016403198242
0,698713,10.475273132324219,-9.998858451843262,5.692592620849609,-13.135119438171387
0,698713,1.386014461517334,-6.366640567779541,0.7988202571868896,18.39373016357422
0,698713,13.418594360351562,35.98231887817383,8.477524757385254,-38.4903564453125
0,698713,6.196496963500977,-28.22991943359375,-18.03468894958496,-14.574383735656738
0,698713,-20.836809158325195,-33.003536224365234,3.1084203720092773,44.414337158203125
0,698714,-14.559195518493652,51.01981735229492,17.447221755981445,-12.477785110473633
0,698714,10.647600173950195,18.77796745300293,-33.015594482421875,-28.488079071044922
0,698714,26.39581298828125,-41.298095703125,8.088034629821777,-1.9503440856933594
0,698714,3.0215203762054443,4.003314971923828,5.986944198608398,10.01650333404541
0,698714,-53.42378234863281,4.301033020019531,-2.308720350265503,35.71986770629883
0,698714,-16.983421325683594,-9.090747833251953,33.36980438232422,0.07133372873067856
0,698715,29.78831672668457,12.481980323791504,-12.546863555908203,-30.03934669494629
0,698715,0.4471742808818817,-10.468769073486328,-16.690998077392578,-17.988563537597656
0,698715,0.13866129517555237,-7.7795233726501465,-21.80029296875,-0.9480978846549988
0,698715,6.559037685394287,16.103673934936523,16.109533309936523,19.870967864990234
0,698715,-1.2650856971740723,0.05799754336476326,33.7640266418457,6.715889930725098
0,698715,30.781118392944336,-7.1442155838012695,-34.550987243652344,2.6573948860168457
0,698717,0.19011327624320984,-2.0551486015319824,-5.596085548400879,-9.780542373657227
0,698717,-47.429710388183594,-18.07438850402832,30.13172149658203,7.385937690734863
0,698717,20.76348304748535,10.711101531982422,4.831892490386963,27.32547378540039
0,698718,23.868576049804688,-0.36337777972221375,-46.63266372680664,-47.852298736572266
0,698721,-37.06278991699219,-8.530438423156738,8.530152320861816,-13.313690185546875
0,698722,3.5868730545043945,14.897228240966797,39.18624496459961,37.99365997314453
0,698725,16.49243927001953,-11.5722017288208,-47.383453369140625,-10.780536651611328
0,698727,-14.288005828857422,0.9145669937133789,0.08075185865163803,-0.5816752910614014
0,698729,-7.060976982116699,3.8891518115997314,28.09345245361328,-6.531251907348633
0,698731,-0.5580771565437317,2.988957405090332,-27.960718154907227,-0.9735087156295776
0,698733,17.71463966369629,-7.993662357330322,-22.234512329101562,-20.53369140625
0,698735,-0.7864841222763062,-4.5585222244262695,23.17852783203125,-32.8005485534668
0,698737,-21.19944190979004,18.42984962463379,47.174774169921875,55.849971771240234
0,698739,4.690530776977539,-3.479233980178833,5.621012210845947,4.38724422454834
0,698741,9.544025421142578,19.6929874420166,-49.328243255615234,-21.281356811523438
0,698743,19.476076126098633,-8.83516788482666,-24.504493713378906,44.1598014831543
0,698745,-1.1226626634597778,-20.335735321044922,41.47065353393555,-16.981775283813477
0,698747,-22.657697677612305,23.06437873840332,15.581291198730469,24.911630630493164
0,698806,2.1793251037597656,5.724234104156494,-20.322317123413086,4.572060585021973
0,698806,6.067543983459473,6.421638488769531,14.415456771850586,-73.87366485595703
0,698807,2.461496353149414,-0.7863420844078064,1.8877848386764526,20.52410316467285
0,698807,0.8283809423446655,-0.11938907206058502,-17.589351654052734,23.94184684753418
0,698807,10.144163131713867,-8.67487621307373,-5.072981357574463,-7.851753234863281
0,698807,-25.48116111755371,-27.60507583618164,-8.818872451782227,0.41388338804244995
0,698807,-27.052053451538086,17.010982513427734,4.138798713684082,-14.188482284545898
0,698807,33.88380813598633,20.311264038085938,22.469213485717773,11.610601425170898
0,698808,23.803241729736328,-25.120168685913086,7.457564830780029,-0.026712585240602493
0,698808,-7.378609657287598,-2.961660146713257,-16.76500129699707,-9.756953239440918
0,698808,-21.19424819946289,2.337890148162842,-5.890386581420898,28.1640625
0,698808,-23.901975631713867,-23.385156631469727,0.324149489402771,5.868170261383057
0,698808,6.715169429779053,-3.324396848678589,20.397581100463867,5.35786771774292
0,698808,41.24656677246094,17.2320556640625,-6.407254695892334,6.251913547515869
0,698809,14.62279224395752,11.602829933166504,-19.06661033630371,-31.64909553527832
0,698809,-29.104297637939453,-12.775513648986816,17.24405288696289,22.420578002929688
0,698809,-6.916141986846924,-5.469801902770996,-5.755704879760742,25.75507926940918
0,698809,23.968353271484375,6.930941104888916,-6.718241214752197,-35.351844787597656
0,698809,-10.25119400024414,-22.398162841796875,-3.067039966583252,-1.0941721200942993
0,698809,-3.699979066848755,-5.248154640197754,4.589240074157715,5.590376377105713
0,698810,7.750580787658691,31.787565231323242,17.34092140197754,9.149408340454102
0,698810,-33.97111511230469,-14.113075256347656,10.696901321411133,28.687541961669922
0,698810,15.9691743850708,-9.81224250793457,-5.465776443481445,-23.47598648071289
0,698810,36.49113464355469,32.01786804199219,-16.99553871154785,-12.401365280151367
0,698810,-27.898778915405273,-7.458542346954346,-6.990499973297119,16.66121482849121
0,698810,-17.29084587097168,-17.889827728271484,14.288311004638672,-7.845669269561768
0,698811,17.448545455932617,3.6044862270355225,16.293962478637695,-9.485906600952148
0,698811,1.5539767742156982,-1.2922390699386597,-20.702842712402344,-15.870100975036621
0,698811,-7.641153812408447,-1.4396623373031616,-9.792027473449707,-4.872493267059326
0,698811,-7.355177879333496,-7.86437463760376,13.511457443237305,9.659185409545898
0,698812,-8.877025604248047,-22.666488647460938,-10.308233261108398,-44.431636810302734
0,698813,6.208646297454834,12.30640697479248,-28.002029418945312,-70.9395980834961
0,698813,1.0113650560379028,4.57738733291626,-17.307331085205078,14.285295486450195
0,698814,3.1208229064941406,27.539165496826172,41.02730941772461,59.166255950927734
0,698817,16.8248291015625,109.48297119140625,70.98262786865234,50.63119888305664
0,698818,15.610257148742676,15.161876678466797,-17.135433197021484,15.15241527557373
0,698821,4.206896781921387,-62.93968200683594,-28.78110694885254,-50.884666442871094
0,698822,-25.25627899169922,-20.827177047729492,16.69321060180664,0.14188453555107117
0,698825,-17.395193099975586,23.703954696655273,-29.775959014892578,18.682640075683594
0,698826,1.357613444328308,13.984964370727539,-26.617286682128906,-72.62589263916016
0,698829,29.243730545043945,-56.10814666748047,-31.02880859375,4.109287261962891
0,698830,-2.1047728061676025,-37.83900451660156,-1.7035040855407715,133.44769287109375
0,698833,-51.788330078125,18.782978057861328,83.30996704101562,52.53213882446289
0,698834,28.547441482543945,-16.69872283935547,10.79020881652832,-78.6408462524414
0,698837,23.126575469970703,-39.05390167236328,-36.122100830078125,-43.083953857421875
0,698838,-16.953765869140625,20.757978439331055,12.818650245666504,20.03493881225586
0,698841,-5.545121669769287,9.353118896484375,-21.045883178710938,-18.27406883239746
0,698842,-22.868207931518555,0.8086026310920715,-17.99012565612793,-9.001707077026367
0,698845,75.29155731201172,35.63007736206055,28.104875564575195,34.90458297729492
0,698917,51.435001373291016,11.701125144958496,38.249122619628906,11.470562934875488
0,698917,-83.945068359375,4.552951335906982,1.1178094148635864,-38.597232818603516
0,698917,-8.860638618469238,1.3998206853866577,-34.52174758911133,-12.693328857421875
0,698918,14.305044174194336,-34.52236557006836,-20.163442611694336,17.484010696411133
0,698918,-15.128067016601562,-14.405699729919434,-3.839560031890869,2.1563305854797363
0,698918,14.190680503845215,35.015438079833984,14.704455375671387,-14.244035720825195
0,698918,23.180118560791016,-30.88653564453125,-16.81650161743164,-26.60051155090332
0,698918,-4.608386516571045,-36.786376953125,-18.19057846069336,10.538172721862793
0,698918,-56.776485443115234,58.20963668823242,38.850059509277344,37.55228805541992
0,698919,18.66845703125,20.697689056396484,12.396886825561523,-4.045511245727539
0,698919,42.00130844116211,-42.41462707519531,-18.731412887573242,-10.654341697692871
0,698919,-18.307268142700195,3.186309337615967,20.560632705688477,20.933801651000977
0,698919,-2.647397994995117,51.483123779296875,10.786128997802734,-12.220483779907227
0,698919,19.770584106445312,-12.001778602600098,-34.78666305541992,-24.406869888305664
0,698919,11.048561096191406,-46.27812194824219,-5.261771202087402,6.487670421600342
0,698920,-34.98050308227539,20.279876708984375,18.385709762573242,23.778085708618164
0,698920,3.2001309394836426,28.953386306762695,-13.648216247558594,4.370981216430664
0,698920,41.15629577636719,-14.045515060424805,1.7599526643753052,-31.749757766723633
0,698920,-44.387142181396484,-22.599842071533203,19.475839614868164,17.03931427001953
0,698920,-52.21365737915039,17.72811508178711,10.198333740234375,41.275211334228516
0,698921,32.30387496948242,17.104944229125977,1.071605920791626,-4.32773494720459
0,698921,30.14537811279297,-2.2958624362945557,-32.27861022949219,-12.775550842285156
0,698921,-45.8938102722168,3.729262113571167,-3.755690813064575,10.25310230255127
0,698921,-32.218910217285156,-11.26032543182373,35.86058044433594,7.6816325187683105
0,698921,16.3765869140625,-4.293187141418457,-8.34864616394043,-27.544700622558594
0,698921,-15.265508651733398,-11.599039077758789,-46.86478805541992,-14.813937187194824
0,698922,-27.649024963378906,-2.05049729347229,-14.215869903564453,-3.6278398036956787
0,698922,10.332849502563477,10.3828706741333,21.631664276123047,-7.178475379943848
0,698922,18.801137924194336,-25.48920440673828,25.407243728637695,23.94630241394043
0,698922,-2.08105206489563,-8.110610961914062,27.30016326904297,-7.570423603057861
0,698922,30.42147445678711,30.185686111450195,-33.557350158691406,-21.424375534057617
0,698922,33.354732513427734,-1.2887119054794312,-31.314979553222656,19.25223159790039
0,698923,-35.61043930053711,-26.43831443786621,53.72478485107422,3.2569210529327393
0,698923,0.4769677519798279,34.53666305541992,22.80218505859375,-10.233294486999512
0,698923,49.43684768676758,19.561304092407227,-36.11582565307617,-13.730658531188965
0,698923,-10.7046480178833,-47.16569900512695,-36.17082977294922,-3.3240253925323486
0,698924,-28.652833938598633,29.219409942626953,-2.5236005783081055,7.8538408279418945
0,698925,-2.9686927795410156,11.883023262023926,33.31632614135742,6.494781494140625
0,698925,42.69475173950195,-32.554786682128906,9.395045280456543,32.3315544128418
0,698925,26.311140060424805,47.70232009887695,5.133433818817139,21.689096450805664
0,698926,-40.75650405883789,-12.686080932617188,-2.22735595703125,-38.60197448730469
0,698929,1.5559545755386353,-103.08540344238281,-50.09451675415039,-17.779325485229492
0,698930,-0.7803126573562622,-22.018531799316406,-10.783719062805176,2.7814197540283203
0,698933,-21.555713653564453,77.70022583007812,28.789615631103516,-14.650426864624023
0,698934,-13.538248062133789,32.0188102722168,7.600546836853027,36.19245910644531
0,698937,16.627492904663086,9.723481178283691,34.463043212890625,16.65937042236328
0,698938,42.8109245300293,2.3277716636657715,38.09589767456055,-26.602619171142578
0,698941,-6.937503814697266,-34.941162109375,-40.77324676513672,-19.844324111938477
0,698942,25.064634323120117,-10.380121231079102,-24.68631362915039,15.19320011138916
0,698945,-31.12786102294922,35.84629821777344,33.15578079223633,35.63590621948242
0,698946,-76.77104949951172,68.31280517578125,-4.084404945373535,-32.22980499267578
0,698949,55.02347946166992,13.707707405090332,-33.89042282104492,-63.475032806396484
0,698950,40.94424819946289,-62.95034408569336,-14.832984924316406,34.99149703979492
0,698953,-52.750362396240234,-111.98339080810547,13.712727546691895,61.64198303222656
0,698954,-20.857749938964844,-52.12016677856445,-13.55750560760498,-61.21137619018555
0,698957,66.69007873535156,127.96053314208984,7.789295196533203,4.057376861572266
0,698958,13.047196388244629,80.93041229248047,59.49744415283203,76.86532592773438
0,699043,-60.22871017456055,-86.48468780517578,-21.8137264251709,-41.06285858154297
0,699044,5.240936279296875,-37.111297607421875,-47.113704681396484,-24.859683990478516
0,699044,-0.1701376885175705,26.45790672302246,28.577838897705078,25.619998931884766
0,699044,-24.25408935546875,21.256450653076172,36.490962982177734,-3.8765883445739746
0,699044,37.489471435546875,18.823638916015625,-2.121466875076294,0.23364901542663574
0,699044,17.21471405029297,20.993316650390625,-13.635303497314453,-7.847377300262451
0,699044,-48.75545883178711,-1.6448768377304077,0.9799752831459045,-0.10101347416639328
0,699045,12.311301231384277,-14.685338973999023,-10.558398246765137,16.403345108032227
0,699045,35.6593132019043,9.187703132629395,-28.743087768554688,-29.05742073059082
0,699045,-40.19688415527344,-26.078895568847656,-3.2829129695892334,-17.214550018310547
0,699045,-0.4383651614189148,-25.631778717041016,-1.7162423133850098,9.300150871276855
0,699045,43.0499153137207,-9.930418968200684,-19.43600082397461,-17.155832290649414
0,699045,-30.639068603515625,-30.681791305541992,7.074135780334473,12.95608139038086
0,699046,-18.524648666381836,12.37584114074707,15.171772003173828,40.05363464355469
0,699046,29.89232635498047,48.791358947753906,11.864052772521973,17.63054847717285
0,699046,-4.308077812194824,26.776885986328125,12.39737606048584,-4.842432498931885
0,699046,6.391480445861816,-16.50142478942871,-2.488748550415039,-26.850011825561523
0,699046,13.074250221252441,-23.310440063476562,0.6467186212539673,0.3966747224330902
0,699046,-18.356483459472656,16.03676986694336,11.456361770629883,14.671802520751953
0,699047,-5.732462406158447,-5.91816520690918,-20.67494010925293,-28.90609359741211
0,699047,-1.4566770792007446,-14.92495346069336,-22.59748077392578,-5.783686637878418
0,699047,-15.90884017944336,26.496877670288086,23.103248596191406,2.257327079772949
0,699047,20.795684814453125,-2.12451434135437,1.9880908727645874,-11.109992980957031
0,699047,13.788808822631836,-20.1947021484375,-15.292327880859375,22.176891326904297
0,699048,-28.181631088256836,5.798480987548828,2.6365480422973633,13.538471221923828
0,699048,2.762669086456299,25.32645606994629,19.866065979003906,-5.48029899597168
0,699048,37.7599983215332,6.914221286773682,-4.076975345611572,-8.084138870239258
0,699048,3.6388936042785645,-46.953216552734375,-4.519498348236084,7.684669494628906
0,699048,-30.370248794555664,-0.7320807576179504,28.49699592590332,17.322219848632812
0,699048,5.02613639831543,50.92183303833008,-11.207054138183594,-14.557560920715332
0,699049,0.7059410214424133,-21.25192642211914,-11.123059272766113,-22.944351196289062
0,699049,-7.645683288574219,-45.530845642089844,-0.8478059768676758,8.15463638305664
0,699049,17.34423828125,18.0130672454834,-4.926002025604248,15.877596855163574
0,699049,-11.755911827087402,35.449283599853516,20.363555908203125,-15.622504234313965
0,699049,1.9400707483291626,-17.347736358642578,-3.05005145072937,-18.883831024169922
0,699049,21.679988861083984,-12.809125900268555,-39.0655632019043,-19.271434783935547
0,699050,-41.820716857910156,-8.40113353729248,-8.86190128326416,2.8337976932525635
0,699050,-42.06925582885742,-20.434398651123047,10.910268783569336,59.463165283203125
0,699050,28.820682525634766,48.920814514160156,34.957984924316406,30.425601959228516
0,699050,56.340972900390625,19.242353439331055,14.528739929199219,-22.324527740478516
0,699050,5.180566787719727,-19.211252212524414,-44.86398696899414,-6.679602146148682
0,699050,-14.395444869995117,-1.4343793392181396,23.90761375427246,0.6150391697883606
0,699052,11.606537818908691,-28.430957794189453,20.961048126220703,-23.719650268554688
0,699052,2.250774383544922,-0.6704677939414978,-32.27442932128906,6.477900981903076
0,699052,-17.4217529296875,16.85972023010254,15.81698226928711,33.95023727416992
0,699052,21.892574310302734,13.317073822021484,26.312475204467773,-13.65878677368164
0,699054,14.093667984008789,34.8123779296875,-19.991151809692383,-32.92070007324219
0,699055,-113.67802429199219,-14.06549072265625,-25.38912582397461,18.12247085571289
0,699056,-32.855064392089844,-32.48381042480469,9.717985153198242,18.615819931030273
0,699059,88.59781646728516,-24.079505920410156,-19.953542709350586,-37.21877670288086
0,699060,-8.823060989379883,-33.476463317871094,-30.49525260925293,-23.276079177856445
0,699063,-24.119691848754883,60.42546081542969,16.399282455444336,-12.468783378601074
0,699064,42.362491607666016,55.30436325073242,24.253263473510742,17.162656784057617
0,699067,5.568821430206299,-34.725486755371094,18.5579776763916,58.44357681274414
0,699068,-47.636287689208984,-15.114554405212402,-6.867376804351807,-6.04332971572876
0,699071,27.730527877807617,0.1822584569454193,-7.932871341705322,-43.41942596435547
0,699072,51.33139419555664,12.63177490234375,26.206724166870117,13.07817554473877
0,699075,18.207101821899414,33.54745101928711,26.601465225219727,31.524940490722656
0,699076,6.5616631507873535,-31.634157180786133,-33.27097702026367,-30.461620330810547
0,699079,-80.6589126586914,-72.17765808105469,-31.56572151184082,-21.00602912902832
0,699080,-29.5164852142334,0.8212398290634155,6.5072245597839355,4.83789587020874
0,699083,48.130027770996094,62.96509552001953,-8.652694702148438,39.04661560058594
0,699084,13.745285987854004,35.733097076416016,42.43817138671875,46.957942962646484
0,699087,-13.334511756896973,-14.004308700561523,23.163597106933594,-83.91905212402344
0,699183,-3.7919223308563232,-41.77899169921875,-58.20209503173828,-34.384708404541016
0,699183,6.099519729614258,-19.993637084960938,-34.21243667602539,80.1771469116211
0,699183,-17.833240509033203,42.98964309692383,21.812850952148438,1.20944344997406
0,699183,-1.2465355396270752,6.043121337890625,32.97096252441406,-23.980480194091797
0,699184,43.01398468017578,-9.780265808105469,11.507654190063477,0.43563488125801086
0,699184,17.509450912475586,23.967981338500977,-10.425958633422852,-8.181276321411133
0,699184,-38.07807159423828,-25.485322952270508,-7.547552108764648,1.0367848873138428
0,699184,-19.292539596557617,-42.88822555541992,7.459713935852051,1.4831801652908325
0,699184,-0.35657384991645813,9.963671684265137,5.6794257164001465,12.98812484741211
0,699184,6.771704196929932,34.230506896972656,-17.4992733001709,10.49210262298584
0,699185,4.751727104187012,-2.3297219276428223,-23.04142951965332,-24.2192325592041
0,699185,-27.557289123535156,-35.845455169677734,15.831968307495117,-9.634971618652344
0,699185,-0.8747122883796692,-0.9383959770202637,17.64691925048828,-5.257010459899902
0,699185,54.064231872558594,30.936119079589844,-15.053165435791016,-9.917512893676758
0,699185,7.699260711669922,9.522080421447754,-15.257187843322754,27.99518394470215
0,699186,-40.86433410644531,-9.394998550415039,8.05258846282959,11.90786075592041
0,699186,-5.071350574493408,6.531565189361572,15.864333152770996,-13.341730117797852
0,699186,12.513167381286621,-5.598625659942627,-4.223569393157959,10.18574047088623
0,699186,-10.167163848876953,-25.722856521606445,-5.060408115386963,2.6745033264160156
0,699186,19.353496551513672,47.74198913574219,11.920164108276367,-10.162145614624023
0,699186,28.311145782470703,12.475703239440918,8.696319580078125,-3.0665040016174316
0,699187,-34.38664245605469,-61.777896881103516,-10.850369453430176,-6.252580165863037
0,699187,-14.490242958068848,23.672269821166992,8.937313079833984,10.4498929977417
0,699187,10.278922080993652,39.942115783691406,24.311737060546875,-16.220319747924805
0,699187,-3.505729913711548,-36.86005401611328,-31.650421142578125,-7.876383304595947
0,699187,5.271980285644531,-28.42259979248047,-7.693628787994385,33.66345977783203
0,699187,2.286839485168457,29.47856330871582,14.029422760009766,-17.492616653442383
0,699188,-12.534449577331543,27.425996780395508,-18.225669860839844,-12.355441093444824
0,699188,-6.683185577392578,-32.61631393432617,-3.419278383255005,10.148344993591309
0,699188,4.4101762771606445,-41.01762771606445,11.191160202026367,-14.999486923217773
0,699188,-4.784356594085693,13.319393157958984,14.25560188293457,35.140872955322266
0,699188,7.2590436935424805,30.461437225341797,-8.640356063842773,29.211627960205078
0,699188,-4.169610500335693,0.47771894931793213,-9.930184364318848,-31.180574417114258
0,699189,-12.010594367980957,1.4536644220352173,10.61121654510498,9.968832015991211
0,699189,37.51865005493164,25.276498794555664,14.28093433380127,4.831132411956787
0,699189,1.6460316181182861,-21.7590274810791,-41.36473083496094,-49.09259033203125
0,699189,-57.18570327758789,-29.162090301513672,-17.628765106201172,1.3566651344299316
0,699189,24.65386199951172,42.485225677490234,59.881675720214844,38.60618591308594
0,699189,56.226661682128906,16.723005294799805,-4.326056957244873,-0.4527914822101593
0,699190,-20.31438446044922,-31.064016342163086,-10.12404727935791,-3.8987584114074707
0,699190,4.257598876953125,8.289971351623535,8.489797592163086,0.21558526158332825
0,699190,44.47562789916992,24.821409225463867,-27.550647735595703,4.386941909790039
0,699190,-34.83894348144531,-53.370094299316406,13.66242790222168,-6.663704872131348
0,699190,-40.47992706298828,-30.890174865722656,11.147361755371094,-20.20111656188965
0,699190,31.686349868774414,56.77669906616211,-25.43986701965332,10.491425514221191
0,699191,12.778220176696777,-3.0736801624298096,7.174254417419434,-1.4485936164855957
0,699191,-15.315143585205078,-18.15603256225586,0.47288408875465393,3.236243963241577
0,699191,-39.67718505859375,14.222726821899414,-11.567631721496582,25.174177169799805
0,699192,-63.03799819946289,-28.12831687927246,36.21932601928711,-20.738557815551758
0,699192,46.735633850097656,16.165380477905273,-30.270545959472656,-20.90812110900879
0,699193,63.1487922668457,51.777339935302734,-36.942840576171875,28.142318725585938
0,699193,-43.18495559692383,-39.214874267578125,64.6285400390625,-9.615013122558594
0,699193,-14.74465274810791,-36.66127014160156,-13.385931968688965,-33.553321838378906
0,699194,34.18280029296875,41.33763122558594,-37.05263900756836,17.57936668395996
0,699197,94.14286804199219,-6.277642726898193,33.340858459472656,-5.243114948272705
0,699198,-11.6718168258667,-106.54315948486328,-25.522226333618164,-45.24380874633789
0,699201,-122.72856903076172,53.985836029052734,-7.056750297546387,52.88881301879883
0,699202,13.322456359863281,132.38926696777344,62.707115173339844,56.31199264526367
0,699205,30.06717300415039,-37.034671783447266,14.075943946838379,-51.229461669921875
0,699206,-5.917069435119629,-39.86288833618164,-29.44202423095703,-2.965930700302124
0,699209,7.420003890991211,-21.156251907348633,-40.917503356933594,29.937374114990234
0,699210,-6.675312519073486,-3.763904094696045,9.51066780090332,-0.3228822350502014
0,699213,-7.718204021453857,-2.928819417953491,42.17934799194336,-9.347675323486328
0,699214,-3.227339506149292,4.356133937835693,-14.3254976272583,-29.411672592163086
0,699217,1.0284323692321777,53.761383056640625,-29.982194900512695,13.084486961364746
0,699218,-5.079768657684326,24.213911056518555,22.45484161376953,24.938385009765625
0,699221,-7.969966888427734,-12.348636627197266,61.05805969238281,-15.4116849899292
0,699222,19.010522842407227,-68.87171936035156,-13.120994567871094,-9.548624038696289
0,699225,5.203516483306885,-41.001792907714844,-109.78507995605469,-43.88983154296875
0,699226,-1.5995007753372192,39.73808670043945,-30.27058219909668,25.44116973876953
0,699229,52.3116455078125,24.363792419433594,97.8041000366211,65.31948852539062
0,699335,-19.556703567504883,-14.629854202270508,14.66541576385498,-31.423227310180664
0,699335,-79.48231506347656,-17.843616485595703,-48.717437744140625,6.577370643615723
0,699336,14.814931869506836,32.16325759887695,42.00524139404297,-6.060326099395752
0,699336,50.64222717285156,15.098311424255371,4.8513102531433105,-23.805463790893555
0,699336,-9.642695426940918,-27.757444381713867,-37.18524169921875,16.30527114868164
0,699336,-23.282270431518555,9.604646682739258,17.108949661254883,9.037257194519043
0,699336,29.58000373840332,10.161017417907715,4.959273338317871,11.125170707702637
0,699337,18.371849060058594,3.0529348850250244,2.0058796405792236,-21.75291633605957
0,699337,-27.000415802001953,-0.6490660905838013,17.586177825927734,-4.854862213134766
0,699337,-3.133115291595459,-13.57625675201416,-12.389451026916504,-19.48778533935547
0,699337,-16.237741470336914,3.496568441390991,-29.608379364013672,-36.84452438354492
0,699337,-25.227563858032227,18.895360946655273,16.640037536621094,51.00874328613281
0,699337,47.172428131103516,14.356449127197266,26.25814437866211,46.954368591308594
0,699337,19.939041137695312,-31.54355812072754,-24.949434280395508,-22.685745239257812
0,699338,-47.759986877441406,-17.93088150024414,-5.529922008514404,-32.47442626953125
0,699338,20.728513717651367,37.866695404052734,20.419078826904297,7.113168239593506
0,699338,41.77326202392578,2.264420747756958,-8.858148574829102,4.032675266265869
0,699338,-23.007349014282227,-36.6251335144043,-22.648643493652344,-7.892587661743164
0,699338,-30.050521850585938,-2.429457187652588,-8.752938270568848,21.16059112548828
0,699339,0.7100017666816711,34.737979888916016,3.812649726867676,-24.465293884277344
0,699339,15.695490837097168,0.6013636589050293,15.694150924682617,-12.997739791870117
0,699339,-25.66218376159668,-26.475448608398438,20.638042449951172,55.36331558227539
0,699339,-17.274925231933594,9.890885353088379,-12.771611213684082,-6.64205265045166
0,699339,46.2003059387207,-8.438567161560059,-29.269075393676758,-36.98422622680664
0,699339,10.479796409606934,-36.17760467529297,16.74466323852539,29.281251907348633
0,699340,-26.3853702545166,30.96547508239746,25.984926223754883,21.64188003540039
0,699340,7.743555068969727,43.20977783203125,-25.06894302368164,-36.62955856323242
0,699340,6.214359760284424,-20.611326217651367,-12.342161178588867,-24.336334228515625
0,699340,-8.566618919372559,-25.961624145507812,9.942217826843262,21.08538246154785
0,699340,6.747090816497803,4.257449626922607,18.365222930908203,4.960583209991455
0,699340,6.965602397918701,4.531100749969482,19.886335372924805,-0.7620359063148499
0,699341,-10.521049499511719,-1.2244200706481934,-11.794759750366211,-6.586184024810791
0,699341,-15.525031089782715,13.96314525604248,-5.297512054443359,-19.06430435180664
0,699341,7.399550914764404,1.9082280397415161,-4.548498153686523,25.111053466796875
0,699341,23.381549835205078,-9.132841110229492,-5.034757137298584,10.717565536499023
0,699341,-8.396453857421875,4.608611106872559,-10.328766822814941,-12.408626556396484
0,699342,-17.058029174804688,-17.03900718688965,-19.54387855529785,6.471754550933838
0,699342,0.18515294790267944,-0.6473217606544495,17.742538452148438,17.233318328857422
0,699342,-4.114087104797363,28.223852157592773,26.95467758178711,-5.309807777404785
0,699342,5.467711925506592,-0.42089954018592834,0.9548115134239197,-7.870105743408203
0,699342,12.892481803894043,-15.783044815063477,-10.51166820526123,3.097632646560669
0,699342,-2.7151215076446533,2.4305598735809326,0.2497679591178894,-31.034324645996094
0,699343,-31.618398666381836,-7.708744049072266,-23.294246673583984,-11.849596977233887
0,699343,21.50418472290039,-11.618192672729492,-47.60895919799805,4.0000176429748535
0,699343,49.28771209716797,5.497415542602539,39.55320358276367,41.240169525146484
0,699343,-56.677547454833984,19.431354522705078,75.31640625,40.884071350097656
0,699343,1.4583640098571777,-1.198172926902771,-7.350185394287109,-56.254547119140625
0,699343,50.57133102416992,-12.887718200683594,-28.376123428344727,5.3477702140808105
0,699344,-17.91086769104004,36.73457717895508,-27.912525177001953,39.7073860168457
0,699344,-20.347320556640625,-22.09157943725586,-11.972294807434082,-49.12230682373047
0,699344,-5.835234642028809,-9.181791305541992,35.673545837402344,1.150506854057312
0,699344,27.9990234375,44.08514404296875,-5.329710006713867,42.660953521728516
0,699344,-17.88520622253418,-53.54014205932617,-55.30592346191406,-17.639822006225586
0,699346,-22.48834228515625,-18.9401912689209,13.133490562438965,-26.1569881439209
0,699346,11.365957260131836,59.7531623840332,81.02455139160156,23.083553314208984
0,699346,0.3781707286834717,-5.244983196258545,-11.654534339904785,-11.625298500061035
0,699346,0.38585731387138367,-37.68388748168945,-40.51641082763672,-21.054325103759766
0,699346,-0.4660848081111908,3.6552131175994873,0.5336194038391113,17.97410774230957
0,699348,-1.934787631034851,21.420948028564453,-14.109577178955078,-26.715232849121094
0,699349,-9.187335968017578,-27.226221084594727,9.829529762268066,-8.306265830993652
0,699350,17.456350326538086,-58.49818801879883,10.08811092376709,38.24844741821289
0,699353,-10.30816650390625,1.5647035837173462,4.313114643096924,-6.151854038238525
0,699354,-22.180343627929688,58.79618453979492,1.197594165802002,-21.819164276123047
0,699357,44.81304168701172,42.09297561645508,-2.243252992630005,-3.6684458255767822
0,699358,19.36334800720215,6.702520370483398,2.5346527099609375,-3.8943772315979004
0,699361,-25.960222244262695,-31.020170211791992,2.17143177986145,30.96524429321289
0,699362,-18.273170471191406,-39.800418853759766,-16.36528968811035,-6.615668296813965
0,699365,-7.08672571182251,14.971320152282715,-5.5387396812438965,-5.435816287994385
0,699366,17.14900016784668,29.674171447753906,30.571582794189453,57.853275299072266
0,699369,18.381315231323242,6.242736339569092,-0.5240165591239929,-21.052169799804688
0,699370,-7.071906089782715,0.08399675786495209,-6.049932956695557,-36.11491775512695
0,699373,-2.292357921600342,-0.8641886711120605,-6.918553829193115,22.937402725219727
0,699374,3.641070604324341,18.548851013183594,6.875861167907715,21.400146484375
0,699377,-16.593374252319336,-18.214027404785156,12.10608959197998,-3.806346893310547
0,699378,4.998127460479736,-51.603553771972656,-33.047142028808594,-19.240108489990234
0,699381,5.68992805480957,22.513837814331055,-3.035072088241577,10.671967506408691
0,699382,-19.3728084564209,2.804800271987915,-9.464842796325684,-4.369386196136475
0,699385,7.100961208343506,-28.696807861328125,-6.105063438415527,-29.624753952026367
0,699386,30.584230422973633,51.9348258972168,42.317745208740234,5.707161903381348
0,699504,-16.624675750732422,8.654460906982422,-9.500627517700195,-19.822246551513672
0,699504,-29.968589782714844,-31.205358505249023,-0.06641781330108643,-14.591588973999023
0,699504,28.292861938476562,28.547996520996094,18.9907169342041,45.53425598144531
0,699505,21.032087326049805,-7.567735195159912,-37.59601593017578,-17.735137939453125
0,699505,-20.302398681640625,-27.798978805541992,4.997100353240967,-25.4565372467041
0,699505,-33.279232025146484,11.276069641113281,22.764453887939453,31.5129451751709
0,699505,4.860911846160889,15.362920761108398,-4.270103454589844,16.502330780029297
0,699505,29.750877380371094,13.36526870727539,8.897695541381836,-15.34695053100586
0,699505,3.9434690475463867,-0.35768118500709534,-5.7232584953308105,-13.048722267150879
0,699506,-5.650323390960693,-21.42803382873535,-20.44546127319336,33.141883850097656
0,699506,-12.784806251525879,-33.777000427246094,-10.847240447998047,30.913429260253906
0,699506,-8.614476203918457,16.274198532104492,35.091426849365234,-20.682653427124023
0,699506,14.02077579498291,43.251548767089844,20.256668090820312,-19.43845558166504
0,699506,18.71540641784668,-18.972766876220703,-43.7491455078125,6.321412563323975
0,699506,0.9563535451889038,-33.63574981689453,3.6983182430267334,-13.273923873901367
0,699507,-8.291243553161621,10.567883491516113,20.682151794433594,13.989925384521484
0,699507,-33.474647521972656,7.260805606842041,-28.147951126098633,18.999555587768555
0,699507,24.205833435058594,4.704574108123779,23.793548583984375,-25.99702262878418
0,699507,54.090335845947266,10.810094833374023,13.582334518432617,-38.73622131347656
0,699507,-40.11823272705078,-27.150930404663086,-45.180519104003906,-18.025177001953125
0,699507,-12.452888488769531,14.583992004394531,23.600326538085938,32.567405700683594
0,699508,21.96112823486328,3.4137096405029297,-15.250039100646973,19.728788375854492
0,699508,-22.095932006835938,-18.855815887451172,-72.18952941894531,-32.89491653442383
0,699508,-51.46238327026367,37.42958450317383,85.00627899169922,18.104501724243164
0,699508,11.16857624053955,-0.4676736295223236,72.89710235595703,53.867210388183594
0,699508,75.49911499023438,-30.433317184448242,-106.81737518310547,-44.03909683227539
0,699509,-11.480447769165039,2.680159568786621,11.741943359375,-4.778040885925293
0,699509,-20.183935165405273,31.02210235595703,81.29652404785156,32.951202392578125
0,699509,5.837277889251709,-10.980325698852539,-65.22433471679688,-43.335514068603516
0,699509,-34.86677551269531,-36.16933059692383,-20.396154403686523,33.696624755859375
0,699509,-5.744603157043457,13.489889144897461,53.28728485107422,40.06111145019531
0,699509,30.707815170288086,12.376668930053711,-6.2610273361206055,-67.22615051269531
0,699510,7.761004447937012,-11.216691017150879,-19.881591796875,-12.324190139770508
0,699510,-2.872342824935913,19.7264404296875,7.446063041687012,47.80311584472656
0,699510,-11.987375259399414,14.644010543823242,-20.83919334411621,-9.799347877502441
0,699510,-12.940536499023438,-26.6380558013916,-9.320939064025879,-13.191254615783691
0,699510,14.354596138000488,-13.971566200256348,8.437682151794434,8.02265453338623
0,699510,-8.458954811096191,13.84313678741455,16.127662658691406,-15.075553894042969
0,699511,9.713946342468262,20.92912483215332,30.59811019897461,-6.189571857452393
0,699511,18.96662139892578,7.856216907501221,-23.030431747436523,18.391441345214844
0,699511,-17.467472076416016,0.7871618866920471,-29.287582397460938,14.210726737976074
0,699511,-7.460431098937988,-18.92638397216797,30.266504287719727,-3.340348720550537
0,699511,-7.432873725891113,-37.59503936767578,-11.415865898132324,-28.50113296508789
0,699511,32.324127197265625,8.837837219238281,-43.598121643066406,-16.76613426208496
0,699512,12.213526725769043,16.91942596435547,32.446563720703125,5.767555236816406
0,699512,-21.3286190032959,3.559840679168701,29.722959518432617,46.00396728515625
0,699512,24.758567810058594,10.432806968688965,-5.112144470214844,9.907617568969727
0,699512,-18.99159812927246,-0.3746514320373535,16.68600082397461,-33.327911376953125
0,699512,-14.688469886779785,22.83717155456543,-22.857553482055664,20.91945457458496
0,699512,-34.18614196777344,-80.99158477783203,-35.03827667236328,-13.833390235900879
0,699513,7.190356731414795,-23.340131759643555,40.3810920715332,-8.878484725952148
0,699513,97.68678283691406,138.2867431640625,23.825254440307617,-6.592103004455566
0,699513,-38.33100128173828,0.8886792063713074,-42.15941619873047,7.958700180053711
0,699513,-53.58906936645508,-60.52775192260742,-25.630475997924805,44.85338592529297
0,699513,13.133041381835938,-22.06891632080078,45.09334945678711,-32.88700485229492
0,699513,0.3365069329738617,16.136127471923828,18.73113250732422,-23.066347122192383
0,699514,12.085225105285645,37.261566162109375,-47.751434326171875,28.07769012451172
0,699514,0.9990286827087402,-22.917497634887695,-13.890286445617676,-11.09868335723877
0,699515,3.661050796508789,-15.581550598144531,20.652307510375977,-31.06749153137207
0,699515,6.887941360473633,7.258543491363525,17.61155128479004,38.24710464477539
0,699515,-10.294644355773926,-5.082467555999756,-11.873559951782227,26.498733520507812
0,699516,-22.622024536132812,-14.256525993347168,-0.5403367877006531,-40.91671371459961
0,699516,15.908567428588867,-7.879230499267578,24.995630264282227,-10.333852767944336
0,699516,51.41776657104492,24.652677536010742,-10.807107925415039,8.999150276184082
0,699517,-30.152830123901367,8.192269325256348,-16.931625366210938,14.543962478637695
0,699519,-56.91068649291992,-30.08460807800293,-18.601858139038086,0.8459115028381348
0,699521,10.497367858886719,2.855560064315796,-4.02944278717041,-21.27838897705078
0,699523,36.82625198364258,-8.693963050842285,24.51801300048828,-4.96902322769165
0,699525,-15.173605918884277,-14.054361343383789,7.826624393463135,-15.808452606201172
0,699527,-29.32791519165039,48.99648666381836,-10.389381408691406,10.515966415405273
0,699529,36.43273162841797,-5.604606628417969,-10.679878234863281,39.12651443481445
0,699531,31.554080963134766,-8.007516860961914,34.23172378540039,4.961638450622559
0,699533,-12.012848854064941,21.688709259033203,27.641971588134766,-16.560861587524414
0,699535,-24.440570831298828,0.9937671422958374,-27.622535705566406,-10.901845932006836
0,699537,11.306650161743164,30.457624435424805,-17.497207641601562,4.38953161239624
0,699539,-5.189578056335449,-38.260719299316406,2.1584322452545166,-3.8142614364624023
0,699541,-9.806649208068848,-76.12325286865234,-14.239602088928223,-16.828699111938477
0,699543,13.295594215393066,-19.412824630737305,-33.06299591064453,-32.359806060791016
0,699544,-21.127092361450195,31.491863250732422,29.80213165283203,17.67350959777832
0,699547,14.683704376220703,86.67770385742188,52.034423828125,67.63251495361328
0,699548,36.37355041503906,38.65873336791992,-3.7717173099517822,22.210445404052734
0,699551,-30.99000358581543,-60.487125396728516,-16.62221336364746,-22.880430221557617
0,699552,-25.71381950378418,-35.215858459472656,-15.244906425476074,-31.87672996520996
0,699555,13.10195255279541,17.089553833007812,-3.3502798080444336,24.624120712280273
0,699556,15.513763427734375,7.944851398468018,-10.787444114685059,-15.754133224487305
0,699559,15.978506088256836,16.617456436157227,0.380095899105072,-32.92082595825195
0,699688,-12.344862937927246,34.0113639831543,24.242902755737305,50.582481384277344
0,699689,-2.794750690460205,-26.60832405090332,-0.6932134032249451,-8.86880874633789
0,699689,-7.895892143249512,-58.8615837097168,-13.030341148376465,-16.497758865356445
0,699689,0.9632010459899902,20.123186111450195,-4.008297443389893,11.791237831115723
0,699689,14.785784721374512,6.042647838592529,-4.982236385345459,-27.601093292236328
0,699689,-34.443946838378906,-50.24729919433594,-13.242284774780273,-0.9515860676765442
0,699689,-7.043999671936035,30.156457901000977,6.03903865814209,2.3654046058654785
0,699690,35.93320846557617,30.366352081298828,26.185077667236328,-1.79388427734375
0,699690,13.084280967712402,-31.343229293823242,-4.065385341644287,32.52655792236328
0,699690,-26.502216339111328,14.5412015914917,-20.3316650390625,-1.6693730354309082
0,699690,-1.916725754737854,26.698503494262695,5.4827094078063965,-36.871273040771484
0,699690,13.655462265014648,-2.1393024921417236,22.272485733032227,-1.8327902555465698
0,699690,-0.4450417757034302,5.219692707061768,-15.70426082611084,11.559320449829102
0,699691,20.178165435791016,18.76894187927246,-23.785066604614258,2.6025376319885254
0,699691,-7.738718509674072,-9.952747344970703,23.384904861450195,18.79445457458496
0,699691,-42.22854995727539,-35.287078857421875,18.17896270751953,0.7977368235588074
0,699691,-6.062462329864502,17.26821517944336,4.811309337615967,-14.3626127243042
0,699691,44.88496017456055,18.024770736694336,23.653697967529297,3.082038164138794
0,699692,4.482021808624268,-42.45330047607422,-24.82553482055664,-12.759771347045898
0,699692,-45.130741119384766,-7.145508289337158,-29.03916358947754,2.952498435974121
0,699692,3.9097983837127686,19.620519638061523,26.28196907043457,13.552835464477539
0,699692,17.607118606567383,4.322824478149414,-4.504138469696045,2.910280704498291
0,699692,5.050706386566162,3.450664520263672,-15.641401290893555,2.4102611541748047
0,699692,19.09580421447754,-11.022963523864746,-2.465280055999756,5.118982315063477
0,699693,-38.45420837402344,0.3723023533821106,1.6438649892807007,-0.6681151390075684
0,699693,-23.43474578857422,18.954303741455078,19.42843246459961,-33.36787414550781
0,699693,49.92388153076172,3.8034489154815674,-6.337882995605469,14.400063514709473
0,699693,3.3167057037353516,-29.297101974487305,-28.06985092163086,26.012496948242188
0,699693,-22.596271514892578,-22.5200138092041,32.3324089050293,-10.389689445495605
0,699693,1.7546966075897217,44.62770080566406,24.76786231994629,2.111478090286255
0,699694,18.391998291015625,34.554786682128906,-44.25033187866211,-32.49952697753906
0,699694,4.5152177810668945,-50.03409957885742,-9.805527687072754,-6.302196502685547
0,699694,-3.637537717819214,-16.695363998413086,47.947967529296875,43.469940185546875
0,699694,28.024614334106445,27.193147659301758,-3.929908037185669,-11.860819816589355
0,699694,-29.85418128967285,-11.84371280670166,-52.59693145751953,-30.500036239624023
0,699694,-67.0661849975586,-10.858302116394043,13.22697925567627,25.44980239868164
0,699695,18.479875564575195,0.22649171948432922,45.26521682739258,23.36869239807129
0,699695,72.54219818115234,2.2461605072021484,-9.459467887878418,-20.04547882080078
0,699695,-34.49935531616211,25.940195083618164,-21.74333953857422,1.3909525871276855
0,699695,-27.262828826904297,10.989723205566406,16.85322380065918,6.513071537017822
0,699695,85.07545471191406,-7.851171493530273,-9.707145690917969,-17.689437866210938
0,699696,-40.182098388671875,13.177865028381348,-13.32678508758545,16.889156341552734
0,699696,-48.197296142578125,-21.868133544921875,16.2261962890625,31.894023895263672
0,699696,61.569252014160156,0.4147046208381653,-5.613161087036133,-30.258337020874023
0,699696,-19.912494659423828,24.245635986328125,-32.62153625488281,-51.128658294677734
0,699696,-20.384132385253906,-41.765464782714844,-7.643623352050781,30.680133819580078
0,699696,44.32040786743164,7.363300323486328,28.815906524658203,30.615650177001953
0,699697,-22.095096588134766,-20.850481033325195,-11.378273010253906,-2.295473575592041
0,699697,-5.09600830078125,-13.528678894042969,3.958240509033203,4.0698370933532715
0,699697,24.896581649780273,100.63339233398438,43.26030731201172,-16.61390495300293
0,699697,-43.93340301513672,-10.95810604095459,-23.890033721923828,-12.672880172729492
0,699697,-17.48014259338379,-66.88046264648438,-15.57359790802002,-23.15637969970703
0,699697,13.011102676391602,17.336185455322266,17.801509857177734,33.844451904296875
0,699698,-2.8985769748687744,13.444449424743652,8.592529296875,38.801151275634766
0,699698,25.081987380981445,0.3594066798686981,21.33115005493164,-53.51009750366211
0,699698,32.88576126098633,19.727935791015625,-13.446749687194824,-20.14788818359375
0,699698,-27.719257354736328,-15.019587516784668,-24.102794647216797,22.18351936340332
0,699698,-55.6151123046875,-28.737415313720703,-10.54673957824707,-12.158406257629395
0,699698,27.796430587768555,4.358695983886719,4.853328704833984,-4.906525611877441
0,699699,34.99872970581055,-1.3320492506027222,-7.207321643829346,33.49312973022461
0,699699,-29.46263885498047,-8.427978515625,11.987412452697754,25.824657440185547
0,699699,10.613029479980469,2.294329881668091,37.07141876220703,-16.841373443603516
0,699699,14.798466682434082,14.610557556152344,-20.986602783203125,-12.601481437683105
0,699699,-8.518640518188477,5.719181537628174,-39.219139099121094,6.65573263168335
0,699699,2.4987359046936035,1.6992172002792358,4.452094554901123,-4.315127372741699
0,699701,11.883208274841309,-5.905682563781738,23.61448097229004,-13.331392288208008
0,699701,-3.3325726985931396,-22.1962833404541,-12.831365585327148,-12.489786148071289
0,699701,-26.073501586914062,-13.445415496826172,8.713961601257324,26.225765228271484
0,699701,-7.779791831970215,25.919450759887695,15.84640121459961,10.172237396240234
0,699701,12.837179183959961,14.359245300292969,-34.692901611328125,-26.61598014831543
0,699702,1.253449559211731,-35.12321853637695,-1.8720077276229858,13.216614723205566
0,699703,-8.18251895904541,2.5419435501098633,15.912396430969238,-2.8068742752075195
0,699704,34.17979049682617,42.322998046875,2.4383697509765625,-27.912485122680664
0,699707,1.1774803400039673,27.37070655822754,36.797157287597656,20.848844528198242
0,699708,-28.09307861328125,-26.018407821655273,-6.633545875549316,26.675500869750977
0,699711,1.2347538471221924,-70.06918334960938,-61.43742370605469,-44.335819244384766
0,699712,-7.77590799331665,-1.2181528806686401,13.659344673156738,-34.8060417175293
0,699715,20.27220344543457,91.4865493774414,56.42415237426758,71.71711730957031
0,699716,12.329915046691895,21.146713256835938,-19.945384979248047,18.144216537475586
0,699719,-32.29134750366211,-37.85322570800781,-17.408702850341797,-32.84440994262695
0,699720,-4.512894153594971,-6.311395168304443,28.897436141967773,17.001054763793945
0,699723,12.169074058532715,-72.8596420288086,-20.62672996520996,-20.98306655883789
0,699724,-1.8849248886108398,0.9956852793693542,-26.921428680419922,-20.81108856201172
0,699727,-1.5575172901153564,105.82981872558594,4.988737106323242,38.19697952270508
0,699728,10.480483055114746,-23.00001335144043,6.74569034576416,26.752361297607422
0,699731,18.318105697631836,-48.32026672363281,-5.181464195251465,-40.403839111328125
0,699732,-45.751548767089844,0.9540730118751526,3.5477044582366943,8.846647262573242
0,699735,-4.687351226806641,6.9494733810424805,28.6842098236084,20.349088668823242
0,699736,78.28327941894531,40.994258880615234,15.516515731811523,-51.50041198730469
0,699739,-0.8513388633728027,15.709806442260742,-7.17885684967041,22.9132137298584
0,699740,-31.702068328857422,-14.128779411315918,-22.291566848754883,11.449114799499512
0,699743,-25.146800994873047,-9.884138107299805,-12.297916412353516,-6.529059410095215
0,699744,-26.238420486450195,-21.207942962646484,0.43460947275161743,7.712747097015381
0,699884,25.3500919342041,-10.977744102478027,5.719204425811768,-52.033145904541016
0,699885,14.356341361999512,-6.510607719421387,11.253628730773926,34.18844985961914
0,699885,6.382083415985107,35.268306732177734,2.348445177078247,44.839012145996094
0,699885,33.92196273803711,52.00800323486328,-20.095792770385742,-44.639461517333984
0,699885,-36.93815612792969,-62.77214050292969,-19.61655616760254,-10.472804069519043
0,699885,-30.659147262573242,-18.811094284057617,16.74652862548828,12.287591934204102
0,699885,37.2537727355957,40.7255744934082,28.01824188232422,0.6470345854759216
0,699886,-9.059002876281738,-11.76786994934082,-5.2212934494018555,7.864838123321533
0,699886,-18.949270248413086,-7.77010440826416,-23.31214141845703,0.4522652328014374
0,699886,7.688376426696777,-10.058685302734375,19.62819480895996,8.965877532958984
0,699886,-17.741840362548828,10.351831436157227,32.41984176635742,16.356042861938477
0,699886,-15.221772193908691,22.541799545288086,-9.909350395202637,-21.462947845458984
0,699886,42.18101501464844,-7.074180603027344,-33.15810775756836,-17.44563865661621
0,699887,9.803065299987793,-37.83399963378906,-9.624640464782715,32.231292724609375
0,699887,-39.92757034301758,-3.3592047691345215,25.911636352539062,3.5917751789093018
0,699887,21.383459091186523,27.886926651000977,-19.928579330444336,-38.268585205078125
0,699887,21.041839599609375,-19.199918746948242,-26.36754035949707,-0.16323426365852356
0,699887,-24.3531494140625,-14.380839347839355,45.95391082763672,15.970778465270996
0,699888,1.842799425125122,10.084436416625977,-9.44941234588623,-24.69590187072754
0,699888,19.97081756591797,-11.496103286743164,-18.903133392333984,2.3486101627349854
0,699888,9.657419204711914,24.824859619140625,36.6512336730957,12.212183952331543
0,699888,-22.11348533630371,19.800485610961914,-7.362215995788574,-14.47046947479248
0,699888,-8.8297119140625,-38.91571807861328,-14.191226959228516,30.74053955078125
0,699888,42.340553283691406,15.606431007385254,-10.827460289001465,-5.321566581726074
0,699889,-20.88389778137207,18.688505172729492,-15.049208641052246,-117.13482666015625
0,699889,-88.63544464111328,8.322094917297363,53.9859733581543,62.565582275390625
0,699889,43.714332580566406,10.86140251159668,22.181781768798828,133.98208618164062
0,699889,103.80313873291016,-80.76496124267578,-91.1335678100586,-95.82508087158203
0,699889,-54.503326416015625,-28.30337905883789,-16.740720748901367,-30.820865631103516
0,699889,-45.365989685058594,27.4627628326416,42.34718322753906,37.008522033691406
0,699890,15.89262866973877,-0.2509823143482208,6.323135852813721,-5.665838241577148
0,699890,-9.438305854797363,21.192546844482422,9.228877067565918,12.504558563232422
0,699890,9.663595199584961,3.0058863162994385,-3.486027717590332,-4.05300235748291
0,699890,9.0946044921875,-32.97798538208008,-17.861724853515625,-13.74162483215332
0,699890,-7.16219425201416,4.016196250915527,2.514780044555664,-7.316959381103516
0,699890,-6.060532093048096,12.071959495544434,-8.798469543457031,-7.777854919433594
0,699891,-4.659401893615723,-22.197294235229492,-38.977691650390625,-4.442397117614746
0,699891,-36.001373291015625,-3.6491949558258057,37.98658752441406,64.23828125
0,699891,11.988550186157227,47.995643615722656,71.021728515625,16.419809341430664
0,699891,68.17601013183594,79.11072540283203,9.798907279968262,-73.9408187866211
0,699891,-4.38532829284668,-37.3243293762207,-35.48276138305664,-2.276540756225586
0,699892,-3.876553535461426,-64.92830657958984,-33.07207489013672,39.68247604370117
0,699892,27.076675415039062,29.447723388671875,7.495839595794678,19.95808219909668
0,699892,-43.70564651489258,23.87714958190918,13.226771354675293,12.112776756286621
0,699892,-26.312583923339844,1.8228765726089478,3.284555673599243,-7.611135959625244
0,699892,32.64665985107422,8.869706153869629,21.055980682373047,5.434468746185303
0,699892,17.571165084838867,5.769312858581543,5.7140793800354,-24.48743438720703
0,699893,-2.730976104736328,-28.939434051513672,-33.552127838134766,-28.29730987548828
0,699893,-66.31929016113281,7.512881278991699,16.74692153930664,57.2688102722168
0,699893,26.081884384155273,64.29673767089844,16.7340087890625,2.112715244293213
0,699893,89.11189270019531,-31.785173416137695,-44.25027084350586,-81.65205383300781
0,699893,-80.91084289550781,-36.22244644165039,-9.389894485473633,3.7157387733459473
0,699893,-11.352751731872559,35.467769622802734,15.669140815734863,55.99217224121094
0,699894,41.088653564453125,-13.757437705993652,-1.6728053092956543,-5.293766975402832
0,699894,-47.577674865722656,10.330926895141602,10.150626182556152,-23.521926879882812
0,699894,39.4049072265625,-11.53371810913086,0.6115416884422302,-5.44218635559082
0,699894,38.073299407958984,-15.849748611450195,-17.254108428955078,9.18927001953125
0,699894,-46.0425910949707,40.12413024902344,13.230473518371582,-10.764137268066406
0,699894,1.9024765491485596,-39.11978530883789,15.185741424560547,8.14510440826416
0,699895,23.005762100219727,-26.914268493652344,-17.30239486694336,32.231510162353516
0,699895,-45.40534973144531,12.946449279785156,-26.42696189880371,-18.422771453857422
0,699895,-2.5322842597961426,14.965363502502441,27.425451278686523,11.108354568481445
0,699895,68.25039672851562,33.96621322631836,45.960208892822266,7.475210189819336
0,699895,-6.480774879455566,-34.256935119628906,-5.4677348136901855,-41.67173767089844
0,699895,-42.835994720458984,-11.062914848327637,-16.951095581054688,7.137478828430176
0,699896,15.348788261413574,24.247154235839844,-30.290937423706055,18.500896453857422
0,699896,5.668453693389893,-15.70429801940918,-7.2252912521362305,-28.012413024902344
0,699896,-12.412549018859863,1.9904738664627075,20.167097091674805,-1.5842305421829224
0,699896,13.122442245483398,11.436365127563477,9.434520721435547,36.35235595703125
0,699896,-16.630033493041992,-13.185274124145508,-3.6858394145965576,-4.244060039520264
0,699898,-39.94651412963867,-23.647863388061523,-29.874927520751953,-26.309541702270508
0,699898,7.395402431488037,1.9754115343093872,13.910439491271973,-7.343488693237305
0,699898,28.233993530273438,38.86810302734375,40.3574333190918,6.9979987144470215
0,699898,2.8426733016967773,-19.931644439697266,-24.78175926208496,18.36195182800293
0,699898,-18.788639068603516,-51.8247184753418,-24.85997200012207,5.292237758636475
0,699898,-8.226824760437012,46.993316650390625,36.78134536743164,3.367814064025879
0,699900,17.054147720336914,12.061235427856445,-12.601637840270996,-23.082101821899414
0,699901,4.953858852386475,-16.29935646057129,-23.755977630615234,4.702874183654785
0,699902,13.04390811920166,37.5265007019043,25.22518539428711,40.510459899902344
0,699905,11.581530570983887,-13.09418773651123,-14.20443344116211,-37.97751235961914
0,699906,-38.367244720458984,-41.20274353027344,-34.3099479675293,-44.4448127746582
0,699909,-12.124917030334473,-28.615005493164062,-13.865614891052246,24.837093353271484
0,699910,37.590599060058594,-32.3278923034668,23.6650447845459,15.564531326293945
0,699913,6.644453048706055,39.94147491455078,22.40625,-8.520255088806152
0,699914,-17.627185821533203,78.79243469238281,0.9900903701782227,16.295564651489258
0,699917,18.354373931884766,-29.0709228515625,22.722103118896484,12.6321439743042
0,699918,10.717869758605957,-17.932592391967773,-8.489034652709961,-14.5258207321167
0,699921,-23.39936637878418,13.168198585510254,-46.32954406738281,-1.0292749404907227
0,699922,-1.6558759212493896,11.963531494140625,34.912994384765625,13.365946769714355
1,701153,2.7819602489471436,29.66741371154785,36.60053253173828,-9.85152530670166
1,701154,-10.824772834777832,-37.22850799560547,-22.249502182006836,-3.10585355758667
1,701157,-1.0877776145935059,-22.13351058959961,4.5060553550720215,-6.54902982711792
1,701158,36.93562698364258,46.016475677490234,0.869010865688324,11.322607040405273
1,701161,-25.8682918548584,7.6910576820373535,-12.413788795471191,21.275129318237305
1,701162,-58.728675842285156,-48.1190185546875,-19.854631423950195,-29.210485458374023
1,701165,55.950130462646484,15.960663795471191,-5.283474922180176,-23.780202865600586
1,701166,6.471112251281738,7.50140905380249,35.703697204589844,23.905366897583008
1,701176,-30.034311294555664,-51.38423156738281,3.8552417755126953,42.05995178222656
1,701176,33.04520034790039,-5.024195194244385,-36.24631118774414,-19.973791122436523
1,701177,13.283997535705566,31.502910614013672,-0.6747636198997498,-52.170475006103516
1,701177,-6.697498321533203,-9.906803131103516,10.208767890930176,0.5361310243606567
1,701177,-14.937427520751953,-8.046830177307129,-3.492617130279541,45.25213623046875
1,701178,-11.185362815856934,61.81577682495117,10.028841972351074,13.6339750289917
1,701181,0.5595446825027466,15.062426567077637,7.752021789550781,-28.7008056640625
1,701182,9.696493148803711,-48.6181640625,-10.064967155456543,8.00542163848877
1,701185,8.554706573486328,-23.31821060180664,-8.838294982910156,7.69384241104126
1,701186,1.649413824081421,13.370245933532715,24.74688720703125,-14.561846733093262
1,701189,-12.672147750854492,10.653814315795898,1.3777353763580322,-4.723495006561279
1,701190,2.8994481563568115,-16.216798782348633,-61.92174530029297,-13.12790584564209
1,701193,-7.8018059730529785,8.359463691711426,23.25518035888672,2.484196186065674
1,701194,-2.9613780975341797,35.04228973388672,66.84178924560547,11.924933433532715
1,701197,35.07244873046875,-8.197874069213867,-40.41278839111328,-2.2684879302978516
1,701198,-31.993146896362305,-28.859128952026367,-50.50348663330078,-1.5337332487106323
1,701201,-12.44683837890625,10.99449634552002,29.56348419189453,-3.4548423290252686
1,701224,50.748470306396484,13.810554504394531,46.104522705078125,3.352832555770874
1,701224,-11.473719596862793,-6.713554382324219,-6.519926071166992,19.48301887512207
1,701224,-28.885540008544922,3.0305418968200684,-22.801353454589844,12.485565185546875
1,701225,17.743133544921875,20.482227325439453,-7.195460796356201,-15.474506378173828
1,701225,7.773721218109131,-6.855498790740967,22.32865333557129,-2.0872128009796143
1,701225,-8.941217422485352,-34.087703704833984,11.9390287399292,-13.697921752929688
1,701225,-11.299567222595215,-2.0174190998077393,-29.2464542388916,-11.038394927978516
1,701225,-2.157954216003418,17.202550888061523,-5.386529445648193,42.400489807128906
1,701225,15.668160438537598,12.218140602111816,17.59374237060547,19.157060623168945
1,701226,-20.286762237548828,7.958113670349121,19.533973693847656,-22.985410690307617
1,701226,-11.361777305603027,-28.112489700317383,-28.47821807861328,-54.652183532714844
1,701227,6.628489971160889,-39.88457489013672,-46.354835510253906,-33.57081985473633
1,701227,-28.20613670349121,-6.62869119644165,33.32268524169922,61.49592208862305
1,701229,11.196086883544922,15.217586517333984,18.286897659301758,46.13508987426758
1,701231,19.34540557861328,36.21373748779297,-17.3422908782959,-38.88066864013672
1,701233,-6.222805976867676,21.668014526367188,9.133417129516602,-12.769224166870117
1,701235,44.47700881958008,-17.968164443969727,25.770503997802734,41.25386428833008
1,701237,15.000380516052246,-27.485509872436523,-47.154197692871094,6.820084571838379
1,701239,-47.830482482910156,-14.05553913116455,-30.502656936645508,-36.702789306640625
1,701241,-1.255963683128357,29.958118438720703,92.32455444335938,-20.79327964782715
1,701243,36.10820770263672,44.57683563232422,5.670093059539795,14.00805950164795
1,701245,-12.187092781066895,0.12691116333007812,-45.5734977722168,21.907245635986328
1,701247,-21.649351119995117,-60.922874450683594,-14.036052703857422,-37.2988166809082
1,701249,3.9857301712036133,-54.13158416748047,-18.485095977783203,-17.585824966430664
1,701251,9.942497253417969,86.94367980957031,26.26343536376953,46.103878021240234
1,701288,0.21748873591423035,68.79491424560547,34.480857849121094,2.0251622200012207
1,701288,-15.341370582580566,-64.57135772705078,-4.99132776260376,-12.286520004272461
1,701288,15.797847747802734,-28.50322151184082,-29.307722091674805,5.775670528411865
1,701288,-11.332983016967773,-18.015501022338867,-0.1101345643401146,-1.0029003620147705
1,701288,-31.37841796875,0.5274025201797485,26.487468719482422,6.415426254272461
1,701288,37.81990432739258,48.047515869140625,-7.273992538452148,7.629214763641357
1,701289,5.879635810852051,-8.601861953735352,-5.391541481018066,-7.638053894042969
1,701289,-6.9308295249938965,-7.089066028594971,5.938966274261475,-1.4647307395935059
1,701289,35.632484436035156,18.428325653076172,-28.5871524810791,-1.4187037944793701
1,701289,-35.00190353393555,-21.850162506103516,-7.360163688659668,-10.448271751403809
1,701289,-40.06531524658203,-16.715972900390625,28.89606285095215,-2.329103469848633
1,701289,32.36448669433594,-7.2754693031311035,11.292986869812012,13.89035701751709
1,701290,8.184967041015625,11.017232894897461,-3.7088890075683594,14.4004545211792
1,701290,-18.118623733520508,37.03485870361328,-12.52421760559082,-14.764566421508789
1,701290,20.31724739074707,0.04184843972325325,-14.222941398620605,-22.148311614990234
1,701290,16.44827651977539,-18.831384658813477,3.8549752235412598,13.484362602233887
1,701290,1.5615049600601196,-6.493477821350098,11.4551420211792,27.225553512573242
1,701290,9.865922927856445,9.323016166687012,9.502662658691406,-13.68220329284668
1,701292,-28.618539810180664,12.356721878051758,-11.836600303649902,-23.418621063232422
1,701292,-40.93768310546875,-4.957263946533203,-7.201470851898193,20.251340866088867
1,701293,15.99834156036377,-3.7828564643859863,14.237642288208008,-3.868312358856201
1,701295,36.458648681640625,-1.1294450759887695,3.1274144649505615,-21.166528701782227
1,701297,-29.380483627319336,-26.620004653930664,-45.37123489379883,-22.138385772705078
1,701299,-4.6364593505859375,-26.844154357910156,3.385392189025879,-15.823482513427734
1,701301,36.961849212646484,22.253984451293945,53.645530700683594,60.13302993774414
1,701303,-29.54388999938965,20.023822784423828,-16.825693130493164,22.692983627319336
1,701305,-16.60369110107422,-12.062578201293945,-28.860877990722656,-35.89671325683594
1,701307,33.438751220703125,19.86902618408203,3.7507078647613525,1.6008977890014648
1,701309,17.34039306640625,7.047961711883545,35.58755874633789,28.12188720703125
1,701311,-49.809818267822266,-31.097919464111328,12.513381958007812,20.331893920898438
1,701313,-8.20036506652832,17.812828063964844,-23.62723731994629,-1.6604896783828735
1,701315,70.52919006347656,40.41080093383789,-1.9251039028167725,-34.82374572753906
1,701317,-30.001480102539062,-7.145605564117432,30.68014144897461,-2.2835257053375244
1,701319,-26.414011001586914,-26.547834396362305,-17.92055320739746,-1.9543522596359253
1,701368,36.504112243652344,-18.764923095703125,-40.07135772705078,-21.67743492126465
1,701368,-9.380705833435059,-19.556533813476562,15.457281112670898,7.882851600646973
1,701368,6.976690292358398,5.392949104309082,22.672948837280273,-14.1747407913208
1,701369,-3.3393125534057617,7.863652229309082,8.426909446716309,8.813398361206055
1,701369,-35.93170928955078,3.850161552429199,-28.09227752685547,13.734347343444824
1,701369,-4.906977653503418,9.789223670959473,-6.16877555847168,16.07761001586914
1,701369,16.855318069458008,3.984550714492798,12.736546516418457,-11.093160629272461
1,701369,13.354151725769043,11.714982032775879,13.730316162109375,-27.230966567993164
1,701369,25.63975715637207,16.280080795288086,14.036262512207031,48.364532470703125
1,701370,1.214453101158142,5.053339958190918,-20.26105308532715,-6.546773910522461
1,701370,-25.629669189453125,-24.402545928955078,-0.9426518082618713,-35.99613952636719
1,701370,-15.205142974853516,13.793392181396484,15.905988693237305,38.275367736816406
1,701370,14.8079833984375,38.5924186706543,23.074430465698242,30.20082664489746
1,701370,31.130939483642578,-40.0803337097168,-39.24953079223633,-31.416316986083984
1,701371,-12.509746551513672,-35.62401580810547,-53.95893096923828,-41.18254470825195
1,701371,-16.69151496887207,10.193138122558594,43.33163833618164,24.427278518676758
1,701371,-2.3662679195404053,0.6825254559516907,38.84196090698242,25.945234298706055
1,701371,-4.597094535827637,8.198583602905273,-23.809188842773438,-11.145309448242188
1,701371,20.120243072509766,5.910592555999756,-15.911064147949219,-20.770469665527344
1,701371,-2.255044937133789,-16.220062255859375,-3.561974048614502,1.614616870880127
1,701372,-43.90471649169922,-21.103078842163086,-6.290998935699463,35.95833206176758
1,701372,-2.968679189682007,11.293139457702637,12.550844192504883,-3.6569900512695312
1,701372,38.18125534057617,17.201013565063477,7.6563639640808105,-5.571927547454834
1,701372,18.2276554107666,3.874720573425293,9.641104698181152,-0.818419337272644
1,701373,-18.60899543762207,-9.915664672851562,3.8365561962127686,-32.102020263671875
1,701373,-13.637068748474121,-13.135063171386719,-20.546852111816406,-13.266895294189453
1,701374,8.855932235717773,16.312847137451172,-28.621511459350586,12.429159164428711
1,701375,-25.056673049926758,7.4884467124938965,19.47080421447754,18.652606964111328
1,701376,14.70727825164795,10.555651664733887,22.142004013061523,-3.307591438293457
1,701379,48.503662109375,-17.332860946655273,-22.933340072631836,-17.727144241333008
1,701380,-44.912269592285156,-21.465208053588867,8.421177864074707,9.829797744750977
1,701383,-31.69426727294922,39.74845504760742,6.111948013305664,-8.689435005187988
1,701384,37.759952545166016,4.088354110717773,-5.690000534057617,-25.3026123046875
1,701387,1.0022165775299072,-30.62578773498535,-1.823506236076355,15.72497272491455
1,701388,-20.549806594848633,-19.24323844909668,-9.881391525268555,30.880245208740234
1,701391,25.81298828125,-5.221630573272705,14.872166633605957,-2.5413436889648438
1,701393,9.247370719909668,0.18409770727157593,0.5820714831352234,-15.767654418945312
1,701395,-13.667433738708496,22.662044525146484,7.447261333465576,27.76576805114746
1,701397,1.3099510669708252,18.356653213500977,17.58165740966797,7.022520542144775
1,701399,-5.4922661781311035,0.4104030430316925,-8.512981414794922,-13.803953170776367
1,701401,13.361141204833984,10.405320167541504,3.383591890335083,16.707658767700195
1,701462,-27.31587028503418,-32.23267364501953,-10.048030853271484,-40.07541275024414
1,701463,-22.07615852355957,-1.4379355907440186,-31.261478424072266,-34.88957977294922
1,701463,17.09206199645996,22.53013801574707,5.676137447357178,53.15711212158203
1,701463,-11.967963218688965,-6.622829914093018,45.80315399169922,9.05251407623291
1,701463,15.47632122039795,11.808333396911621,16.796689987182617,-17.61675262451172
1,701463,24.067424774169922,12.908761024475098,-21.79047393798828,8.31250286102295
1,701463,14.611793518066406,-19.906415939331055,-21.90363121032715,-10.496360778808594
1,701464,-14.978226661682129,-21.702884674072266,19.623592376708984,12.343194961547852
1,701464,-24.29726219177246,14.608511924743652,42.424476623535156,26.169540405273438
1,701464,33.05474090576172,22.894031524658203,-25.588037490844727,-18.594070434570312
1,701464,-2.5914247035980225,5.976747989654541,-0.42025119066238403,-11.668622970581055
1,701464,-15.275221824645996,-31.126575469970703,40.400447845458984,26.466779708862305
1,701464,21.822772979736328,-14.601272583007812,-40.31199645996094,5.792525768280029
1,701465,11.449199676513672,33.6578369140625,-13.171113967895508,-6.4537034034729
1,701465,11.874329566955566,25.288103103637695,23.2232608795166,-14.729690551757812
1,701465,-17.830669403076172,-18.561519622802734,-44.25333023071289,-17.878131866455078
1,701465,-40.27586364746094,-22.467426300048828,-10.111926078796387,1.5738232135772705
1,701465,17.991348266601562,14.420106887817383,11.071388244628906,1.8159477710723877
1,701465,33.239925384521484,7.923670768737793,-20.42068862915039,10.332258224487305
1,701466,-20.205617904663086,-35.82557678222656,-11.03076457977295,2.2263736724853516
1,701466,-5.908496379852295,-13.120218276977539,-8.63817310333252,-4.771483898162842
1,701466,-6.246409893035889,46.703895568847656,36.427757263183594,-2.7772185802459717
1,701466,-19.505451202392578,-10.170178413391113,16.531787872314453,-22.51681900024414
1,701466,21.213092803955078,-19.159610748291016,-47.50236511230469,2.9946019649505615
1,701467,1.7618298530578613,10.500517845153809,-9.095924377441406,16.91741371154785
1,701467,-12.371162414550781,-7.37607479095459,52.74258804321289,-21.382299423217773
1,701467,2.6494343280792236,30.921218872070312,22.790159225463867,-16.568439483642578
1,701467,2.391373634338379,-6.337616920471191,-20.28009605407715,28.408977508544922
1,701467,-10.762812614440918,-54.22830581665039,6.293203353881836,24.908044815063477
1,701467,-16.29313087463379,15.90018081665039,-15.431790351867676,-17.964397430419922
1,701468,35.46568298339844,45.6865234375,-34.591697692871094,-21.666967391967773
1,701469,18.427860260009766,-13.25456714630127,-13.711187362670898,-9.147464752197266
1,701469,-16.213563919067383,-21.782724380493164,-15.886730194091797,15.405410766601562
1,701469,-6.600034713745117,19.714128494262695,31.008014678955078,43.28985595703125
1,701471,-24.23931884765625,-7.5650858879089355,-32.58247375488281,-40.96177673339844
1,701473,-4.831976890563965,-28.33908462524414,-169.0679473876953,-53.21408462524414
1,701475,33.59226608276367,2.363466739654541,-42.79933547973633,57.61069869995117
1,701477,29.844701766967773,-12.279755592346191,45.089210510253906,79.91381072998047
1,701479,6.394440174102783,11.147729873657227,27.478851318359375,11.077725410461426
1,701481,-28.37483024597168,37.83376693725586,272.887451171875,-82.68115234375
1,701483,-31.36386489868164,15.662426948547363,185.7411346435547,-35.86005401611328
1,701485,4.425014972686768,21.34915542602539,-152.5905303955078,44.457820892333984
1,701487,29.651535034179688,-17.837800979614258,-42.71941375732422,21.38550567626953
1,701489,-46.56004333496094,-71.89938354492188,27.42831039428711,-58.103450775146484
1,701491,-75.8979721069336,-55.930545806884766,-64.61994934082031,-91.93399810791016
1,701493,106.30442810058594,78.85669708251953,46.54048538208008,91.6454086303711
1,701495,70.2574234008789,95.35875701904297,59.1523323059082,111.65489196777344
1,701497,-89.21831512451172,-58.8208122253418,-67.20414733886719,-58.91053771972656
1,701499,-2.1539723873138428,-29.451330184936523,-33.046600341796875,-5.065831661224365
1,701500,21.21676254272461,14.368171691894531,-26.47872543334961,22.64857292175293
1,701574,-38.32975769042969,-33.520851135253906,-152.8357696533203,-61.82533264160156
1,701574,3.920029640197754,-10.105792999267578,-92.5728759765625,-17.778377532958984
1,701574,43.28803253173828,38.809486389160156,113.30340576171875,54.465492248535156
1,701575,-5.4256181716918945,13.222108840942383,107.2447280883789,40.39223098754883
1,701575,4.024909973144531,-13.578977584838867,24.511627197265625,-16.342029571533203
1,701575,30.85482406616211,17.50756072998047,7.958022594451904,-28.579586029052734
1,701575,-63.048458099365234,-22.767770767211914,-18.100210189819336,15.268681526184082
1,701575,-34.755615234375,-23.49637794494629,-13.77791976928711,-18.259206771850586
1,701575,49.75986862182617,35.50200653076172,-5.284478187561035,-32.7715950012207
1,701576,19.992982864379883,0.19252172112464905,-33.98716354370117,14.59788990020752
1,701576,-26.488971710205078,-26.905776977539062,-29.88957977294922,14.001723289489746
1,701576,-33.55381774902344,-0.9424846172332764,43.0692253112793,11.529196739196777
1,701576,42.90080261230469,25.3520565032959,39.989715576171875,20.141006469726562
1,701576,33.11963653564453,19.629348754882812,-58.9765739440918,-11.505683898925781
1,701576,-30.343814849853516,-16.041120529174805,-24.53864860534668,-28.042858123779297
1,701577,4.471793174743652,-7.318892002105713,98.8013687133789,10.741578102111816
1,701577,20.540019989013672,15.014599800109863,33.475616455078125,12.929133415222168
1,701577,11.04226016998291,-1.53460693359375,-65.03821563720703,-22.82341766357422
1,701577,-18.664350509643555,-14.658493041992188,2.262299060821533,-10.173380851745605
1,701577,-23.98436737060547,-4.392462730407715,47.45618438720703,19.890243530273438
1,701577,43.045867919921875,15.074381828308105,-1.6042424440383911,-10.815037727355957
1,701578,39.97533416748047,18.218896865844727,-1.5378936529159546,-17.243642807006836
1,701578,-38.43244171142578,-17.678775787353516,35.21507263183594,31.66809844970703
1,701578,-19.17987632751465,0.1599993109703064,2.949235200881958,-4.80601167678833
1,701578,6.5823655128479,7.259893417358398,-13.976361274719238,-13.389567375183105
1,701578,-22.157230377197266,-13.276202201843262,5.783182621002197,18.777231216430664
1,701579,-23.004423141479492,3.3614895343780518,0.236820250749588,-16.222326278686523
1,701579,-3.823718786239624,-6.966472625732422,-2.609215497970581,-5.251156806945801
1,701579,40.55278015136719,6.526688098907471,-18.85930633544922,-5.467391490936279
1,701579,-1.6429424285888672,-3.3073904514312744,-8.814180374145508,9.123154640197754
1,701579,-18.996530532836914,-2.8601396083831787,34.07234191894531,47.85154342651367
1,701579,29.47679328918457,11.419892311096191,-23.758209228515625,-28.42523765563965
1,701579,-9.144969940185547,-15.915800094604492,-41.367103576660156,-30.06725311279297
1,701580,-13.411772727966309,-10.668363571166992,20.40651512145996,53.596431732177734
1,701580,13.668615341186523,12.640606880187988,10.846684455871582,-8.848315238952637
1,701580,2.4969170093536377,17.967660903930664,-4.815348148345947,-15.967411994934082
1,701581,-24.443689346313477,-14.353144645690918,-20.860382080078125,-23.48308753967285
1,701581,-54.283878326416016,-31.959796905517578,8.242171287536621,-47.23938751220703
1,701582,28.138824462890625,15.400225639343262,50.813018798828125,43.59022521972656
1,701582,72.9652099609375,33.56713104248047,-7.097447395324707,1.424891710281372
1,701583,-47.81779479980469,-6.110886096954346,-31.375308990478516,-26.76450538635254
1,701584,-53.76532745361328,-11.29621410369873,-79.1668930053711,23.61322593688965
1,701587,25.010610580444336,-0.49698254466056824,38.90928649902344,-6.710195064544678
1,701588,16.050472259521484,-8.194210052490234,200.1474609375,3.8239474296569824
1,701591,90.65322875976562,-61.8721809387207,-158.2381134033203,23.27956771850586
1,701592,66.91038513183594,-37.03216552734375,-170.32125854492188,2.7379157543182373
1,701595,-92.18235778808594,131.99917602539062,187.18728637695312,-27.656818389892578
1,701596,0.1770036369562149,86.91354370117188,-25.15799331665039,6.373532772064209
1,701599,3.709625720977783,-66.26498413085938,-108.0623550415039,96.23745727539062
1,701601,-113.54277038574219,-89.169921875,56.298484802246094,-60.461402893066406
1,701603,-5.409502983093262,-77.66826629638672,-28.98985481262207,-170.7509765625
1,701605,76.02470397949219,104.12486267089844,35.59263229370117,94.36351013183594
1,701607,-13.168960571289062,126.05435943603516,167.40794372558594,156.1903076171875
1,701609,-40.04235076904297,-57.21199035644531,-5.3656206130981445,-73.3631362915039
1,701611,-2.774646759033203,-72.42984008789062,-241.11183166503906,-61.74321365356445
1,701613,-10.922317504882812,-0.8496226072311401,-149.07896423339844,57.59526443481445
1,701615,47.660682678222656,20.228425979614258,44.45375442504883,29.14958381652832
1,701699,25.123401641845703,-29.77562713623047,219.30345153808594,-21.347150802612305
1,701700,-19.937541961669922,-5.861172676086426,173.49313354492188,-15.683900833129883
1,701700,19.767221450805664,20.93720817565918,-129.2136993408203,31.980636596679688
1,701700,13.091413497924805,5.900146961212158,-80.1009750366211,0.5368465185165405
1,701700,-4.944511413574219,-8.363167762756348,11.377906799316406,-48.30176544189453
1,701700,-9.303048133850098,-7.249505996704102,-14.186758995056152,13.358302116394043
1,701700,-0.001714474754408002,15.043822288513184,35.84354019165039,-3.8187575340270996
1,701701,-15.578344345092773,-10.62449836730957,38.221126556396484,-55.10073471069336
1,701701,-41.034061431884766,2.8709137439727783,30.69521141052246,17.67644500732422
1,701701,2.7303221225738525,24.46566390991211,-6.863653182983398,-3.636744976043701
1,701701,43.21077346801758,-16.77024269104004,-30.18235969543457,-56.00254821777344
1,701701,13.557829856872559,6.2169013023376465,-7.8182573318481445,10.522680282592773
1,701701,-13.244921684265137,18.136079788208008,-33.52080154418945,56.48374938964844
1,701702,-5.915382385253906,-9.573663711547852,-51.5754280090332,17.78757667541504
1,701702,3.3190701007843018,18.856643676757812,22.543970108032227,-18.8199462890625
1,701702,21.189332962036133,-15.528092384338379,22.315881729125977,1.7503976821899414
1,701702,6.196268558502197,-0.020031776279211044,-6.861236095428467,11.554097175598145
1,701702,-21.14042854309082,44.5570068359375,31.982627868652344,0.4016488194465637
1,701702,-15.490423202514648,-38.9726448059082,11.883661270141602,1.689870834350586
1,701703,-5.606941223144531,-39.10013961791992,12.768440246582031,21.2717342376709
1,701703,18.252241134643555,20.48177719116211,12.404756546020508,-1.323196291923523
1,701703,18.131437301635742,2.3753979206085205,-56.697059631347656,-9.2200288772583
1,701703,-14.824233055114746,5.243996620178223,-35.58160400390625,28.13419532775879
1,701703,-7.575444221496582,5.2650604248046875,26.84008026123047,-0.40413305163383484
1,701704,13.847518920898438,3.593578338623047,15.21460247039795,-22.182395935058594
1,701704,14.141496658325195,1.1061159372329712,4.37834358215332,27.008392333984375
1,701704,16.01063346862793,-13.710054397583008,1.7106328010559082,-2.3722991943359375
1,701704,-30.96741485595703,12.91626262664795,5.29210090637207,-21.103130340576172
1,701704,-27.882213592529297,13.067647933959961,26.936595916748047,1.0560890436172485
1,701704,23.54410171508789,-5.808452129364014,-3.4963395595550537,-21.353931427001953
1,701705,-1.3759126663208008,4.03978157043457,-25.088518142700195,12.492928504943848
1,701705,-3.104053258895874,-9.472418785095215,2.511892080307007,9.996804237365723
1,701705,21.57648468017578,-4.677211284637451,-11.908473014831543,-2.049053430557251
1,701705,-4.905385494232178,2.448106527328491,-34.08757019042969,-7.158965587615967
1,701705,-18.531879425048828,-14.877137184143066,16.290420532226562,5.669661998748779
1,701705,17.770071029663086,13.14881706237793,30.64310646057129,24.210227966308594
1,701706,17.039897918701172,18.177982330322266,-14.788174629211426,-33.40549087524414
1,701706,-12.991671562194824,-26.246374130249023,1.5543205738067627,-22.895986557006836
1,701706,-15.284300804138184,-31.705785751342773,18.368837356567383,32.23779296875
1,701706,-18.253400802612305,27.59056854248047,4.757390975952148,2.9663078784942627
1,701706,-3.4538795948028564,10.157028198242188,-2.320727586746216,-23.73643684387207
1,701706,10.604973793029785,-30.67140007019043,-5.027192115783691,15.942176818847656
1,701708,53.653648376464844,27.685211181640625,-14.493619918823242,21.845861434936523
1,701708,9.289262771606445,10.724786758422852,-37.76246643066406,11.639978408813477
1,701708,-97.8294677734375,-24.231826782226562,5.711407661437988,-20.66698455810547
1,701708,23.444660186767578,12.067679405212402,37.65434646606445,-41.34685134887695
1,701710,38.77321243286133,-58.22312927246094,-24.45775604248047,29.493576049804688
1,701711,-83.49440002441406,-8.819818496704102,-7.890183448791504,7.606457710266113
1,701712,13.078774452209473,107.42682647705078,22.63845443725586,-28.01268768310547
1,701715,78.20414733886719,10.080897331237793,-10.05576229095459,22.442279815673828
1,701716,6.880218982696533,-0.9715754389762878,5.4545769691467285,-11.366808891296387
1,701719,-28.135757446289062,-19.81722068786621,4.656635284423828,30.275999069213867
1,701720,-5.4404449462890625,-90.86286163330078,-3.376211643218994,39.01301956176758
1,701723,-34.904136657714844,-77.70177459716797,-50.38795471191406,-135.43679809570312
1,701724,-19.918354034423828,24.475915908813477,-7.63951301574707,-84.80221557617188
1,701727,59.51241683959961,158.74978637695312,106.33759307861328,120.5473403930664
1,701728,13.332390785217285,39.015140533447266,33.40043258666992,70.0180892944336
1,701731,3.2804982662200928,-63.93907928466797,-33.07600021362305,-22.11471939086914
1,701732,36.75343704223633,20.723175048828125,-10.956183433532715,13.785482406616211
1,701735,-51.52986526489258,-11.966550827026367,-18.221378326416016,-15.16333293914795
1,701736,-43.951507568359375,-44.86119842529297,-67.64704895019531,-36.649715423583984
1,701739,22.583616256713867,15.80587387084961,-0.8153671622276306,41.80642318725586
1,701740,-0.8923499584197998,21.564876556396484,87.22184753417969,14.016275405883789
1,701743,31.177471160888672,-1.0333783626556396,17.686532974243164,-41.51249694824219
1,701839,5.333438396453857,-11.814045906066895,-45.45827865600586,17.105945587158203
1,701839,-40.28551483154297,-8.971919059753418,-23.834383010864258,9.15870475769043
1,701839,0.4925728440284729,-15.066567420959473,11.685044288635254,7.306839942932129
1,701839,-0.062313441187143326,0.39282599091529846,8.090216636657715,-11.78668212890625
1,701840,9.185629844665527,-2.7053165435791016,1.620384693145752,-52.96239471435547
1,701840,28.62648582458496,-17.157798767089844,3.5433921813964844,16.300567626953125
1,701840,-23.613500595092773,22.41400909423828,21.392629623413086,9.640007019042969
1,701840,-32.95792007446289,15.40536880493164,7.38409423828125,-0.60312420129776
1,701840,37.10247039794922,-1.1381539106369019,0.5898142457008362,35.29804229736328
1,701840,34.7907600402832,12.3052978515625,3.5251986980438232,-8.604610443115234
1,701841,-20.542490005493164,1.4023319482803345,-28.805980682373047,-5.874786853790283
1,701841,-13.762001037597656,-19.535263061523438,-26.31971549987793,15.981364250183105
1,701841,-1.6222957372665405,-16.29694175720215,13.122365951538086,0.9256734251976013
1,701841,-4.926196575164795,13.316705703735352,26.242237091064453,-23.54214859008789
1,701841,-0.6835331916809082,-8.449289321899414,-11.417405128479004,-16.10458755493164
1,701841,-7.102199554443359,-11.762285232543945,-25.397125244140625,-4.5841498374938965
1,701842,-14.281109809875488,16.662580490112305,-8.552093505859375,-18.857032775878906
1,701842,-3.460569143295288,-8.310680389404297,10.422300338745117,29.677915573120117
1,701842,6.115856170654297,16.123401641845703,24.663867950439453,13.131113052368164
1,701842,10.46853256225586,21.38744354248047,-1.7149981260299683,-31.855384826660156
1,701842,19.035730361938477,-9.736565589904785,-20.10675811767578,21.988208770751953
1,701842,1.4478797912597656,9.059892654418945,13.507588386535645,16.122228622436523
1,701843,-3.367474317550659,-13.903437614440918,10.91800594329834,0.7240148782730103
1,701843,9.31407642364502,2.672541618347168,-13.114882469177246,16.99681854248047
1,701843,2.445148229598999,19.884214401245117,-9.982930183410645,-27.280004501342773
1,701843,-16.460493087768555,-28.75829315185547,7.545403003692627,-16.9935245513916
1,701843,8.99431037902832,-6.03446102142334,10.729811668395996,8.477179527282715
1,701844,8.019733428955078,20.12703514099121,-15.838784217834473,9.873542785644531
1,701844,-37.1679573059082,-6.185879230499268,-8.216692924499512,28.958616256713867
1,701844,5.377209186553955,-25.903335571289062,15.310194969177246,-7.663335800170898
1,701844,42.901607513427734,11.15395450592041,5.507783889770508,-36.720890045166016
1,701844,2.688316822052002,27.917612075805664,-24.4111328125,-3.7015929222106934
1,701844,-33.9748420715332,-35.71530532836914,-15.547636032104492,19.151508331298828
1,701845,-3.396094799041748,-22.115495681762695,11.11551570892334,1.4853595495224
1,701845,27.881332397460938,28.789438247680664,5.785035610198975,12.251097679138184
1,701845,-21.661542892456055,-1.8214747905731201,34.436683654785156,1.9100830554962158
1,701845,-11.88463020324707,-1.0626012086868286,27.349706649780273,-21.212873458862305
1,701845,27.6351375579834,15.857029914855957,-22.469532012939453,14.963953971862793
1,701845,-5.053524494171143,-3.699627637863159,-4.4612884521484375,15.28801155090332
1,701846,11.636063575744629,12.369279861450195,-0.2870693802833557,-34.2808723449707
1,701846,11.207693099975586,-4.222985744476318,-34.09664535522461,-24.0926456451416
1,701846,-31.13512420654297,-24.25795555114746,-36.8136100769043,15.930431365966797
1,701846,-23.14984703063965,8.840917587280273,16.821033477783203,30.19422721862793
1,701846,-0.7996310591697693,-21.72372055053711,28.462047576904297,4.756931781768799
1,701846,5.914185047149658,21.194955825805664,3.6072936058044434,-21.069232940673828
1,701847,23.125537872314453,61.567161560058594,39.82281494140625,16.5740966796875
1,701847,28.11105728149414,-33.61140823364258,12.302607536315918,-3.0149033069610596
1,701847,-4.101458549499512,-24.39640235900879,-37.698909759521484,-17.292659759521484
1,701848,22.29867935180664,5.619846343994141,-55.16444396972656,11.464202880859375
1,701848,-4.127591133117676,-7.410844326019287,-36.53839111328125,-5.540008068084717
1,701849,-43.689857482910156,6.3923516273498535,55.27838897705078,-24.63390350341797
1,701849,-4.552115440368652,-9.2241792678833,34.521244049072266,4.426973342895508
1,701849,-0.4872724711894989,6.388741970062256,-33.973018646240234,39.165096282958984
1,701850,-8.84266471862793,-12.63830280303955,-24.757915496826172,-10.701849937438965
1,701853,-8.5503511428833,-19.377643585205078,42.37266159057617,-18.114402770996094
1,701854,9.980648040771484,20.831525802612305,41.36268997192383,7.118745803833008
1,701857,-24.69154167175293,-20.753517150878906,-29.194259643554688,-9.33751106262207
1,701858,-21.991193771362305,6.659153938293457,25.02702522277832,2.493478775024414
1,701861,46.068416595458984,41.03590393066406,22.886138916015625,21.90110969543457
1,701862,6.121518135070801,16.420976638793945,-20.50152015686035,33.87580108642578
1,701865,-15.404387474060059,-10.847831726074219,15.655684471130371,-31.063323974609375
1,701866,8.933666229248047,-18.339942932128906,2.668220043182373,-27.89769744873047
1,701869,16.74325180053711,-5.517409324645996,-60.256134033203125,14.271393775939941
1,701870,-8.016504287719727,-47.455291748046875,-28.835968017578125,-12.431782722473145
1,701873,-13.428951263427734,40.100074768066406,34.50998306274414,21.783756256103516
1,701874,28.125286102294922,60.891624450683594,-17.049861907958984,15.89454460144043
1,701877,-14.862348556518555,-57.91844177246094,-17.123550415039062,-24.07600212097168
1,701879,-22.243623733520508,-13.590407371520996,40.644649505615234,-32.388919830322266
1,701881,-7.787971496582031,38.27796173095703,84.6331558227539,20.520891189575195
1,701883,15.664427757263184,22.47613525390625,17.841487884521484,29.396461486816406
1,701885,70.43334197998047,-22.20877456665039,-141.00523376464844,14.059527397155762
1,701887,-5.829970359802246,-30.342021942138672,-76.17697143554688,-0.8440167307853699
1,701994,-55.90591812133789,24.270999908447266,102.27998352050781,-70.92549133300781
1,701994,-11.435019493103027,-17.530330657958984,62.4376106262207,10.700007438659668
1,701994,15.049283981323242,-38.084415435791016,-37.44193649291992,43.48945236206055
1,701994,30.752307891845703,4.6835036277771,-31.820003509521484,-46.361263275146484
1,701995,3.9839823246002197,-1.2051228284835815,-37.18003463745117,-3.2301480770111084
1,701995,-26.857240676879883,20.84497833251953,14.022794723510742,42.86895751953125
1,701995,-7.455929756164551,12.76807975769043,37.53553009033203,1.5161982774734497
1,701995,-1.3828283548355103,-45.71158981323242,-17.59811782836914,-14.61890983581543
1,701995,-27.30064582824707,18.564111709594727,24.26117515563965,9.657756805419922
1,701995,14.059653282165527,51.434104919433594,35.189056396484375,4.374513149261475
1,701996,51.402732849121094,-10.25233268737793,-27.17998695373535,-5.601102352142334
1,701996,-24.460620880126953,-12.234500885009766,-4.020263671875,13.90928840637207
1,701996,-41.64802169799805,6.6823554039001465,21.478899002075195,3.413686990737915
1,701996,25.250139236450195,10.618228912353516,-22.146480560302734,-22.35362434387207
1,701996,28.730751037597656,-7.83151388168335,-37.18825149536133,-18.15585708618164
1,701997,-10.038955688476562,7.675387382507324,20.499095916748047,16.02743148803711
1,701997,-35.639835357666016,4.327888011932373,33.147186279296875,10.91841983795166
1,701997,6.604889392852783,-9.575233459472656,-16.261737823486328,-15.30823802947998
1,701997,26.269805908203125,17.241487503051758,-11.027713775634766,-16.967531204223633
1,701997,-7.165770530700684,8.227858543395996,30.09796905517578,14.331319808959961
1,701997,-6.9486403465271,-6.934255123138428,26.76842498779297,33.625118255615234
1,701998,6.671133041381836,-9.247493743896484,-22.727136611938477,-31.005035400390625
1,701998,30.06123161315918,2.7764053344726562,-26.603233337402344,-33.99738311767578
1,701998,-10.973413467407227,1.8690533638000488,-8.343326568603516,14.981769561767578
1,701998,-43.59512710571289,-3.9794092178344727,-8.073904037475586,44.31397247314453
1,701998,13.306529998779297,8.906622886657715,2.576422929763794,18.238008499145508
1,701998,30.069141387939453,-36.700828552246094,-7.481953144073486,-52.496124267578125
1,701999,-30.041484832763672,-5.596487998962402,0.23801887035369873,8.205656051635742
1,701999,-18.290414810180664,40.0381965637207,34.02782440185547,26.424484252929688
1,701999,31.401803970336914,-13.304771423339844,2.0970144271850586,-32.44328308105469
1,701999,1.2884070873260498,-12.547972679138184,-31.21503257751465,-10.864673614501953
1,701999,-10.6542387008667,-13.599893569946289,6.52726411819458,15.303315162658691
1,701999,-0.7976341247558594,8.634184837341309,27.987163543701172,30.956119537353516
1,702000,2.2154529094696045,25.336856842041016,-7.126281261444092,7.978248596191406
1,702000,7.228849411010742,-19.917539596557617,-26.293977737426758,-12.33476448059082
1,702000,9.89918327331543,2.5486865043640137,1.8924742937088013,-10.344290733337402
1,702000,-3.078956365585327,3.0818734169006348,9.623034477233887,2.1938729286193848
1,702000,-6.410017490386963,-30.42049789428711,-2.7659952640533447,0.5090726613998413
1,702000,17.84450912475586,4.860046863555908,-18.520265579223633,-20.398761749267578
1,702001,-25.339645385742188,25.95749282836914,13.67036247253418,17.24420928955078
1,702001,-32.57632064819336,27.277503967285156,41.98012161254883,28.008779525756836
1,702001,33.98475646972656,-16.874053955078125,-43.96942138671875,-40.830848693847656
1,702001,9.52505874633789,-43.62030792236328,-52.49032974243164,-48.65642166137695
1,702001,-10.708969116210938,28.783912658691406,50.72351837158203,49.18113327026367
1,702001,4.083738803863525,-2.446772336959839,26.54524040222168,47.874305725097656
1,702002,13.206833839416504,-5.4717535972595215,-40.76906967163086,-30.324665069580078
1,702002,9.30516242980957,30.393957138061523,33.01115417480469,-26.225353240966797
1,702002,-24.566709518432617,-29.296846389770508,38.901214599609375,24.9661922454834
1,702002,10.115164756774902,27.560253143310547,-40.925106048583984,19.502140045166016
1,702002,-1.594604253768921,15.471572875976562,-27.22141456604004,-59.17996597290039
1,702002,-27.676992416381836,-62.711185455322266,29.013120651245117,6.632425785064697
1,702003,19.481971740722656,19.690492630004883,34.45555877685547,67.98126983642578
1,702003,29.086706161499023,32.49961853027344,-23.851991653442383,-48.37407684326172
1,702004,-1.8962008953094482,-45.3829231262207,-29.204875946044922,-28.466815948486328
1,702004,-37.79315185546875,6.420498847961426,9.589134216308594,50.44446563720703
1,702004,-23.884191513061523,40.00312423706055,17.38030433654785,6.992799282073975
1,702005,32.303436279296875,-14.61126708984375,-4.746814727783203,-46.14202880859375
1,702005,26.675413131713867,-31.27334976196289,-5.836754322052002,-2.5394906997680664
1,702005,-20.515920639038086,-13.821968078613281,-7.463523864746094,35.32500076293945
1,702006,-8.29637622833252,14.949311256408691,-16.22072982788086,-9.731760025024414
1,702009,15.547642707824707,3.984248399734497,7.607929229736328,-7.522622108459473
1,702010,-3.918301582336426,7.14961576461792,4.295720100402832,6.945143699645996
1,702013,-4.843101978302002,28.53246307373047,7.140289783477783,11.551268577575684
1,702014,4.183372497558594,-16.96950340270996,-6.410209655761719,-15.945621490478516
1,702017,-24.423446655273438,-36.803524017333984,-12.969771385192871,-34.81972122192383
1,702018,-20.46619987487793,-27.79657554626465,-0.6932842135429382,-11.529884338378906
1,702021,5.980588436126709,27.972671508789062,19.280208587646484,44.00334930419922
1,702022,53.495269775390625,94.73176574707031,14.850175857543945,31.232263565063477
1,702025,18.784746170043945,-18.10332679748535,-13.995390892028809,-41.17853546142578
1,702026,-38.97332000732422,-31.886167526245117,29.49440574645996,28.848241806030273
1,702029,17.496036529541016,39.02623748779297,3.0595648288726807,26.640750885009766
1,702030,11.225887298583984,-37.34300994873047,-30.604393005371094,-17.0480899810791
1,702033,-13.271041870117188,-96.80047607421875,-20.250194549560547,-49.974464416503906
1,702034,-54.882991790771484,-25.406274795532227,-15.506214141845703,-57.20670700073242
1,702037,-10.37887954711914,157.6599578857422,41.60773468017578,105.961669921875
1,702038,76.13314819335938,54.91199493408203,30.400760650634766,48.18970489501953
1,702041,-18.419769287109375,-117.27578735351562,-30.437847137451172,-80.09927368164062
1,702042,-24.756738662719727,14.014163970947266,-12.689969062805176,13.567851066589355
1,702045,12.555339813232422,32.90956115722656,20.72676658630371,18.826553344726562
1,702163,9.719554901123047,-5.705544948577881,-4.191440105438232,-21.331714630126953
1,702163,25.837390899658203,2.5772812366485596,-22.26444435119629,5.321787357330322
1,702163,-13.643946647644043,-10.735054969787598,16.13180160522461,-10.322345733642578
1,702163,-6.3775224685668945,11.8141450881958,17.940385818481445,22.557966232299805
1,702163,13.078478813171387,9.585722923278809,-25.430734634399414,16.044506072998047
1,702164,-17.527915954589844,-16.258638381958008,12.48979377746582,-36.61320495605469
1,702164,-1.3519937992095947,-38.83198928833008,1.8069484233856201,-11.109359741210938
1,702164,21.06226921081543,4.058939456939697,-46.994510650634766,5.1763596534729
1,702164,-31.035415649414062,-1.4320515394210815,8.531646728515625,7.396964073181152
1,702164,-19.411060333251953,-19.31215476989746,23.91436767578125,-12.157953262329102
1,702165,26.422924041748047,3.105668544769287,-6.999494552612305,-6.183813095092773
1,702165,-7.529982566833496,-11.401290893554688,-0.31373322010040283,14.193963050842285
1,702165,-26.09235382080078,23.497819900512695,13.473981857299805,12.505026817321777
1,702165,13.870471000671387,40.51751708984375,21.622909545898438,-9.393634796142578
1,702165,32.416072845458984,-9.130645751953125,-4.7979207038879395,-18.096208572387695
1,702165,6.139485836029053,-18.720508575439453,-42.46993637084961,8.807888984680176
1,702166,-12.757363319396973,-6.871789932250977,8.312844276428223,14.122916221618652
1,702166,-26.747196197509766,-25.2835750579834,24.01795768737793,9.891484260559082
1,702166,-9.864428520202637,10.246875762939453,-11.824822425842285,-13.139506340026855
1,702166,27.149600982666016,32.19514465332031,10.43134880065918,-29.075199127197266
1,702166,10.359801292419434,-25.456470489501953,-26.560686111450195,13.104308128356934
1,702166,-15.708230972290039,-15.043766021728516,-13.107522010803223,44.432621002197266
1,702167,3.2081685066223145,41.51188659667969,52.027706146240234,-26.275802612304688
1,702167,27.663908004760742,25.834646224975586,7.171167373657227,-33.060150146484375
1,702167,-0.16442520916461945,-24.55894660949707,-20.380800247192383,25.2744083404541
1,702167,-32.67753601074219,-25.352556228637695,-9.17948055267334,-0.8846680521965027
1,702167,8.662779808044434,10.302579879760742,-10.553760528564453,7.73665714263916
1,702168,6.425055980682373,-2.104269504547119,-4.585407257080078,20.856121063232422
1,702168,-22.509044647216797,-11.19896411895752,23.596351623535156,5.111158847808838
1,702168,8.340154647827148,20.22194480895996,23.851699829101562,-8.608956336975098
1,702168,2.036630153656006,19.683286666870117,-28.125160217285156,-13.322994232177734
1,702168,6.660274505615234,-9.041057586669922,0.29907333850860596,-13.512447357177734
1,702168,10.766711235046387,1.818782091140747,19.356998443603516,-2.1593055725097656
1,702169,-4.37000036239624,-7.901116847991943,-13.271732330322266,24.72728157043457
1,702169,-1.1086578369140625,-31.812047958374023,0.6037806868553162,-1.6022151708602905
1,702169,-4.103966236114502,23.22520637512207,-16.122262954711914,-20.86113166809082
1,702169,4.766172409057617,24.451683044433594,-19.60976219177246,1.483430027961731
1,702169,-13.497395515441895,-21.631059646606445,16.523052215576172,3.2388477325439453
1,702169,-9.302351951599121,-11.358323097229004,11.15599536895752,-2.106468915939331
1,702170,16.281330108642578,24.220083236694336,-0.8409865498542786,-1.3724254369735718
1,702170,3.691969633102417,-1.2599362134933472,7.472143650054932,0.4711310863494873
1,702170,-3.8241400718688965,-27.031841278076172,-17.755630493164062,-2.532789707183838
1,702170,-24.433664321899414,-3.0626657009124756,-13.457606315612793,-29.344480514526367
1,702170,-31.788761138916016,2.1118686199188232,2.6526031494140625,18.698810577392578
1,702170,38.907981872558594,37.8505973815918,29.745378494262695,36.03699493408203
1,702171,70.09497833251953,16.54317283630371,45.24705505371094,5.247735023498535
1,702171,-6.016923904418945,-41.96323013305664,-19.476646423339844,10.10046100616455
1,702171,-39.52680206298828,10.625972747802734,-31.884626388549805,-29.151447296142578
1,702171,-8.35867977142334,47.1357421875,2.7576069831848145,-1.370265007019043
1,702171,36.01829147338867,-35.4588508605957,-5.084301471710205,-2.3198580741882324
1,702171,9.800518035888672,-54.1854133605957,-22.22012710571289,-0.6458850502967834
1,702172,-84.67413330078125,18.885507583618164,-2.703878879547119,30.476154327392578
1,702172,6.922804832458496,10.214251518249512,28.91501808166504,-15.547113418579102
1,702172,81.3864517211914,-2.2240726947784424,15.378174781799316,-0.6002293825149536
1,702172,-32.11485290527344,34.184356689453125,-44.59855651855469,-4.398590087890625
1,702172,-36.60997772216797,-11.208226203918457,-9.608633995056152,-33.61288833618164
1,702172,21.61252784729004,-60.18607711791992,20.523693084716797,-22.331838607788086
1,702173,-8.718213081359863,-2.9921815395355225,-11.261899948120117,27.57596778869629
1,702173,-17.04839324951172,23.951576232910156,19.815677642822266,32.333980560302734
1,702174,37.63655471801758,-2.802856683731079,-0.9196373224258423,-26.520732879638672
1,702174,-13.23845100402832,4.872109413146973,-8.44031047821045,-6.889771461486816
1,702174,-29.877546310424805,10.254199981689453,19.909709930419922,-0.4352644085884094
1,702175,37.00809097290039,-14.96938419342041,-7.014265537261963,-8.608922958374023
1,702175,-31.79963493347168,-15.194510459899902,-19.697946548461914,20.012508392333984
1,702176,-32.27189254760742,9.155104637145996,9.626349449157715,5.700360298156738
1,702177,41.228633880615234,-2.576009511947632,25.91701889038086,-1.5544461011886597
1,702179,14.736943244934082,12.523303985595703,-20.080066680908203,-11.454005241394043
1,702181,-3.656480073928833,48.355010986328125,8.948468208312988,-1.2135775089263916
1,702183,13.62170696258545,37.309654235839844,52.583251953125,61.53879165649414
1,702185,3.4545583724975586,-11.29643440246582,-24.6460018157959,4.34039831161499
1,702187,-8.673601150512695,-29.739355087280273,-22.047021865844727,-45.789085388183594
1,702189,6.861077785491943,-8.230491638183594,-5.4266357421875,-1.398377776145935
1,702191,0.9081540107727051,-26.972789764404297,-30.084007263183594,23.996261596679688
1,702193,-12.114819526672363,-5.075838565826416,23.852354049682617,0.7692193388938904
1,702195,4.31664514541626,47.809120178222656,17.29591178894043,-64.24615478515625
1,702197,10.077543258666992,4.346381187438965,-8.810768127441406,0.16364498436450958
1,702199,4.029897689819336,-48.42726135253906,-11.542433738708496,52.910186767578125
1,702202,-10.634683609008789,18.229141235351562,1.9849088191986084,-8.489823341369629
1,702203,-11.499396324157715,24.0913143157959,10.369158744812012,-11.713759422302246
1,702204,-3.834331512451172,-34.90311050415039,-19.599002838134766,9.2570219039917
1,702207,4.5346784591674805,15.516535758972168,13.81883716583252,4.111462593078613
1,702208,28.309280395507812,8.550137519836426,12.79626178741455,3.2832813262939453
1,702211,-0.11756318807601929,-58.06599807739258,-27.847732543945312,3.49834942817688
1,702212,-31.582395553588867,-32.74066162109375,-14.06323528289795,-13.807609558105469
1,702215,-8.173415184020996,70.052734375,39.263916015625,4.192546844482422
1,702216,23.886579513549805,80.37427520751953,41.31732940673828,16.359907150268555
1,702347,15.138141632080078,-54.60663604736328,-50.39448547363281,-22.991289138793945
1,702347,-35.798397064208984,-68.23954772949219,-39.27977752685547,-14.591940879821777
1,702347,-23.515613555908203,12.645174980163574,41.88631820678711,9.674666404724121
1,702347,12.26427936553955,5.50508451461792,6.889163494110107,-11.40416145324707
1,702348,10.77493953704834,27.285829544067383,-15.989026069641113,1.326340675354004
1,702348,21.94315528869629,47.285858154296875,-3.769005060195923,14.782554626464844
1,702348,22.49643325805664,-22.442401885986328,-9.64600658416748,18.546823501586914
1,702348,8.088387489318848,-23.92662811279297,12.985410690307617,12.084488868713379
1,702348,-35.0546989440918,39.47075653076172,16.949234008789062,-15.676054954528809
1,702348,-18.913846969604492,-20.228124618530273,-12.736214637756348,0.2141454964876175
1,702349,23.464937210083008,-51.7801513671875,-13.783066749572754,16.283489227294922
1,702349,-20.22950553894043,14.156562805175781,7.169404029846191,-17.46341896057129
1,702349,-7.212416648864746,17.965269088745117,23.659944534301758,-23.974443435668945
1,702349,9.014094352722168,11.678175926208496,18.294055938720703,3.1431515216827393
1,702349,5.183407306671143,11.792896270751953,-17.918987274169922,4.620979309082031
1,702350,25.9212646484375,-0.8184724450111389,-3.160240888595581,5.525721549987793
1,702350,-22.16374969482422,-26.73191261291504,6.349891662597656,-9.972891807556152
1,702350,-12.998832702636719,-10.924087524414062,-16.713123321533203,14.127586364746094
1,702350,24.908960342407227,50.543251037597656,-6.489767074584961,18.803970336914062
1,702350,-2.2908987998962402,-5.238760948181152,-27.729480743408203,-7.823904514312744
1,702350,-5.897557735443115,-47.02591323852539,13.960408210754395,-21.821264266967773
1,702351,10.355093955993652,1.0710842609405518,41.659297943115234,-26.965473175048828
1,702351,-7.505061149597168,2.624622344970703,-29.619850158691406,29.98321533203125
1,702351,-8.594674110412598,8.70073127746582,-22.859018325805664,6.34980583190918
1,702351,14.333861351013184,-17.81257438659668,-4.161815643310547,-30.53279685974121
1,702351,-31.498291015625,-14.9979829788208,11.743880271911621,22.01177978515625
1,702351,-4.235677719116211,46.011043548583984,45.438453674316406,-5.868459701538086
1,702352,26.11777687072754,-5.062546253204346,-5.705413818359375,-12.51504135131836
1,702352,-36.34291458129883,-13.079483985900879,-23.237937927246094,45.496551513671875
1,702352,16.07904052734375,38.31896209716797,23.14396095275879,-22.968080520629883
1,702352,55.78374481201172,-19.601043701171875,-15.555115699768066,-59.026153564453125
1,702352,-24.073810577392578,-46.26559829711914,-29.971349716186523,21.996347427368164
1,702353,-28.964378356933594,23.467815399169922,3.5207619667053223,25.961103439331055
1,702353,16.687599182128906,18.128965377807617,9.543041229248047,0.19297437369823456
1,702353,0.5874994993209839,-29.309356689453125,0.8716835975646973,7.3107171058654785
1,702353,-36.86606979370117,-3.72419810295105,-7.791085720062256,-4.269557952880859
1,702353,-15.432882308959961,15.965734481811523,24.981693267822266,0.44592833518981934
1,702353,35.94150161743164,34.395591735839844,42.05810546875,28.4361572265625
1,702353,30.034042358398438,-1.5475246906280518,-29.192365646362305,0.02459993213415146
1,702354,15.542859077453613,-15.748786926269531,-33.44599151611328,-24.10746955871582
1,702354,0.14790761470794678,8.595890998840332,27.2531681060791,-0.27896514534950256
1,702354,-39.6805305480957,-23.79191017150879,-9.368756294250488,11.803048133850098
1,702354,-22.75342559814453,19.01636505126953,49.563743591308594,43.40203857421875
1,702354,86.92611694335938,46.73533630371094,12.907692909240723,3.4879069328308105
1,702354,19.11670684814453,-13.070954322814941,-106.78462219238281,-59.413856506347656
1,702355,-86.31816864013672,-40.93013000488281,9.306550979614258,-27.238887786865234
1,702355,9.785772323608398,-4.44348669052124,34.10341262817383,15.665817260742188
1,702355,-3.310547113418579,19.527286529541016,-19.273515701293945,25.244836807250977
1,702355,-34.722869873046875,-7.475536346435547,12.057356834411621,8.061025619506836
1,702355,29.53284454345703,-17.833358764648438,7.702859878540039,-12.25380802154541
1,702356,23.249011993408203,-9.315953254699707,-15.39980411529541,7.085965633392334
1,702356,-28.1936092376709,-19.49955177307129,-14.805707931518555,5.392091751098633
1,702356,-16.69438362121582,-2.6228384971618652,33.45377731323242,-7.321806907653809
1,702356,37.01342010498047,51.32857131958008,28.43976593017578,1.2973241806030273
1,702356,5.341407299041748,33.61210632324219,-25.173887252807617,-17.087018966674805
1,702356,-17.247888565063477,-66.90593719482422,-12.222576141357422,3.9680826663970947
1,702357,28.71533203125,-13.964141845703125,25.299699783325195,21.08530044555664
1,702357,6.508815765380859,96.40821838378906,-2.889772415161133,-12.52782917022705
1,702357,-34.74721145629883,-49.225929260253906,-17.95890998840332,-14.267260551452637
1,702357,-10.174805641174316,-70.38638305664062,24.475055694580078,22.83228874206543
1,702357,24.59247589111328,83.41217041015625,-9.235437393188477,7.932587623596191
1,702357,7.6692705154418945,24.942834854125977,-31.580278396606445,-58.81391143798828
1,702358,-24.967174530029297,-68.91824340820312,-2.5960841178894043,-10.528449058532715
1,702358,6.413140773773193,-5.24308443069458,11.330958366394043,53.17646026611328
1,702358,14.212684631347656,41.38613510131836,31.70610809326172,-6.950174331665039
1,702359,-2.007753610610962,2.236555337905884,-4.090758800506592,-29.17525291442871
1,702359,-7.731136798858643,-9.719954490661621,-47.27507781982422,10.126513481140137
1,702360,-6.531429290771484,-3.1619956493377686,-3.44037127494812,13.838677406311035
1,702360,7.722999095916748,-11.550760269165039,15.905386924743652,-4.754168510437012
1,702360,-16.97107696533203,-6.5022478103637695,-13.289080619812012,2.3921844959259033
1,702360,-5.7711944580078125,23.115880966186523,13.025505065917969,-3.485119581222534
1,702361,22.171815872192383,12.916840553283691,29.33074378967285,-21.510833740234375
1,702363,2.5839691162109375,-10.916781425476074,-2.547609806060791,30.39130210876465
1,702365,-15.807281494140625,-33.07394790649414,-15.08452033996582,36.03178024291992
1,702367,-3.2695906162261963,-20.348102569580078,-18.28345489501953,-17.744369506835938
1,702369,-18.133930206298828,-18.713937759399414,-13.941882133483887,-18.74867057800293
1,702371,-0.35087794065475464,-39.76784133911133,9.295110702514648,-12.520798683166504
1,702373,41.31492233276367,72.2022933959961,54.00239944458008,29.013343811035156
1,702375,10.714325904846191,92.76155853271484,26.063358306884766,13.878040313720703
1,702377,-14.272635459899902,-32.50759506225586,-62.814674377441406,-31.510007858276367
1,702379,-7.873505592346191,-30.22393035888672,-11.833413124084473,13.629409790039062
1,702381,9.14417552947998,15.48687744140625,29.177690505981445,9.643327713012695
1,702383,12.190546989440918,17.737964630126953,-11.483284950256348,-33.543296813964844
1,702386,-1.3021794557571411,-8.07210636138916,7.978884696960449,-27.61767578125
1,702387,-11.331857681274414,-38.363555908203125,7.541390419006348,4.356409072875977
1,702388,1.051220417022705,6.766856670379639,6.769347190856934,56.1264762878418
1,702391,9.392741203308105,26.81954002380371,-9.54494571685791,30.21905517578125
1,702392,7.774958610534668,-20.41372299194336,-19.59099769592285,-34.194915771484375
1,702395,-16.072702407836914,-29.511817932128906,4.039384841918945,-9.949795722961426
1,702396,-32.925262451171875,-1.898533582687378,8.880106925964355,-0.41973233222961426
1,702399,-9.445687294006348,-36.95677185058594,-10.5844087600708,-36.336612701416016
1,702400,-24.542009353637695,-39.66823959350586,-48.258975982666016,-45.01579284667969
1,702403,50.088035583496094,106.67389678955078,32.79762649536133,39.2575798034668
1,702543,50.721736907958984,59.756656646728516,38.44224166870117,71.2232666015625
1,702543,-79.77448272705078,-73.16787719726562,-19.46593475341797,-10.818316459655762
1,702543,17.17756462097168,12.43185043334961,10.3546781539917,-21.73406410217285
1,702543,65.76934814453125,31.174034118652344,-21.26289176940918,-11.284093856811523
1,702544,-33.31224060058594,-11.345054626464844,7.854106426239014,-0.40668821334838867
1,702544,-2.458894968032837,7.588476657867432,49.95223617553711,30.733430862426758
1,702544,13.411381721496582,-3.4699485301971436,-11.329337120056152,16.62026596069336
1,702544,13.475179672241211,-3.8874449729919434,-33.41691970825195,-14.730740547180176
1,702544,-6.972947120666504,2.7850828170776367,1.1722174882888794,-0.855583667755127
1,702545,-54.94833755493164,-31.202289581298828,13.911108016967773,20.479503631591797
1,702545,29.03316879272461,5.540331840515137,6.842434883117676,-19.667766571044922
1,702545,29.723634719848633,40.126121520996094,-11.887939453125,-43.73622131347656
1,702545,-49.05276107788086,-14.798151016235352,-1.3018901348114014,-10.456156730651855
1,702545,2.7464728355407715,-34.815616607666016,-9.253397941589355,7.605143070220947
1,702545,14.468534469604492,-19.917728424072266,-12.26366901397705,14.607851028442383
1,702546,-34.170589447021484,37.07237243652344,11.963050842285156,9.769949913024902
1,702546,14.62094497680664,31.37666130065918,-13.084495544433594,-19.743915557861328
1,702546,43.545982360839844,-40.32783889770508,-1.1441407203674316,-10.035262107849121
1,702546,-13.93275260925293,5.13879919052124,9.019556045532227,32.57268142700195
1,702546,-22.460346221923828,29.384593963623047,14.920275688171387,24.876514434814453
1,702546,5.1601362228393555,-19.083946228027344,0.7146002054214478,-18.165742874145508
1,702547,-20.212385177612305,-29.71452522277832,-29.83052635192871,-17.344106674194336
1,702547,-11.708828926086426,-18.011533737182617,4.95648717880249,15.246548652648926
1,702547,45.165687561035156,27.968727111816406,42.47481918334961,10.685441970825195
1,702547,29.484092712402344,33.20356750488281,21.966461181640625,-16.704349517822266
1,702547,-19.23646354675293,-19.468297958374023,-37.9554443359375,-14.714993476867676
1,702547,-29.676734924316406,-21.373714447021484,-13.58613395690918,21.632965087890625
1,702548,1.1631224155426025,14.51413345336914,22.58795928955078,6.741542339324951
1,702548,37.044734954833984,14.440583229064941,-20.60849380493164,-25.633264541625977
1,702548,10.31177806854248,-12.741965293884277,-24.115922927856445,18.619932174682617
1,702548,-39.09970474243164,-7.899895668029785,24.67648696899414,11.73598575592041
1,702548,-13.131629943847656,-7.443109035491943,12.51694393157959,-21.643918991088867
1,702549,16.43768310546875,12.605415344238281,-27.616044998168945,-3.9596080780029297
1,702549,16.318349838256836,14.35304069519043,6.597646713256836,1.5457737445831299
1,702549,-1.029599905014038,-24.83332633972168,19.11772346496582,5.9003729820251465
1,702549,-28.095796585083008,7.85854434967041,-5.9679388999938965,-9.656521797180176
1,702549,4.667675971984863,7.971556663513184,-26.873842239379883,-23.61117172241211
1,702549,6.638213157653809,-31.535985946655273,-17.876758575439453,14.275829315185547
1,702550,-6.834445953369141,-0.5667314529418945,14.021201133728027,14.11876392364502
1,702550,-7.162009239196777,3.6698098182678223,25.25977325439453,-3.9664015769958496
1,702550,-27.603824615478516,-1.2708324193954468,17.616111755371094,2.5923707485198975
1,702550,8.170662879943848,28.366897583007812,-16.828290939331055,-31.375320434570312
1,702550,23.688282012939453,-4.336526393890381,-1.8446481227874756,-20.477819442749023
1,702550,3.235337257385254,6.600718021392822,-2.5125815868377686,50.68492889404297
1,702551,-9.073920249938965,51.77903747558594,0.7187313437461853,16.077634811401367
1,702551,1.631048321723938,-20.295326232910156,47.778564453125,-7.587871074676514
1,702551,30.483821868896484,-49.20911407470703,-18.412443161010742,28.37138557434082
1,702551,-17.232566833496094,2.097634792327881,-33.84403991699219,-6.750535011291504
1,702551,-5.190216064453125,26.11102294921875,49.05311965942383,6.971042633056641
1,702551,48.41472625732422,35.28213882446289,-9.592154502868652,-0.748881995677948
1,702552,-14.970978736877441,-17.53650665283203,-67.80219268798828,-33.010345458984375
1,702552,-38.32666778564453,-58.85734939575195,17.843185424804688,19.971405029296875
1,702552,10.018343925476074,11.014388084411621,50.86103820800781,13.435982704162598
1,702552,23.834766387939453,32.292362213134766,-42.03529357910156,-30.365039825439453
1,702552,-6.544134616851807,-37.54595184326172,-25.15183448791504,-14.379682540893555
1,702552,-27.778688430786133,-16.029155731201172,56.37596130371094,8.424612045288086
1,702553,13.249788284301758,58.05162048339844,-20.30545997619629,-14.12663745880127
1,702553,-4.905496597290039,-3.6667771339416504,-37.943668365478516,-11.706217765808105
1,702553,-17.311717987060547,-54.09644317626953,44.842857360839844,45.60735321044922
1,702553,25.155000686645508,40.179405212402344,34.129703521728516,29.010021209716797
1,702553,2.7516608238220215,26.919363021850586,-16.461599349975586,-34.74406051635742
1,702553,23.281648635864258,-24.308311462402344,-27.938241958618164,-17.4973201751709
1,702554,2.7958598136901855,15.741886138916016,-8.570507049560547,29.13231658935547
1,702554,-43.56581115722656,13.3744478225708,11.307893753051758,-17.47334098815918
1,702554,12.24947738647461,-19.118114471435547,-12.213772773742676,-51.75617218017578
