Aktueller Finger,timestamp_ms,sensor_0,sensor_1,sensor_2,sensor_3
0,409261,13.11238956451416,-7.8961310386657715,-21.042720794677734,57.6550178527832
0,409263,-25.291282653808594,8.03548526763916,11.797859191894531,16.817142486572266
0,409265,11.31032943725586,-3.9985971450805664,14.931272506713867,-22.44895362854004
0,409267,4.363394260406494,-13.409113883972168,-26.9875431060791,4.21805477142334
0,409269,-20.742448806762695,20.246206283569336,15.952156066894531,29.60208511352539
0,409271,13.624295234680176,16.183481216430664,8.594461441040039,-19.504169464111328
0,409273,20.79336929321289,-4.873254299163818,1.097921371459961,-24.27962303161621
0,409281,-0.6105316877365112,-15.616924285888672,-15.720144271850586,29.2761173248291
0,409281,-9.828920364379883,-5.224965572357178,-30.676183700561523,4.560181617736816
0,409281,0.22109749913215637,13.134328842163086,16.438142776489258,-2.87394380569458
0,409281,6.61376428604126,-20.13566780090332,18.62812614440918,-2.764106273651123
0,409282,-5.9006195068359375,-3.551797389984131,23.169410705566406,5.212044715881348
0,409285,-17.14794921875,29.641510009765625,-3.3259379863739014,25.863428115844727
0,409286,-9.4205322265625,-14.031088829040527,-13.789631843566895,-42.30352020263672
0,409289,25.50347900390625,-7.31216287612915,3.4157826900482178,-25.913986206054688
0,409290,13.715174674987793,14.223841667175293,-20.18793487548828,49.2494010925293
0,409293,-29.13351058959961,-17.07822608947754,16.168201446533203,-1.8882207870483398
0,409294,-4.355056285858154,13.660933494567871,11.465065002441406,-21.423852920532227
0,409297,0.263001948595047,6.019054412841797,-3.1946239471435547,37.06002426147461
0,409299,8.571581840515137,-20.357894897460938,0.6398076415061951,4.84611177444458
0,409301,35.26268768310547,13.279884338378906,-35.828556060791016,-74.12681579589844
0,409303,-26.43358612060547,6.3895463943481445,25.492084503173828,16.226430892944336
0,409324,-36.46908187866211,-16.647897720336914,15.407676696777344,62.78178405761719
0,409324,23.072429656982422,-2.1998698711395264,-52.56187438964844,-29.727371215820312
0,409325,13.904428482055664,20.5266056060791,10.99329948425293,-22.008869171142578
0,409325,0.7739981412887573,5.5499958992004395,29.811464309692383,3.419955253601074
0,409325,12.184154510498047,-28.587499618530273,-9.58328914642334,4.323808193206787
0,409325,-14.049185752868652,-8.119771003723145,9.409668922424316,4.87701416015625
0,409325,-17.092620849609375,25.8757381439209,-5.2563910484313965,-14.879256248474121
0,409325,3.6928162574768066,0.003666194388642907,-15.235589981079102,-1.1983680725097656
0,409326,-1.2226872444152832,-10.120125770568848,28.0224552154541,16.357145309448242
0,409326,5.589843273162842,2.1651244163513184,6.647312641143799,-10.25890064239502
0,409326,24.554899215698242,4.701559543609619,-20.85516929626465,-7.016503810882568
0,409327,8.016297340393066,16.16896629333496,-5.985790252685547,11.854707717895508
0,409328,-23.233928680419922,-6.206718921661377,5.500183582305908,-2.352358341217041
0,409331,-23.356292724609375,-17.088581085205078,8.941312789916992,22.19688606262207
0,409333,3.0544917583465576,8.148282051086426,5.433869361877441,19.144739151000977
0,409335,21.317365646362305,-10.30843734741211,-11.16958236694336,-30.745834350585938
0,409337,9.246970176696777,-5.313935279846191,-16.731340408325195,-2.7294554710388184
0,409339,2.5628490447998047,15.833574295043945,13.294816970825195,32.43960189819336
0,409341,-3.3980281352996826,9.156241416931152,15.000395774841309,6.755726337432861
0,409343,-10.208871841430664,-10.238410949707031,-30.965660095214844,-17.53526496887207
0,409345,-0.27052047848701477,-6.323462963104248,-29.08687973022461,-27.767362594604492
0,409347,-2.205427885055542,-2.2906723022460938,39.43070602416992,-24.231840133666992
0,409349,2.1772875785827637,-29.178909301757812,33.35336685180664,9.948929786682129
0,409383,0.5178449749946594,25.174999237060547,-21.60563850402832,14.706059455871582
0,409383,-10.48108959197998,51.96467971801758,-3.9891269207000732,5.262034893035889
0,409383,17.389162063598633,-28.029977798461914,-8.19526195526123,1.2508879899978638
0,409383,-0.03759123012423515,-57.7554817199707,-9.210376739501953,0.0415840782225132
0,409384,-17.332395553588867,29.863107681274414,21.701814651489258,3.7923498153686523
0,409384,13.071846008300781,49.185367584228516,8.24084186553955,-25.73664093017578
0,409384,-0.7571855187416077,-19.998613357543945,0.6196982264518738,29.981260299682617
0,409384,-21.617900848388672,-10.993494987487793,10.528138160705566,28.696321487426758
0,409384,-1.7811834812164307,-3.3833649158477783,-3.0476272106170654,-39.889244079589844
0,409384,29.0300350189209,-3.955348253250122,-34.63267135620117,6.031432628631592
0,409385,4.905009746551514,22.101333618164062,-17.40558624267578,6.895998477935791
0,409385,-35.60811996459961,-21.66071128845215,14.181757926940918,-6.126669883728027
0,409385,-0.3597567081451416,-19.607646942138672,21.164409637451172,-6.188778400421143
0,409385,17.556495666503906,38.14744186401367,10.247156143188477,-17.7105712890625
0,409385,7.789318084716797,13.750020027160645,-9.547200202941895,12.228564262390137
0,409386,21.733781814575195,-16.0917911529541,-2.7179839611053467,-12.907591819763184
0,409386,-22.85783576965332,-30.979795455932617,-7.945411205291748,-7.567486763000488
0,409387,-1.4607146978378296,-2.311941385269165,-9.414739608764648,27.75474739074707
0,409387,31.223522186279297,18.418184280395508,-17.30915069580078,-2.061223030090332
0,409389,-38.0018196105957,-1.4675519466400146,21.171871185302734,12.783018112182617
0,409391,-18.302160263061523,-6.313701152801514,40.08150100708008,11.001619338989258
0,409393,14.924897193908691,7.5070600509643555,-23.653844833374023,-29.299074172973633
0,409395,3.8181326389312744,6.309182167053223,-5.100773811340332,-5.875932216644287
0,409397,19.27412223815918,-23.129480361938477,16.852846145629883,15.649914741516113
0,409399,1.74826180934906,8.144335746765137,-16.698589324951172,6.974857330322266
0,409401,-7.3601484298706055,29.051551818847656,2.3030056953430176,14.459094047546387
0,409403,-14.288986206054688,-18.267269134521484,-6.642777442932129,-13.504118919372559
0,409405,-27.436817169189453,-26.363727569580078,-25.68840217590332,-35.736568450927734
0,409407,16.445289611816406,34.808868408203125,38.557037353515625,23.991382598876953
0,409409,46.91030502319336,17.73946762084961,29.259958267211914,12.86778450012207
0,409411,7.754330635070801,-39.20568084716797,-40.17076873779297,-65.0529556274414
0,409456,-31.727514266967773,2.859661340713501,-20.984649658203125,28.14280128479004
0,409457,-24.427894592285156,24.214414596557617,16.166696548461914,79.63927459716797
0,409457,-2.1802260875701904,-13.274886131286621,6.177544116973877,-38.70375061035156
0,409457,9.426756858825684,-13.66823959350586,8.172746658325195,-22.355409622192383
0,409457,-0.14112015068531036,25.08376121520996,22.39511489868164,29.309507369995117
0,409457,3.721435546875,13.934591293334961,-1.9098840951919556,-9.672707557678223
0,409457,8.348158836364746,-20.815080642700195,-10.338240623474121,-6.021076202392578
0,409458,-11.028397560119629,-8.192635536193848,13.07131576538086,4.0683183670043945
0,409458,9.577424049377441,2.350151777267456,-13.64915943145752,-4.718818187713623
0,409458,12.64891529083252,1.0774438381195068,-19.421667098999023,3.8865461349487305
0,409458,-12.42140007019043,-9.37544059753418,7.516046047210693,-3.00229549407959
0,409458,-7.0290446281433105,6.145939350128174,-4.968441486358643,-1.6412131786346436
0,409459,0.605915904045105,20.460262298583984,1.0574450492858887,5.520656108856201
0,409459,5.829684734344482,-11.266437530517578,3.6757094860076904,-16.88800621032715
0,409459,9.722024917602539,-15.446640014648438,-20.15440559387207,-0.9641973376274109
0,409459,-3.2425460815429688,-0.9573126435279846,-1.5147067308425903,13.44678020477295
0,409459,-12.382940292358398,16.43696403503418,33.95095443725586,-12.383872985839844
0,409459,16.656888961791992,26.883102416992188,-1.0244511365890503,5.776655197143555
0,409460,15.4954833984375,-20.922473907470703,-28.24668312072754,26.814571380615234
0,409460,-12.613113403320312,-18.980289459228516,13.651790618896484,-1.2396764755249023
0,409460,-17.28089714050293,5.704022407531738,-3.5794503688812256,-33.82217788696289
0,409460,0.906505823135376,-16.907678604125977,-30.567310333251953,-5.6247711181640625
0,409460,17.28795623779297,-7.492232799530029,14.460125923156738,9.034061431884766
0,409462,-22.08856964111328,17.77357292175293,0.7331505417823792,-15.096729278564453
0,409462,-19.02744483947754,17.77536964416504,-25.83648681640625,-11.11101245880127
0,409463,34.33938980102539,-25.727811813354492,15.422358512878418,23.30742835998535
0,409464,15.926913261413574,-17.432737350463867,-29.861820220947266,14.7548246383667
0,409467,-34.769527435302734,14.990718841552734,-14.77664566040039,-19.630720138549805
0,409468,-9.62152099609375,-0.049507707357406616,101.66617584228516,25.864099502563477
0,409471,1.8172909021377563,11.7907133102417,48.54151153564453,5.510669708251953
0,409472,10.083894729614258,33.0521125793457,-55.840538024902344,-32.78838348388672
0,409475,42.96706008911133,7.76386833190918,-25.91546630859375,18.502798080444336
0,409477,-20.117748260498047,-20.753414154052734,37.899112701416016,11.452604293823242
0,409479,-30.87527084350586,-12.39345932006836,-1.2221025228500366,-12.96826171875
0,409481,18.39678955078125,-12.731536865234375,-27.702417373657227,-15.104671478271484
0,409533,3.3238627910614014,-2.0781726837158203,-0.845635175704956,55.09754943847656
0,409533,0.5199048519134521,31.45085334777832,-2.0262749195098877,84.04447174072266
0,409533,17.84092140197754,12.42285442352295,-1.3018712997436523,-53.24878692626953
0,409533,-9.639273643493652,-34.454341888427734,-3.807467222213745,-60.260704040527344
0,409533,-18.833303451538086,-16.81794548034668,-11.300539016723633,15.427071571350098
0,409533,-10.383541107177734,15.285818099975586,0.07661926001310349,5.555286407470703
0,409534,-3.774548292160034,7.431428909301758,6.991135120391846,-6.83284330368042
0,409534,26.730581283569336,-0.8766274452209473,4.54074764251709,-10.073896408081055
0,409534,17.99964714050293,1.1619114875793457,24.37587547302246,11.526217460632324
0,409534,-14.007007598876953,0.18609784543514252,13.1316499710083,12.529739379882812
0,409534,-5.417379379272461,4.216014385223389,-17.21204948425293,-31.18781089782715
0,409534,-0.3204728662967682,-4.571749210357666,-21.637948989868164,-29.418306350708008
0,409535,-16.980377197265625,-16.8553409576416,-8.951048851013184,13.6864595413208
0,409535,-3.2720956802368164,8.280611991882324,21.090469360351562,-0.7880789041519165
0,409535,6.545483112335205,12.503974914550781,-2.425394296646118,-43.61003875732422
0,409535,-5.068174839019775,-8.458541870117188,-23.887868881225586,-10.483880996704102
0,409535,0.059205424040555954,16.149051666259766,10.367405891418457,23.14771842956543
0,409535,14.418329238891602,13.152192115783691,4.310596942901611,-23.40049934387207
0,409536,3.6968226432800293,-39.06772994995117,-6.5081706047058105,-17.579578399658203
0,409536,-3.224785566329956,-20.08685874938965,10.697979927062988,14.071932792663574
0,409536,5.224399566650391,33.0860710144043,8.301102638244629,10.382305145263672
0,409536,-3.984651803970337,1.2584598064422607,-4.800251007080078,13.164700508117676
0,409536,-12.903278350830078,-25.26596450805664,-11.050785064697266,-3.9916913509368896
0,409536,1.9458075761795044,9.31571102142334,-5.847021102905273,6.658564567565918
0,409537,8.800302505493164,11.664560317993164,-1.5186773538589478,16.786470413208008
0,409537,4.747203826904297,6.181479454040527,-3.9367082118988037,7.807790279388428
0,409538,5.140925884246826,-8.788816452026367,-3.188570499420166,9.585638999938965
0,409538,-11.846013069152832,-11.299163818359375,0.6435664296150208,4.6512346267700195
0,409539,-16.551692962646484,22.593660354614258,14.146722793579102,12.459515571594238
0,409541,11.48929214477539,11.724879264831543,14.77793025970459,23.284015655517578
0,409543,14.455789566040039,-9.378819465637207,-4.081580638885498,-6.146605014801025
0,409545,10.23764705657959,-8.980369567871094,-7.465912818908691,-32.24539566040039
0,409547,2.2095468044281006,-2.0813093185424805,-5.047499656677246,-2.6670830249786377
0,409549,-4.154169082641602,7.95150899887085,18.85846710205078,18.860546112060547
0,409551,8.900907516479492,10.662468910217285,35.40512466430664,22.934288024902344
0,409553,-17.781301498413086,-14.218066215515137,-33.25650405883789,3.422173500061035
0,409555,-14.989060401916504,-10.176915168762207,-26.080934524536133,-21.544357299804688
0,409557,23.603374481201172,24.871883392333984,31.015945434570312,3.9516234397888184
0,409559,-3.4455385208129883,-13.447039604187012,4.178729057312012,16.05558967590332
0,409561,-34.25820541381836,-16.728422164916992,-8.009986877441406,-8.774803161621094
0,409563,14.671263694763184,11.613454818725586,-29.539613723754883,-27.19700050354004
0,409565,1.9522716999053955,-16.058088302612305,-31.88409996032715,-44.01739501953125
0,409567,-23.861841201782227,9.946337699890137,17.20977020263672,5.330361843109131
0,409631,28.948383331298828,25.385839462280273,44.780433654785156,41.16056823730469
0,409631,1.8885403871536255,0.21466773748397827,10.523911476135254,-4.419808864593506
0,409631,-5.3755269050598145,4.648943901062012,-30.476760864257812,0.8821374773979187
0,409631,21.275470733642578,-26.696401596069336,-13.961345672607422,-1.6826401948928833
0,409631,-25.668851852416992,-19.504539489746094,20.918062210083008,0.18217703700065613
0,409631,-20.56187629699707,15.733708381652832,24.89756202697754,11.546759605407715
0,409632,14.137273788452148,6.781982421875,-4.041844844818115,-11.087501525878906
0,409632,9.554926872253418,-0.3873456120491028,-19.5573787689209,-14.159384727478027
0,409632,7.9305596351623535,2.3107638359069824,-10.836716651916504,-2.870013952255249
0,409632,-4.994087219238281,7.98337459564209,-7.2356390953063965,23.806333541870117
0,409632,-0.2264781892299652,-7.165152072906494,-4.921618461608887,11.759491920471191
0,409633,18.809019088745117,-6.670325756072998,15.13376235961914,-10.440962791442871
0,409633,2.5519888401031494,4.942986011505127,3.173980712890625,-12.718534469604492
0,409633,-18.60625457763672,-5.270252227783203,-21.945253372192383,-12.768340110778809
0,409633,1.8210409879684448,-7.054993629455566,11.489013671875,1.069779396057129
0,409633,16.514049530029297,4.953943729400635,16.220842361450195,7.540560722351074
0,409633,-11.21248722076416,-1.4811245203018188,-12.683143615722656,14.300673484802246
0,409634,-14.424941062927246,9.475897789001465,26.91196060180664,-4.8963212966918945
0,409634,14.609502792358398,28.050935745239258,24.99538803100586,-10.265127182006836
0,409634,1.4375958442687988,-23.68326759338379,-31.699838638305664,15.232394218444824
0,409634,-30.48335838317871,-26.024805068969727,-7.731335163116455,-7.655622959136963
0,409634,-7.6761627197265625,13.067140579223633,-2.8104281425476074,-18.75926971435547
0,409634,24.01566505432129,-0.5817045569419861,-27.009605407714844,16.627227783203125
0,409635,9.492448806762695,-6.47187614440918,22.287677764892578,24.614215850830078
0,409635,0.7968558669090271,21.75464630126953,26.499711990356445,-16.794021606445312
0,409635,-3.3920040130615234,11.332919120788574,-19.502920150756836,-18.049175262451172
0,409635,-19.05303382873535,-33.20835876464844,-9.570897102355957,22.956377029418945
0,409635,9.72574234008789,-2.9847662448883057,17.406824111938477,2.3081283569335938
0,409635,33.11474609375,29.257219314575195,12.972161293029785,-17.266923904418945
0,409636,-1.3484927415847778,12.563253402709961,-8.195058822631836,-1.138380765914917
0,409636,-23.95992660522461,-25.88317108154297,-12.966351509094238,-12.038697242736816
0,409636,-1.178514838218689,-23.946876525878906,0.6152827739715576,-3.220661163330078
0,409637,-6.619174957275391,14.14330005645752,1.5195811986923218,40.538333892822266
0,409637,-16.01453399658203,16.503498077392578,9.389687538146973,27.38374900817871
0,409638,18.895933151245117,13.980082511901855,7.56333065032959,-16.22936248779297
0,409639,20.29813575744629,-3.6557486057281494,-35.12574005126953,-28.402191162109375
0,409640,-18.8389892578125,-8.608380317687988,-7.113465785980225,-1.5245022773742676
0,409643,7.470842361450195,8.619811058044434,26.401872634887695,5.424774646759033
0,409644,7.2945332527160645,4.077345848083496,-16.220441818237305,-11.953761100769043
0,409647,-42.04038619995117,-18.044166564941406,-7.057300567626953,-7.675233840942383
0,409648,4.25337553024292,-19.00946044921875,16.339815139770508,-10.930460929870605
0,409651,31.447315216064453,7.525603771209717,-28.594158172607422,12.817378997802734
0,409652,14.735586166381836,-10.23645305633545,-15.043323516845703,55.071712493896484
0,409655,-10.781098365783691,5.082562446594238,53.15943145751953,11.259371757507324
0,409656,-11.494336128234863,37.52593994140625,17.926654815673828,-95.29977416992188
0,409659,18.7707576751709,-9.986156463623047,-20.37601661682129,-11.364736557006836
0,409660,-7.60213565826416,-14.543256759643555,-9.859923362731934,84.4676742553711
0,409663,-31.031850814819336,-4.360613822937012,-14.931941986083984,-13.821850776672363
0,409664,-2.2475662231445312,-12.054433822631836,15.519854545593262,-12.417160034179688
0,409667,34.49668502807617,-0.8979158997535706,27.870925903320312,61.12114715576172
0,409668,18.668807983398438,-5.97335958480835,-14.286796569824219,-86.32105255126953
0,409746,-8.243764877319336,35.687232971191406,-32.62071228027344,-67.4820327758789
0,409746,-0.20612680912017822,36.844722747802734,-25.054893493652344,122.92642211914062
0,409746,-1.806015968322754,-39.4049072265625,-9.81539535522461,-27.219091415405273
0,409746,-19.75807762145996,-36.74085235595703,-3.132171869277954,-72.3404312133789
0,409746,-8.880708694458008,17.955368041992188,-17.885053634643555,35.082916259765625
0,409746,17.519405364990234,30.010040283203125,28.316869735717773,33.77857971191406
0,409747,4.798496246337891,-3.4257781505584717,60.591461181640625,19.886016845703125
0,409747,-15.372397422790527,-12.700997352600098,10.534804344177246,-11.72563648223877
0,409747,5.598410606384277,27.090566635131836,-1.736203908920288,-5.945718765258789
0,409747,6.685097694396973,10.756634712219238,6.6451640129089355,1.5187547206878662
0,409747,-4.861236095428467,-32.44920349121094,2.128571033477783,-2.857156753540039
0,409747,-16.202524185180664,-20.45575523376465,-1.9219331741333008,10.672370910644531
0,409748,-11.669698715209961,2.402761459350586,2.8063321113586426,6.126552581787109
0,409748,23.68523597717285,16.1012020111084,-6.904399871826172,-26.041481018066406
0,409748,-3.401505470275879,-2.7212705612182617,-22.88913917541504,-14.26266098022461
0,409748,-7.952480792999268,-14.447848320007324,-0.35303813219070435,15.367576599121094
0,409748,7.095325946807861,-19.580707550048828,8.653302192687988,15.32198715209961
0,409748,-18.16837501525879,-8.468673706054688,-6.393066883087158,8.860532760620117
0,409749,1.0555751323699951,43.263919830322266,-11.838663101196289,-7.794827461242676
0,409749,9.192394256591797,4.440182209014893,10.070591926574707,-8.323233604431152
0,409749,-7.693068027496338,-24.786527633666992,25.57500648498535,17.518404006958008
0,409749,-2.223534107208252,21.639728546142578,-5.803503513336182,6.586761474609375
0,409749,12.355584144592285,6.903843879699707,-5.04919958114624,-17.960542678833008
0,409750,19.558969497680664,-18.157020568847656,0.19932091236114502,-11.758636474609375
0,409750,-3.19458270072937,-14.588993072509766,-12.791847229003906,5.112945556640625
0,409750,-4.605417728424072,12.967982292175293,4.755636215209961,-9.026541709899902
0,409750,7.5802083015441895,35.49951934814453,-13.175680160522461,-15.326444625854492
0,409750,8.071440696716309,-5.397398471832275,-25.58869743347168,9.036008834838867
0,409750,11.023211479187012,-38.32402038574219,2.1494410037994385,11.096433639526367
0,409751,-13.021096229553223,-7.2190985679626465,16.323856353759766,14.197693824768066
0,409751,-11.421245574951172,27.830415725708008,2.9682159423828125,-2.9084365367889404
0,409751,4.771376132965088,2.7112231254577637,-2.150568723678589,-13.404932975769043
0,409751,-1.0971705913543701,-6.750833034515381,17.620452880859375,7.756063461303711
0,409751,4.174398899078369,23.516111373901367,18.366003036499023,2.0566179752349854
0,409751,0.8355557322502136,2.739675521850586,7.934150695800781,-6.021656036376953
0,409752,-13.510713577270508,-43.28315353393555,3.3184890747070312,12.55988883972168
0,409752,-4.201704502105713,-2.943878173828125,-7.004966735839844,-0.9302501082420349
0,409752,13.558060646057129,38.64693832397461,-21.491077423095703,-32.604915618896484
0,409753,-19.127031326293945,-3.441983222961426,3.8618879318237305,-30.13825225830078
0,409753,-34.42072296142578,1.5253255367279053,41.6681022644043,-3.8855087757110596
0,409754,18.653295516967773,17.455018997192383,-8.702644348144531,19.640151977539062
0,409754,26.665353775024414,-7.588232040405273,-23.850589752197266,5.527741432189941
0,409755,-6.240445137023926,-44.20934295654297,24.881235122680664,8.574511528015137
0,409756,-9.739161491394043,-25.12191390991211,1.5926457643508911,12.173179626464844
0,409759,19.719717025756836,22.1855411529541,-38.216976165771484,0.9585473537445068
0,409760,27.1630859375,15.304281234741211,-24.273347854614258,23.029661178588867
0,409763,-18.35267448425293,0.29076188802719116,-39.0964241027832,-15.338915824890137
0,409764,-20.020145416259766,-26.30590057373047,-22.907472610473633,-22.217790603637695
0,409767,6.337219715118408,-5.601115703582764,77.18806457519531,4.94842004776001
0,409768,-22.590980529785156,26.3941650390625,46.10026931762695,-14.342430114746094
0,409771,12.86512279510498,27.079586029052734,-54.92878723144531,19.53824234008789
0,409772,60.798828125,23.448402404785156,-27.404876708984375,37.823951721191406
0,409775,-37.32905578613281,-40.23311996459961,27.272571563720703,-30.63835334777832
0,409777,-51.66725158691406,-53.83631134033203,29.900432586669922,-4.740675926208496
0,409779,39.087318420410156,27.03881072998047,11.663200378417969,107.30805206298828
0,409781,14.231465339660645,38.99250411987305,-33.314170837402344,-16.954261779785156
0,409783,-26.239046096801758,-6.764003276824951,-64.12920379638672,-128.74087524414062
0,409785,5.561183452606201,10.293304443359375,11.37328815460205,-1.0311707258224487
0,409873,31.35173225402832,21.830759048461914,104.99932098388672,68.46659088134766
0,409873,-2.7640113830566406,-15.326828002929688,15.89299201965332,20.209558486938477
0,409873,-19.35262107849121,-13.018176078796387,-62.07454299926758,-42.339317321777344
0,409873,4.706478118896484,-0.9545930624008179,-12.421419143676758,-26.968961715698242
0,409873,-6.467179775238037,-9.61607837677002,2.43691349029541,15.40295124053955
0,409873,-18.21065330505371,5.103238582611084,12.079025268554688,-16.301719665527344
0,409873,-1.9415606260299683,29.146484375,20.32372283935547,3.9939169883728027
0,409874,6.023085594177246,-5.897485733032227,4.227090358734131,29.036523818969727
0,409874,4.047510623931885,-29.896888732910156,-6.031192779541016,-17.638731002807617
0,409874,18.612051010131836,7.394405364990234,-5.219851493835449,-3.7715368270874023
0,409874,-0.38121241331100464,-23.7497615814209,-8.058545112609863,38.39487838745117
0,409874,-22.36121368408203,-17.92103385925293,-19.341798782348633,8.088926315307617
0,409875,-4.145827293395996,29.04660415649414,-12.121618270874023,-24.01918601989746
0,409875,14.002459526062012,7.659363746643066,5.071905612945557,-8.222081184387207
0,409875,13.763434410095215,-8.375813484191895,8.202898979187012,5.502599239349365
0,409875,-4.520501613616943,-13.027884483337402,-0.43089526891708374,4.380559921264648
0,409875,5.802891254425049,23.690073013305664,6.076863765716553,-8.753166198730469
0,409875,1.863588571548462,22.319639205932617,16.141592025756836,-12.989731788635254
0,409876,-17.86194610595703,-40.34767150878906,-5.918858528137207,5.050734996795654
0,409876,-7.823891639709473,0.5865918397903442,-8.415146827697754,32.51209259033203
0,409876,9.985184669494629,29.21968650817871,11.109119415283203,-0.27627816796302795
0,409876,4.777114391326904,-17.946327209472656,-10.544794082641602,-22.67697525024414
0,409876,-11.138314247131348,-7.599667072296143,-19.822227478027344,15.68363094329834
0,409876,4.136040687561035,-8.005139350891113,-0.6993705630302429,-10.581233024597168
0,409877,14.347737312316895,-3.335423707962036,5.029590606689453,-16.613407135009766
0,409877,-1.837158441543579,22.129825592041016,19.378442764282227,17.18751335144043
0,409877,-3.985659599304199,-3.945639133453369,-2.458908796310425,-17.169645309448242
0,409877,-7.6015801429748535,4.160190105438232,-15.956629753112793,-12.277093887329102
0,409877,-11.451106071472168,23.948469161987305,10.602770805358887,29.943641662597656
0,409878,12.679649353027344,-9.059465408325195,16.822458267211914,5.937921047210693
0,409878,13.272700309753418,-8.483067512512207,8.795575141906738,-7.759232521057129
0,409878,-6.8018059730529785,-5.052084922790527,-8.076684951782227,15.522330284118652
0,409878,-7.469432353973389,-10.065512657165527,-16.008663177490234,-16.94341468811035
0,409878,0.7415088415145874,16.246641159057617,-13.3070707321167,-19.54747200012207
0,409878,5.397511959075928,5.485687255859375,-0.1264161318540573,22.008726119995117
0,409879,-12.88846492767334,-4.7340569496154785,15.254603385925293,-4.030997276306152
0,409879,0.6200248003005981,-0.4463641345500946,14.981070518493652,-4.899743556976318
0,409879,16.82653045654297,-16.198684692382812,-14.198931694030762,12.35628604888916
0,409879,-13.121564865112305,-0.6478233933448792,-10.007660865783691,-7.121147155761719
0,409879,9.189314842224121,4.604573726654053,19.407962799072266,-6.26530122756958
0,409879,16.924213409423828,1.1574498414993286,-10.88747787475586,8.000563621520996
0,409880,-18.446352005004883,5.302180290222168,-17.52967643737793,-4.92304801940918
0,409880,-13.084522247314453,-20.59686851501465,9.177722930908203,5.458232402801514
0,409880,-0.2996826171875,4.958129405975342,8.020747184753418,19.564922332763672
0,409881,1.5550202131271362,33.78178024291992,2.082141876220703,-25.941017150878906
0,409881,23.872560501098633,-13.458669662475586,-13.872954368591309,-32.950870513916016
0,409881,10.567535400390625,-10.449124336242676,-27.024906158447266,3.3908114433288574
0,409882,-28.967966079711914,19.489774703979492,-1.8488296270370483,-1.9112082719802856
0,409883,-27.682647705078125,-9.04427433013916,38.976463317871094,-2.8158013820648193
0,409884,15.450181007385254,-20.399797439575195,14.537078857421875,5.142273426055908
0,409887,17.027118682861328,-17.934349060058594,-26.648649215698242,31.079387664794922
0,409888,-16.119888305664062,7.055362224578857,59.144920349121094,67.42767333984375
0,409891,35.369937896728516,54.0501594543457,-36.19754409790039,-51.99906539916992
0,409892,5.273392200469971,21.91101837158203,-97.34110260009766,-85.66194152832031
0,409895,-23.68126678466797,-24.89115333557129,149.19473266601562,108.69430541992188
0,409896,8.048116683959961,-33.91779708862305,39.12571334838867,64.55979919433594
0,409899,-18.551395416259766,-33.04911422729492,-115.68604278564453,-84.63313293457031
0,409900,-10.324172019958496,1.5758099555969238,7.701355457305908,-75.60277557373047
0,409903,5.9771246910095215,33.68045425415039,14.33007526397705,-23.834741592407227
0,409904,16.040714263916016,17.323772430419922,9.486111640930176,96.26351928710938
0,409907,1.8320422172546387,-4.289870262145996,-6.892993450164795,25.797510147094727
0,409908,-23.294536590576172,-29.460487365722656,-39.001399993896484,-101.4506607055664
0,409911,0.7674641609191895,14.329100608825684,-5.864625930786133,-38.04384231567383
0,409912,45.74286651611328,94.65702819824219,-20.7479248046875,9.036690711975098
0,409915,23.00865936279297,43.50371170043945,103.90487670898438,195.29452514648438
0,409916,-32.52119064331055,-67.29007720947266,114.6251220703125,178.82838439941406
0,410016,-42.477622985839844,-121.853759765625,-160.30690002441406,-207.6463623046875
0,410016,2.0952157974243164,-5.498049259185791,-93.85889434814453,-143.9557342529297
0,410016,35.70396423339844,80.53787994384766,83.11841583251953,97.36239624023438
0,410016,15.174836158752441,-9.929924964904785,-2.2493133544921875,7.842507839202881
0,410017,-2.1544201374053955,-44.73991012573242,-36.5111083984375,-30.864757537841797
0,410017,-19.82881736755371,-5.718273639678955,31.123376846313477,27.258689880371094
0,410017,-13.64816665649414,-7.669583797454834,14.356422424316406,-15.279030799865723
0,410017,4.030983924865723,-16.785778045654297,-44.08462905883789,-58.16462707519531
0,410017,-2.855194091796875,24.277875900268555,-13.991852760314941,-18.046871185302734
0,410017,2.716541290283203,20.54400634765625,10.936075210571289,-2.243398666381836
0,410018,3.3149712085723877,4.137002944946289,-3.8872811794281006,15.363482475280762
0,410018,4.674152374267578,37.528663635253906,23.403827667236328,41.0610237121582
0,410018,17.83860969543457,9.221498489379883,14.297551155090332,16.93431282043457
0,410018,13.206060409545898,-8.133421897888184,-14.099910736083984,-14.833793640136719
0,410018,-8.254762649536133,15.451269149780273,17.31174087524414,-3.042133331298828
0,410018,-14.134029388427734,-21.00372314453125,14.066187858581543,21.002939224243164
0,410019,-12.497387886047363,-25.217792510986328,-9.991943359375,-18.574230194091797
0,410019,-13.79642391204834,12.219566345214844,-6.245087623596191,-47.571041107177734
0,410019,2.445143222808838,-8.863924980163574,-4.962316513061523,0.7203174829483032
0,410019,9.992949485778809,-2.8968231678009033,-1.3046610355377197,5.044866561889648
0,410019,-4.5900139808654785,30.836719512939453,0.7801958322525024,-19.77219009399414
0,410019,-18.711029052734375,-25.14279556274414,-1.434126853942871,18.918973922729492
0,410020,-7.983399868011475,-37.40004348754883,13.056708335876465,26.681011199951172
0,410020,1.7140581607818604,36.34172058105469,5.858142375946045,4.309107303619385
0,410020,-2.8169562816619873,12.369953155517578,-16.816192626953125,8.956361770629883
0,410020,-1.4869115352630615,-37.9879150390625,2.78289532661438,-2.1727240085601807
0,410020,-3.602652072906494,-2.7316877841949463,12.179349899291992,-2.024522066116333
0,410021,3.581220865249634,15.627382278442383,12.983985900878906,-3.2215356826782227
0,410021,19.719255447387695,19.336143493652344,24.081205368041992,8.899825096130371
0,410021,5.111844539642334,6.600257873535156,1.3737218379974365,10.312029838562012
0,410021,-9.380476951599121,-9.846138954162598,16.541025161743164,-6.535511016845703
0,410021,1.0857452154159546,11.92548942565918,27.521785736083984,13.007112503051758
0,410021,12.252752304077148,14.73094654083252,0.6052879095077515,6.992176532745361
0,410022,7.742995738983154,-0.05933501198887825,17.3931827545166,8.167288780212402
0,410022,-2.165412187576294,-0.1872953325510025,2.5657877922058105,7.331064701080322
0,410022,3.484126567840576,7.641351699829102,-30.682050704956055,-10.916155815124512
0,410022,11.944064140319824,-26.895416259765625,-19.223691940307617,12.729971885681152
0,410022,-6.765875816345215,-18.858078002929688,2.9676871299743652,15.29574203491211
0,410022,-14.392618179321289,29.975400924682617,-3.396199941635132,-18.709941864013672
0,410023,17.183420181274414,-0.6613840460777283,-24.465166091918945,-3.9405710697174072
0,410023,19.99237632751465,-7.71096658706665,-14.79161548614502,10.896147727966309
0,410023,-2.5170209407806396,5.4166579246521,-3.112598419189453,-12.099468231201172
0,410023,-17.666610717773438,-16.434249877929688,3.030444860458374,15.377943992614746
0,410023,-6.11724328994751,2.7043936252593994,-3.1540029048919678,7.067032814025879
0,410023,23.440834045410156,-1.708120346069336,-0.9825372695922852,-39.589385986328125
0,410024,3.7199149131774902,1.3878012895584106,9.225177764892578,-2.06018328666687
0,410024,-17.13755989074707,26.533658981323242,-7.059982776641846,7.084994316101074
0,410024,-6.6016669273376465,-8.246354103088379,-12.655532836914062,-24.260862350463867
0,410024,-14.600579261779785,-23.02333641052246,6.397801399230957,-4.007442474365234
0,410025,3.9345953464508057,0.6537916660308838,6.077446460723877,-68.4178695678711
0,410025,7.076100826263428,17.4542236328125,-28.597917556762695,-79.27536010742188
0,410026,-16.196992874145508,-10.33581829071045,6.450829982757568,50.94064712524414
0,410026,3.191145658493042,-21.63211441040039,21.28299331665039,37.99151611328125
0,410026,-3.2273316383361816,25.92727279663086,-14.149447441101074,2.312624931335449
0,410027,-6.905218601226807,27.67725372314453,-2.9045915603637695,16.156253814697266
0,410029,14.251004219055176,-11.633332252502441,6.2319865226745605,17.204795837402344
0,410031,10.199712753295898,-25.92906951904297,4.953791618347168,72.6976318359375
0,410033,-3.878443479537964,-16.897911071777344,-3.8979363441467285,50.57843780517578
0,410035,-18.99193000793457,24.044742584228516,-2.191739559173584,-47.78866195678711
0,410037,0.4200965464115143,23.828039169311523,-16.1181640625,-43.7037239074707
0,410039,14.771238327026367,-18.205917358398438,-13.924095153808594,27.1552791595459
0,410041,14.317296981811523,-2.1905882358551025,2.0730884075164795,13.675877571105957
0,410043,11.880982398986816,-19.679698944091797,1.1750823259353638,34.35610580444336
0,410045,-17.248563766479492,-34.087669372558594,24.698341369628906,60.86383056640625
0,410047,-26.59809112548828,45.817176818847656,45.73632049560547,-144.4943389892578
0,410049,7.123198509216309,31.189090728759766,-6.987462043762207,-79.98033905029297
0,410051,26.32245445251465,-48.02936935424805,-84.01815032958984,119.85713195800781
0,410053,-19.59581756591797,-6.243383884429932,-18.388891220092773,-51.40079116821289
0,410056,-21.022769927978516,18.989253997802734,110.57828521728516,-21.51668357849121
0,410057,25.960630416870117,4.0126566886901855,35.501277923583984,51.74470901489258
0,410058,17.407529830932617,14.942963600158691,-68.85957336425781,-25.542692184448242
0,410061,-4.347766876220703,-8.064391136169434,-11.710440635681152,15.693768501281738
0,410062,-21.959808349609375,-1.0757853984832764,16.53557586669922,17.024608612060547
0,410065,5.146539688110352,30.218332290649414,15.257205963134766,-5.899118423461914
0,410176,36.98822021484375,-10.03941535949707,6.169607639312744,10.30242919921875
0,410176,-15.117490768432617,-50.91053009033203,-6.75560188293457,18.52936363220215
0,410176,-28.552705764770508,-17.94074058532715,5.602313041687012,-11.48232650756836
0,410176,8.482784271240234,7.665215015411377,-8.838740348815918,-8.368803024291992
0,410176,9.671527862548828,1.7085131406784058,-17.85208511352539,18.31382942199707
0,410177,8.980302810668945,16.443214416503906,8.38140869140625,8.570137977600098
0,410177,-9.114027976989746,16.408435821533203,13.748591423034668,-19.609039306640625
0,410177,-26.777982711791992,0.17454078793525696,-3.810713529586792,-15.15052604675293
0,410177,14.403119087219238,12.25683879852295,-4.150292873382568,25.501497268676758
0,410177,22.65886688232422,4.149502277374268,4.408336639404297,-3.750251531600952
0,410177,-10.557853698730469,1.677079439163208,-8.954548835754395,-53.76777267456055
0,410178,-28.42376708984375,-9.490697860717773,-35.95597839355469,-26.813720703125
0,410178,-8.379507064819336,-13.79202938079834,1.5462392568588257,-2.5882484912872314
0,410178,28.376855850219727,21.599782943725586,28.46673583984375,1.9474095106124878
0,410178,11.821904182434082,4.957536220550537,-22.574249267578125,30.32722282409668
0,410178,-11.451072692871094,-15.776307106018066,-5.089696884155273,19.472314834594727
0,410179,-8.123167991638184,-2.2526450157165527,24.74021339416504,-3.76711368560791
0,410179,-4.722773551940918,8.02344036102295,-18.344070434570312,7.603877544403076
0,410179,0.7452237606048584,-16.176586151123047,-6.334132194519043,11.119869232177734
0,410179,12.441967010498047,-17.043787002563477,30.673002243041992,-8.895997047424316
0,410179,-8.412303924560547,18.89480972290039,3.755793571472168,-7.177894592285156
0,410179,-8.957833290100098,17.01225471496582,-17.21074676513672,16.985862731933594
0,410180,12.663045883178711,-5.4677205085754395,0.9183773398399353,-4.753920078277588
0,410180,17.284460067749023,-5.136600017547607,5.884438514709473,-25.36794662475586
0,410180,16.936969757080078,13.469239234924316,3.1039679050445557,-6.717385292053223
0,410180,-21.764066696166992,-8.280379295349121,11.084993362426758,15.586446762084961
0,410180,-15.763733863830566,-9.518696784973145,9.757542610168457,14.378618240356445
0,410180,11.362939834594727,23.087247848510742,-11.245955467224121,-12.725049018859863
0,410181,-3.6797935962677,-0.9614511132240295,-11.395007133483887,-21.631195068359375
0,410181,9.902647972106934,-13.405923843383789,5.087291717529297,12.660135269165039
0,410181,12.296161651611328,2.7906253337860107,-2.8238162994384766,20.102020263671875
0,410181,-11.838687896728516,-3.1427977085113525,-14.827113151550293,-31.95347785949707
0,410181,-8.423748016357422,-10.894217491149902,-18.34069061279297,-12.322805404663086
0,410181,-6.0349016189575195,-12.459091186523438,2.103743314743042,44.8401985168457
0,410182,-8.824915885925293,15.9530668258667,17.924301147460938,1.199874758720398
0,410182,-2.588864803314209,6.460214614868164,-5.44718599319458,-25.529197692871094
0,410182,9.312219619750977,-20.615957260131836,-7.543691158294678,13.444402694702148
0,410182,14.681302070617676,-0.43974706530570984,0.1741505265235901,5.65421199798584
0,410182,-7.582690238952637,14.627758026123047,-2.608271598815918,-14.647250175476074
0,410182,-9.616562843322754,5.456152439117432,-1.6234790086746216,-4.234788417816162
0,410183,7.583340167999268,-19.26941680908203,-5.186242580413818,1.2745383977890015
0,410183,1.8042570352554321,9.099234580993652,7.382678508758545,5.9523186683654785
0,410183,1.1982847452163696,19.234867095947266,14.601099967956543,6.606381416320801
0,410183,8.923835754394531,-22.518884658813477,-0.6332709193229675,-6.540887832641602
0,410183,-2.331397294998169,-4.1714253425598145,6.556119441986084,-3.4818291664123535
0,410184,-19.176366806030273,16.393564224243164,18.564430236816406,9.299762725830078
0,410184,4.689519882202148,-14.864890098571777,-10.814767837524414,10.652121543884277
0,410184,19.408403396606445,-6.4172515869140625,-10.653736114501953,-10.974658966064453
0,410184,-7.0674309730529785,25.825000762939453,1.5323493480682373,-14.176708221435547
0,410184,-4.772839546203613,5.1349053382873535,-22.83894920349121,7.811286926269531
0,410184,-1.5225882530212402,-15.101574897766113,5.297772407531738,0.19627714157104492
0,410184,-12.205443382263184,-23.00276756286621,11.97038459777832,5.61642599105835
0,410185,4.392764568328857,6.1535868644714355,-7.7281975746154785,23.617216110229492
0,410185,27.550954818725586,27.582904815673828,13.859493255615234,-13.945088386535645
0,410185,-5.051851749420166,-18.179805755615234,-30.040721893310547,-30.808670043945312
0,410186,-18.133888244628906,-6.617218017578125,-85.4794921875,-8.960901260375977
0,410186,7.188581466674805,26.934864044189453,-27.413480758666992,0.7246458530426025
0,410187,-16.524330139160156,-1.195329189300537,58.738590240478516,6.4777913093566895
0,410187,0.9811404347419739,-25.250051498413086,39.34672927856445,-17.517749786376953
0,410187,26.59030532836914,-9.22095012664795,-15.03458309173584,5.171955108642578
0,410187,-16.39556312561035,23.547569274902344,6.496982574462891,10.648240089416504
0,410188,-18.362056732177734,21.843454360961914,105.66091918945312,12.621441841125488
0,410191,6.069189071655273,36.5848274230957,145.73394775390625,76.51642608642578
0,410193,12.436357498168945,10.551614761352539,9.459667205810547,15.540797233581543
0,410195,6.189225673675537,-51.474517822265625,-98.78728485107422,-32.59783935546875
0,410197,-12.484539031982422,-11.677450180053711,-21.4575138092041,7.934205055236816
0,410199,8.655342102050781,4.813134670257568,19.2246150970459,-27.216062545776367
0,410201,11.847929954528809,3.9945147037506104,-16.788127899169922,-12.741909980773926
0,410203,-6.012824535369873,6.06035041809082,-35.9495735168457,15.709880828857422
0,410205,-2.3243439197540283,-14.625198364257812,-45.64132308959961,-27.206851959228516
0,410207,-5.870611190795898,-2.6574923992156982,-21.72465705871582,-5.189768314361572
0,410209,11.968326568603516,-2.0316269397735596,-8.993851661682129,22.003080368041992
0,410211,19.299558639526367,-5.478089332580566,-17.099416732788086,-26.077739715576172
0,410213,-28.58749771118164,-5.295993804931641,-14.98081111907959,-37.82826232910156
0,410215,-11.394065856933594,-2.766957998275757,27.14173126220703,17.087406158447266
0,410217,17.46922492980957,3.9571728706359863,19.082273483276367,25.63251304626465
0,410219,-3.721362590789795,11.181392669677734,-15.770269393920898,-14.811232566833496
0,410221,-0.8893405795097351,-0.6061923503875732,21.2206974029541,-14.553860664367676
0,410223,-18.738134384155273,5.022913932800293,54.503963470458984,32.98567199707031
0,410225,-15.629504203796387,13.50477409362793,21.674545288085938,47.85230255126953
0,410346,-13.339083671569824,-46.626983642578125,-90.90442657470703,-43.660465240478516
0,410346,-3.627790689468384,-23.16346549987793,-73.7914810180664,-67.07752990722656
0,410346,34.79561233520508,45.021575927734375,38.01005554199219,12.14863395690918
0,410347,3.941943407058716,-3.731424570083618,25.972558975219727,8.9512357711792
0,410347,-20.561641693115234,-5.074150562286377,18.86405372619629,17.183347702026367
0,410347,23.561555862426758,20.607683181762695,9.02214241027832,32.96990966796875
0,410347,16.934663772583008,-16.388418197631836,2.6309871673583984,1.8272883892059326
0,410347,-6.460721015930176,6.574749946594238,19.64940071105957,-8.756978034973145
0,410348,12.348508834838867,24.0996036529541,-2.2614448070526123,7.018550872802734
0,410348,11.727940559387207,-15.049886703491211,3.33734130859375,22.336713790893555
0,410348,8.210457801818848,-11.214788436889648,-0.8802107572555542,5.39122200012207
0,410348,-7.049994468688965,20.621932983398438,-11.867752075195312,-14.808732032775879
0,410348,-11.28962516784668,2.885741949081421,0.888621985912323,-16.55245018005371
0,410348,13.302947044372559,-0.42154690623283386,-16.451065063476562,-0.8979535102844238
0,410349,7.770334720611572,3.7172579765319824,-14.853005409240723,16.38520050048828
0,410349,-20.1153507232666,-9.83299446105957,20.4888916015625,-6.946193218231201
0,410349,-10.856379508972168,16.289413452148438,19.29389190673828,-15.231194496154785
0,410349,-8.747333526611328,-15.876070022583008,14.828115463256836,18.794189453125
0,410349,-5.676567554473877,-19.82322883605957,15.362388610839844,4.651437759399414
0,410349,13.490089416503906,16.158512115478516,-24.22102928161621,-4.157717704772949
0,410350,-3.6367077827453613,1.1900569200515747,-14.268050193786621,-0.9117490649223328
0,410350,-8.847182273864746,8.864635467529297,22.752365112304688,-10.453686714172363
0,410350,0.5311161875724792,-14.9191312789917,-14.359466552734375,7.3632330894470215
0,410350,-4.7532877922058105,-8.894280433654785,-14.601356506347656,4.815579414367676
0,410350,8.411957740783691,6.686001777648926,12.473967552185059,-19.051963806152344
0,410350,16.759418487548828,-17.046510696411133,-20.151836395263672,-26.595258712768555
0,410351,-24.463350296020508,-10.320545196533203,-9.754400253295898,3.6250181198120117
0,410351,-16.497920989990234,17.098094940185547,27.118755340576172,23.737186431884766
0,410351,35.50260925292969,35.90959548950195,0.4901634454727173,2.2001500129699707
0,410351,5.053736686706543,-18.23728370666504,-24.417131423950195,-16.740808486938477
0,410351,-31.39620590209961,-29.56876564025879,0.2096666693687439,2.3868958950042725
0,410351,14.43130874633789,14.650191307067871,15.43719482421875,16.87759017944336
0,410352,17.59931182861328,-1.5256136655807495,-9.638219833374023,-8.542022705078125
0,410352,-10.255481719970703,17.769460678100586,-9.16940975189209,-14.18874454498291
0,410352,2.2151641845703125,13.726300239562988,10.902993202209473,16.511850357055664
0,410352,-7.5566277503967285,-36.76065444946289,-1.9516170024871826,24.369796752929688
0,410352,1.292702555656433,-5.621222972869873,-7.311216354370117,-3.8327083587646484
0,410352,13.625600814819336,22.339458465576172,19.40958595275879,0.04059215262532234
0,410353,-14.242886543273926,8.203082084655762,13.607245445251465,-9.981432914733887
0,410353,-3.0253307819366455,-12.971436500549316,-21.550642013549805,-12.865246772766113
0,410353,14.687703132629395,-6.722970008850098,-7.836602210998535,6.8775835037231445
0,410353,2.5521585941314697,2.7456209659576416,-9.572896003723145,-17.992801666259766
0,410353,-10.480356216430664,-9.099067687988281,-2.478088140487671,10.577594757080078
0,410353,-16.346281051635742,22.283126831054688,37.398990631103516,18.42804527282715
0,410354,10.154693603515625,24.46781349182129,-4.845605373382568,-22.811433792114258
0,410354,3.441481113433838,-27.390289306640625,-21.127492904663086,-5.87276554107666
0,410354,-8.898078918457031,-17.053001403808594,18.59940528869629,27.343631744384766
0,410354,14.77735424041748,16.6726016998291,7.9909892082214355,-7.130609035491943
0,410354,-0.12957990169525146,3.3441107273101807,-8.764544486999512,-27.308956146240234
0,410355,-19.956026077270508,-2.280776023864746,-1.0777157545089722,22.01008415222168
0,410355,11.55872917175293,-7.430967807769775,-5.363602638244629,-2.040334463119507
0,410355,21.610313415527344,-16.194438934326172,-7.307347774505615,-17.77767562866211
0,410355,-12.243292808532715,-2.87463641166687,6.662262439727783,22.678451538085938
0,410355,-14.263829231262207,17.994857788085938,6.486842155456543,20.541898727416992
0,410355,-6.888780117034912,20.929067611694336,-2.427002429962158,-20.071861267089844
0,410356,8.761431694030762,-2.8350417613983154,-12.687646865844727,-31.570070266723633
0,410356,12.080671310424805,-29.67424201965332,-2.64428448677063,13.8031644821167
0,410356,-12.792116165161133,-6.433900356292725,14.31772518157959,24.218263626098633
0,410356,2.47294020652771,28.12540054321289,-1.4064873456954956,-14.79344654083252
0,410356,21.486417770385742,9.53417682647705,-11.140018463134766,-14.140668869018555
0,410356,-9.938197135925293,-21.066715240478516,8.727856636047363,15.142492294311523
0,410358,-36.39634704589844,-14.846700668334961,0.07163666188716888,5.175999164581299
0,410358,5.788609981536865,21.919803619384766,-24.620513916015625,-8.25018310546875
0,410358,41.5516471862793,10.218635559082031,2.3896310329437256,1.414642572402954
0,410358,-5.694106578826904,-8.025979995727539,38.09789276123047,9.580930709838867
0,410358,-28.80497932434082,7.268881797790527,-5.6233625411987305,-7.682766914367676
0,410360,13.583256721496582,-23.249549865722656,-41.86542510986328,-9.249859809875488
0,410361,31.27351188659668,-2.6978209018707275,-15.350412368774414,32.67192459106445
0,410362,-24.902034759521484,16.92198371887207,-8.721220016479492,2.074063301086426
0,410365,-63.876155853271484,-36.579063415527344,15.36916446685791,-72.04815673828125
0,410366,19.829166412353516,14.823837280273438,45.839073181152344,-3.981677770614624
0,410369,53.280426025390625,41.08282470703125,21.06449317932129,74.20658111572266
0,410370,-1.3114181756973267,-19.565759658813477,-18.527118682861328,2.583156108856201
0,410373,-6.172958850860596,-4.124525547027588,7.076468467712402,-36.13652801513672
0,410374,-16.76225471496582,0.8776057362556458,31.429363250732422,-3.3856008052825928
0,410377,-13.37558650970459,-5.958796501159668,-23.09232521057129,48.48121643066406
0,410378,27.76344871520996,12.249608039855957,-23.80007553100586,54.357059478759766
0,410381,0.7801170945167542,0.7469673752784729,-3.391371965408325,-72.97162628173828
0,410382,-21.629077911376953,-18.807804107666016,-32.39673614501953,-94.94112396240234
0,410385,23.35813331604004,7.707525730133057,18.635366439819336,49.62056350708008
0,410386,9.654423713684082,41.04253387451172,42.35517501831055,65.03028869628906
0,410389,-11.92481517791748,-19.456905364990234,-0.9796833992004395,-7.096463680267334
0,410391,24.668445587158203,-38.25993728637695,4.2630743980407715,-16.14397430419922
0,410393,-11.548304557800293,16.173057556152344,-43.1995964050293,-18.077571868896484
0,410395,-32.8054313659668,13.436834335327148,-20.28729820251465,-18.21286964416504
0,410397,11.525774955749512,-8.793665885925293,45.14657974243164,1.4048064947128296
0,410399,26.794811248779297,-2.6030235290527344,-22.046478271484375,19.689239501953125
0,410531,-5.533064365386963,14.451706886291504,15.332738876342773,19.917665481567383
0,410531,-38.771461486816406,-5.830296039581299,45.148223876953125,4.6227192878723145
0,410531,18.83779525756836,-2.386942148208618,-28.273460388183594,-9.117097854614258
0,410531,28.114540100097656,9.181718826293945,-4.620099067687988,3.0351510047912598
0,410531,-19.90627670288086,-10.719989776611328,-16.17307472229004,-5.8484063148498535
0,410531,-18.68682861328125,19.784374237060547,-28.073511123657227,-1.406937599182129
0,410532,-2.509270191192627,-6.8130364418029785,35.80091857910156,20.710529327392578
0,410532,12.967170715332031,-30.615201950073242,4.561553955078125,-14.830338478088379
0,410532,13.420433044433594,20.649314880371094,-34.216278076171875,-30.139333724975586
0,410532,-8.295011520385742,-3.2480056285858154,26.71537208557129,9.299725532531738
0,410532,-1.3511210680007935,-21.2158145904541,21.885135650634766,15.297836303710938
0,410532,16.254167556762695,20.172700881958008,-7.145537376403809,-9.833582878112793
0,410533,-4.176249027252197,15.805606842041016,9.854546546936035,-0.8123383522033691
0,410533,-22.669925689697266,-21.19841194152832,-19.373336791992188,4.238396167755127
0,410533,-12.560335159301758,0.6940594911575317,-17.208749771118164,2.035806894302368
0,410533,14.667947769165039,8.81472396850586,9.547530174255371,10.813565254211426
0,410533,14.99627685546875,-14.614053726196289,9.408982276916504,-6.107844352722168
0,410533,-19.465190887451172,13.225844383239746,9.962956428527832,-7.575473785400391
0,410534,-10.504855155944824,1.9689034223556519,-11.964176177978516,16.965391159057617
0,410534,30.546592712402344,-0.6814790368080139,-16.722139358520508,4.385109901428223
0,410534,-1.2578271627426147,8.509201049804688,-1.0497419834136963,-21.55160903930664
0,410534,-17.742515563964844,-37.398231506347656,5.476606845855713,-6.3058271408081055
0,410534,14.92809772491455,0.16996952891349792,11.932461738586426,3.546600341796875
0,410534,4.801586151123047,27.109285354614258,-3.6339266300201416,-1.5363999605178833
0,410535,-5.1172990798950195,-8.0014066696167,-28.820627212524414,8.468344688415527
0,410535,12.300353050231934,8.402961730957031,2.272693634033203,-0.45210522413253784
0,410535,3.6448400020599365,6.45965051651001,16.40266227722168,-23.13603973388672
0,410535,-18.707773208618164,-15.582232475280762,-16.736446380615234,-7.213921546936035
0,410535,-7.265665531158447,1.6525208950042725,5.556145668029785,22.03720474243164
0,410536,9.498173713684082,24.027616500854492,13.896140098571777,2.1927297115325928
0,410536,-3.574883222579956,-2.1798524856567383,11.166234016418457,-3.817390203475952
0,410536,-11.70693302154541,-14.283263206481934,22.790027618408203,3.774651288986206
0,410536,7.283598899841309,7.8720808029174805,-16.608051300048828,-12.536219596862793
0,410536,7.70875358581543,-9.214897155761719,-32.940704345703125,19.033184051513672
0,410536,-12.339675903320312,-5.9659881591796875,3.0850107669830322,23.459760665893555
0,410537,3.572847843170166,10.938896179199219,2.038330316543579,-32.69874572753906
0,410537,12.069650650024414,-11.138952255249023,-14.377779960632324,-23.197479248046875
0,410537,-22.490882873535156,-9.820563316345215,-1.1432873010635376,12.53459644317627
0,410537,-6.0649800300598145,-9.194375038146973,0.4070352613925934,6.239606857299805
0,410537,14.200794219970703,-5.698469161987305,5.29855489730835,-12.198029518127441
0,410537,-9.787454605102539,20.53342056274414,19.179847717285156,15.789549827575684
0,410538,9.302998542785645,2.518483877182007,-12.785141944885254,16.017501831054688
0,410538,10.272909164428711,-22.469314575195312,-22.775819778442383,-17.40777015686035
0,410538,-4.302725791931152,9.677597999572754,26.06186294555664,14.977481842041016
0,410538,9.200240135192871,17.302026748657227,23.23943519592285,-4.280366897583008
0,410538,-4.359776973724365,-15.272501945495605,-8.581127166748047,-27.077259063720703
0,410538,-2.933417558670044,6.709507942199707,5.728908538818359,10.683095932006836
0,410539,-10.189764022827148,29.005783081054688,6.369461536407471,12.90446949005127
0,410539,-19.48145294189453,-10.628026962280273,-16.81349754333496,1.84546959400177
0,410539,19.53060531616211,-11.35982894897461,11.963828086853027,5.909489631652832
0,410539,27.873945236206055,25.262248992919922,20.630821228027344,4.246955394744873
0,410539,-6.5146636962890625,-10.261013984680176,-25.57170867919922,-12.980121612548828
0,410539,-22.253774642944336,-31.10321044921875,-14.728944778442383,-14.08961296081543
0,410540,10.154882431030273,11.371386528015137,21.541715621948242,2.8411307334899902
0,410540,20.033058166503906,25.015602111816406,-9.516122817993164,21.402164459228516
0,410540,-11.48838996887207,-8.214619636535645,-9.15623664855957,20.851318359375
0,410540,7.0560407638549805,-19.565183639526367,14.084479331970215,-18.22610092163086
0,410540,6.183048725128174,2.3055975437164307,-1.1043627262115479,-16.8734188079834
0,410541,-27.222002029418945,8.217744827270508,14.792460441589355,21.7061824798584
0,410541,6.338100433349609,9.262834548950195,1.8070247173309326,5.826889514923096
0,410541,15.39989185333252,5.418475151062012,-27.735233306884766,-3.5639355182647705
0,410541,-8.651243209838867,1.6634989976882935,10.604652404785156,-1.0305805206298828
0,410541,15.807829856872559,-19.767126083374023,16.458404541015625,-18.24860191345215
0,410541,-2.5073816776275635,-1.9478992223739624,-33.00114059448242,1.4875704050064087
0,410541,-30.855634689331055,28.099605560302734,-1.6638212203979492,4.08320426940918
0,410542,10.721019744873047,-17.876617431640625,24.887948989868164,2.2719621658325195
0,410543,15.849257469177246,-7.041985511779785,-20.848377227783203,4.088321208953857
0,410543,-11.49233627319336,11.10706901550293,-11.86400318145752,-18.837533950805664
0,410543,-2.2946884632110596,-11.67675495147705,8.661158561706543,-4.897162914276123
0,410543,12.108243942260742,-0.2756654620170593,-16.83436393737793,-1.3117344379425049
0,410544,-0.8748112916946411,-10.0597562789917,-16.93383026123047,2.3366286754608154
0,410544,-21.903484344482422,-3.3219645023345947,26.49315643310547,25.798274993896484
0,410545,-2.362046003341675,27.653446197509766,32.896827697753906,-17.713605880737305
0,410546,-0.21132667362689972,6.186180591583252,24.839624404907227,-8.757834434509277
0,410549,-10.399529457092285,-19.924707412719727,14.623464584350586,26.048904418945312
0,410550,23.163747787475586,2.4320297241210938,-25.24444007873535,-27.6513671875
0,410553,-1.7800631523132324,8.088765144348145,-28.020029067993164,-15.511923789978027
0,410554,-15.567241668701172,-6.378637313842773,-33.255577087402344,19.96697235107422
0,410557,10.061395645141602,2.11077618598938,50.23353576660156,17.914329528808594
0,410558,-0.11130522936582565,14.879433631896973,75.752197265625,4.331259250640869
0,410561,0.16669335961341858,-34.19868087768555,-102.9769058227539,-26.83981704711914
0,410562,5.963715553283691,-20.857458114624023,-52.478126525878906,-6.433126449584961
0,410565,22.747316360473633,61.093563079833984,97.51741027832031,45.823997497558594
0,410566,-7.495636463165283,16.866756439208984,25.341087341308594,22.807064056396484
0,410569,-39.60629653930664,-52.060882568359375,-102.82938385009766,-66.06502532958984
0,410570,-3.7679355144500732,-28.963726043701172,-45.99034118652344,-28.762380599975586
0,410573,34.109161376953125,39.638118743896484,94.69882202148438,57.20100784301758
0,410574,-1.0115032196044922,23.842872619628906,22.462270736694336,-18.017107009887695
0,410577,-12.87028980255127,-25.035396575927734,-18.691591262817383,-22.974563598632812
0,410578,29.341230392456055,2.1101319789886475,10.823963165283203,49.435001373291016
0,410581,8.388712882995605,16.8751163482666,-16.110483169555664,-0.14667080342769623
0,410583,-28.770647048950195,-20.53154945373535,-16.552064895629883,-18.822458267211914
0,410585,-15.495622634887695,-10.979458808898926,12.318775177001953,21.164676666259766
0,410587,27.872591018676758,36.83523941040039,35.33387756347656,12.527090072631836
0,410729,7.052422523498535,-16.509654998779297,-20.208721160888672,-29.6309757232666
0,410729,-18.373947143554688,-50.82094955444336,-26.636770248413086,-22.196041107177734
0,410729,-5.6315412521362305,14.578303337097168,4.0218024253845215,16.891538619995117
0,410729,3.428737163543701,22.420757293701172,4.542115688323975,5.474795818328857
0,410729,6.409627914428711,9.948288917541504,12.222445487976074,-2.9149248600006104
0,410730,-3.120262384414673,7.567436695098877,-8.343887329101562,4.854273796081543
0,410730,-4.836490154266357,-22.3737850189209,-4.173919200897217,-9.807765007019043
0,410730,-11.006707191467285,13.595842361450195,8.335277557373047,-4.129754543304443
0,410730,-3.5764570236206055,17.696409225463867,-13.627114295959473,-2.76621150970459
0,410730,22.025287628173828,-30.537668228149414,-21.83977508544922,-10.66082763671875
0,410730,-3.076895236968994,-4.742079734802246,14.225595474243164,21.77456283569336
0,410731,-10.672097206115723,6.7536702156066895,13.013317108154297,23.779342651367188
0,410731,7.296646595001221,13.13271427154541,-2.7324531078338623,-9.84510612487793
0,410731,-18.1525936126709,15.079917907714844,25.243892669677734,-12.30850601196289
0,410731,12.097819328308105,-17.798381805419922,-2.787513256072998,-8.790970802307129
0,410731,16.34272003173828,-5.323655605316162,-24.380308151245117,7.16549015045166
0,410731,-29.368694305419922,-0.17884351313114166,15.531758308410645,16.308643341064453
0,410732,5.293553352355957,3.2388970851898193,10.981732368469238,-20.66568946838379
0,410732,21.425203323364258,8.025960922241211,-13.963421821594238,-13.249411582946777
0,410732,-5.364642143249512,-6.161486625671387,-10.420205116271973,14.144851684570312
0,410732,7.218440532684326,8.044776916503906,13.710885047912598,1.361338496208191
0,410732,3.8800766468048096,11.012063980102539,14.782539367675781,-1.7463774681091309
0,410733,-16.377471923828125,-19.59918975830078,-15.19740104675293,5.800479888916016
0,410733,1.6072081327438354,-8.013749122619629,1.5784516334533691,-2.2108025550842285
0,410733,9.313592910766602,24.688913345336914,-0.5736265778541565,-8.771987915039062
0,410733,-5.203751564025879,-0.6867958903312683,-17.997257232666016,10.13654613494873
0,410733,10.839689254760742,-11.21019172668457,15.113136291503906,-4.311764240264893
0,410733,9.675460815429688,-5.348483562469482,1.4685471057891846,-14.500746726989746
0,410734,-29.363502502441406,-7.270445346832275,-18.342100143432617,6.428406238555908
0,410734,-2.6237499713897705,12.645023345947266,14.648931503295898,9.236495971679688
0,410734,38.555973052978516,-1.4188244342803955,3.540818691253662,-0.8385888338088989
0,410734,-6.766186237335205,-22.09406089782715,-9.186939239501953,0.7545198202133179
0,410734,-19.86359214782715,9.062055587768555,4.020820617675781,11.673455238342285
0,410734,18.466394424438477,20.12950897216797,-16.555444717407227,-6.131091117858887
0,410735,-17.097692489624023,-17.959516525268555,5.027648448944092,8.536334991455078
0,410735,-19.350507736206055,-13.427192687988281,18.424585342407227,7.942456245422363
0,410735,15.95645809173584,20.727455139160156,-16.119243621826172,-12.265999794006348
0,410735,-13.16984748840332,11.807050704956055,15.2324800491333,4.301692008972168
0,410735,-2.512444019317627,2.302996873855591,10.444436073303223,-7.697193622589111
0,410735,-2.2440590858459473,-5.467745780944824,-23.135589599609375,-13.642861366271973
0,410736,-12.639976501464844,-8.679128646850586,10.006176948547363,-4.947535991668701
0,410736,3.072979211807251,3.212991237640381,7.809781074523926,22.334848403930664
0,410736,11.435591697692871,3.458805561065674,-5.881312370300293,16.373624801635742
0,410736,19.615253448486328,-8.589994430541992,0.111326664686203,-24.55756187438965
0,410736,-7.6253180503845215,-10.910981178283691,-24.770492553710938,-3.3872320652008057
0,410736,-11.058720588684082,13.851456642150879,-2.998506784439087,-4.646564960479736
0,410737,25.05281639099121,4.662467002868652,28.553285598754883,-29.136789321899414
0,410737,17.38786506652832,-21.19775390625,-12.281637191772461,34.713417053222656
0,410737,-23.01348304748535,4.905238151550293,-14.023083686828613,38.2780647277832
0,410737,-11.268072128295898,16.08017349243164,10.164898872375488,-37.089778900146484
0,410737,15.294023513793945,-14.353997230529785,3.8910038471221924,-6.304416179656982
0,410738,17.41332244873047,-21.15232276916504,22.303464889526367,18.20517349243164
0,410738,-3.5401647090911865,16.576570510864258,21.94565773010254,7.065309047698975
0,410738,-27.879987716674805,35.02213668823242,-15.62608814239502,-2.4984896183013916
0,410738,1.3591431379318237,-12.840668678283691,-27.035293579101562,-24.648649215698242
0,410738,22.11587905883789,-34.80727005004883,-6.061216354370117,1.2046072483062744
0,410738,-8.178569793701172,0.11529421806335449,18.577661514282227,17.81789207458496
0,410738,-15.030570983886719,30.771053314208984,0.38472965359687805,-8.737378120422363
0,410739,-6.1656389236450195,8.687110900878906,-24.030282974243164,-14.714579582214355
0,410739,-0.12453008443117142,-9.664772033691406,-3.410055160522461,8.62340259552002
0,410739,26.0248966217041,6.04164457321167,-4.684422492980957,-0.4694017171859741
0,410739,2.523040533065796,-4.411628246307373,-10.583026885986328,11.465533256530762
0,410739,-27.137760162353516,1.1346275806427002,22.811405181884766,8.416109085083008
0,410739,7.901263236999512,-4.090910911560059,21.140949249267578,-29.74659538269043
0,410740,1.8534845113754272,-6.184216499328613,-11.724074363708496,0.6993861198425293
0,410740,-6.252011299133301,15.367974281311035,-10.054201126098633,8.797983169555664
0,410740,13.302679061889648,-8.093653678894043,15.079343795776367,-6.010261535644531
0,410740,4.434858322143555,-21.248332977294922,1.098467469215393,23.58307456970215
0,410740,-9.97076416015625,13.284866333007812,-5.93631649017334,10.246054649353027
0,410741,-12.56607723236084,26.618619918823242,4.231427192687988,-28.493141174316406
0,410741,19.744911193847656,-15.778851509094238,-4.896111011505127,0.32126423716545105
0,410742,-7.601887226104736,-19.63628578186035,-2.6864242553710938,10.799135208129883
0,410742,-25.50063705444336,15.9566068649292,-4.836177349090576,-10.5084867477417
0,410742,24.400386810302734,1.4541542530059814,16.109716415405273,10.250067710876465
0,410743,11.452771186828613,-9.70174789428711,14.375143051147461,-3.2123215198516846
0,410743,-8.287729263305664,-4.630074501037598,-17.082029342651367,-7.322260856628418
0,410743,2.07049822807312,2.2832086086273193,-8.343676567077637,8.18567943572998
0,410744,10.954744338989258,28.944869995117188,19.759212493896484,-3.3310208320617676
0,410744,-11.35563850402832,-5.140018939971924,12.573080062866211,5.0471954345703125
0,410747,-19.84134864807129,-20.54663848876953,-17.472232818603516,-0.5594599843025208
0,410748,8.64478874206543,19.10239601135254,-0.3760181963443756,-17.61735725402832
0,410751,1.0274779796600342,-11.666693687438965,-18.563676834106445,-7.618515491485596
0,410752,5.136238098144531,-25.56450653076172,-34.95975112915039,12.852169036865234
0,410755,10.235779762268066,8.409187316894531,28.28540802001953,19.614431381225586
0,410756,0.9835878610610962,6.521437168121338,27.532270431518555,5.839315891265869
0,410759,-26.042537689208984,4.926578998565674,-8.909041404724121,-6.270869255065918
0,410760,-18.007925033569336,9.947011947631836,-4.464591026306152,-4.3801589012146
0,410763,30.36652374267578,-7.643186092376709,4.610336780548096,-1.4483190774917603
0,410764,17.996524810791016,5.994809150695801,14.397579193115234,8.010369300842285
0,410767,-21.255229949951172,-10.257209777832031,-13.775558471679688,-5.3628082275390625
0,410768,-0.3819043040275574,-10.538558006286621,-7.889618873596191,-20.926326751708984
0,410771,30.718032836914062,22.223468780517578,-0.4198497235774994,-6.56654167175293
0,410772,-27.030431747436523,-6.116438865661621,-20.732820510864258,7.675652027130127
0,410775,-24.203506469726562,-6.988500118255615,50.87434005737305,2.5370712280273438
0,410776,24.726713180541992,5.9835100173950195,30.733261108398438,-5.780177593231201
0,410779,21.239105224609375,5.141366004943848,-63.20284652709961,3.834245443344116
0,410780,7.739866733551025,7.92348575592041,-27.170101165771484,36.846656799316406
0,410783,-2.317945718765259,-8.45256519317627,23.759225845336914,42.92304611206055
0,410784,-5.497838497161865,-9.715801239013672,9.325887680053711,-23.533496856689453
0,410787,-19.29591178894043,2.9741458892822266,3.868259906768799,-65.19971466064453
0,410788,-23.883056640625,-5.353079795837402,-24.98002815246582,-45.307430267333984
0,410942,19.670015335083008,1.6314195394515991,-24.630420684814453,58.77146530151367
0,410942,47.287818908691406,8.612189292907715,22.645185470581055,66.6570816040039
0,410942,-14.333842277526855,-16.74832534790039,-17.04730987548828,-63.3204460144043
0,410942,-37.11658477783203,-14.509854316711426,-13.51129150390625,-32.678043365478516
0,410943,-2.1750969886779785,28.198347091674805,30.800548553466797,28.851486206054688
0,410943,5.205489635467529,7.512165069580078,-11.960792541503906,-15.85601806640625
0,410943,1.2058416604995728,-35.34855270385742,-16.921602249145508,-13.182069778442383
0,410943,-13.037808418273926,-2.2407288551330566,23.266881942749023,19.744924545288086
0,410943,-5.138016223907471,14.79610538482666,20.76137924194336,14.499334335327148
0,410943,10.269020080566406,20.03428840637207,21.339069366455078,1.3085790872573853
0,410944,2.4310872554779053,18.409372329711914,7.645428657531738,-3.503936529159546
0,410944,16.430044174194336,-20.753158569335938,-7.668026447296143,6.945141315460205
0,410944,-5.011560916900635,-15.793611526489258,8.70606517791748,9.049200057983398
0,410944,-27.389497756958008,12.554815292358398,9.298568725585938,1.2097415924072266
0,410944,4.470595359802246,17.120920181274414,13.86838436126709,2.9204509258270264
0,410944,22.893468856811523,-12.709758758544922,-12.750763893127441,0.588601291179657
0,410945,18.709495544433594,0.8824726939201355,-26.093809127807617,-2.127396583557129
0,410945,-3.4448750019073486,18.251184463500977,29.343969345092773,2.0072507858276367
0,410945,-3.334564447402954,-4.898748397827148,31.907814025878906,7.872076988220215
0,410945,6.334949016571045,3.515385866165161,-19.108386993408203,-1.055488109588623
0,410945,-4.220188617706299,-3.9810187816619873,-23.833240509033203,2.158656358718872
0,410945,0.07706740498542786,-2.042494297027588,-4.737514019012451,9.984766006469727
0,410946,-0.3049945831298828,-13.444134712219238,-12.158547401428223,-19.184616088867188
0,410946,-14.988801002502441,-9.65167236328125,-5.470698833465576,-25.26120948791504
0,410946,-7.411780834197998,20.628644943237305,3.4461169242858887,-9.026975631713867
0,410946,1.2668969631195068,-6.126317977905273,-16.025955200195312,-3.431797981262207
0,410946,-4.866752624511719,-10.211463928222656,-4.146756649017334,9.584684371948242
0,410947,-5.0620903968811035,-2.4672319889068604,5.685547351837158,-11.343788146972656
0,410947,-0.8540407419204712,-14.629938125610352,-13.10710620880127,-23.7618408203125
0,410947,-0.40575411915779114,-2.4398062229156494,11.046876907348633,21.257680892944336
0,410947,-4.373098850250244,13.182718276977539,17.22096824645996,21.413455963134766
0,410947,8.857102394104004,15.874350547790527,-6.220118045806885,-13.116521835327148
0,410947,1.7092180252075195,-7.6303911209106445,-1.441636085510254,-0.9907311797142029
0,410948,0.5987406969070435,-7.167206764221191,-15.92764949798584,1.398808479309082
0,410948,20.250507354736328,14.88681697845459,-15.438387870788574,-3.502561092376709
0,410948,-11.848777770996094,7.949452877044678,18.291372299194336,2.766921281814575
0,410948,-19.965517044067383,-8.985698699951172,18.92040252685547,16.272438049316406
0,410948,23.29883575439453,2.7846884727478027,13.235408782958984,19.446176528930664
0,410948,21.592479705810547,-3.1207594871520996,-0.0068773324601352215,-5.917204856872559
0,410949,-6.197359561920166,-9.850584983825684,-13.633794784545898,4.719848155975342
0,410949,-1.822502851486206,22.937618255615234,17.856590270996094,15.204307556152344
0,410949,0.14441491663455963,-4.638805389404297,15.746556282043457,-19.679309844970703
0,410949,-0.6673852801322937,-24.800325393676758,-21.52548599243164,6.523070812225342
0,410949,-5.940618515014648,20.127809524536133,-16.688438415527344,37.8572883605957
0,410949,11.312920570373535,12.350448608398438,20.065732955932617,-13.552894592285156
0,410950,10.335131645202637,-15.776766777038574,5.693856716156006,-36.270912170410156
0,410950,-32.72782516479492,-11.021737098693848,-27.155611038208008,-8.41464900970459
0,410950,-12.18536376953125,-11.468544960021973,11.885438919067383,31.061288833618164
0,410950,14.988799095153809,13.680402755737305,-8.999425888061523,-1.8832762241363525
0,410950,11.402719497680664,0.38680723309516907,-42.65764617919922,-46.866119384765625
0,410950,-4.514032363891602,-14.580085754394531,15.318761825561523,19.47231674194336
0,410951,-24.35555648803711,11.687844276428223,21.645530700683594,24.362089157104492
0,410951,-2.4236185550689697,10.685420989990234,4.564164161682129,-36.56333541870117
0,410951,16.700313568115234,10.074141502380371,4.460554122924805,-14.39785385131836
0,410951,8.456241607666016,-11.608187675476074,-5.587373733520508,-1.2007544040679932
0,410951,3.2895894050598145,-15.213116645812988,-7.86621618270874,-6.540928840637207
0,410951,-6.5066633224487305,8.109386444091797,-4.1254563331604,11.904027938842773
0,410952,-1.1538410186767578,-3.6949851512908936,17.172836303710938,16.328351974487305
0,410952,2.976175546646118,5.433133125305176,2.9396884441375732,-3.9333322048187256
0,410952,-8.665936470031738,12.791543006896973,-2.3547019958496094,-6.122839450836182
0,410952,-14.332419395446777,-8.557355880737305,22.31171226501465,17.572954177856445
0,410952,10.226907730102539,3.0232155323028564,-0.7155850529670715,-3.5109071731567383
0,410952,15.925187110900879,-9.069310188293457,-17.673255920410156,-7.462138652801514
0,410953,-24.923131942749023,-8.036730766296387,3.947382926940918,11.588746070861816
0,410953,8.703034400939941,12.413865089416504,1.2907367944717407,4.931097030639648
0,410953,32.63468933105469,5.209169387817383,-6.406917572021484,17.229080200195312
0,410953,-9.666964530944824,4.844354152679443,-2.1650145053863525,6.185168266296387
0,410953,-18.29737091064453,-9.835390090942383,1.7226881980895996,-23.773557662963867
0,410953,-4.139084815979004,3.454754590988159,9.991418838500977,14.15835189819336
0,410954,24.407398223876953,8.802868843078613,-3.724130392074585,15.026753425598145
0,410954,18.23505973815918,-10.929818153381348,-26.121784210205078,-36.46772384643555
0,410954,-18.32046127319336,5.984373569488525,-2.0931715965270996,-8.465869903564453
0,410954,-19.612625122070312,6.967555999755859,30.26727294921875,28.291336059570312
0,410954,-1.5404539108276367,-0.15757814049720764,0.04341435059905052,-0.49768227338790894
0,410954,14.238378524780273,-4.018928050994873,-18.642242431640625,-29.580615997314453
0,410955,-0.22198233008384705,-30.287553787231445,-5.5126118659973145,-8.279874801635742
0,410956,-28.364866256713867,0.7400411367416382,-19.220775604248047,9.223377227783203
0,410956,6.481969833374023,26.112316131591797,-20.026514053344727,-17.00348663330078
0,410956,21.619457244873047,-17.550477981567383,15.895048141479492,0.08980471640825272
0,410956,-28.433942794799805,-16.73737144470215,11.204514503479004,32.26593780517578
0,410957,2.444563865661621,20.79250717163086,-5.116818904876709,-3.96734881401062
0,410957,27.551891326904297,6.146336555480957,-8.964733123779297,-13.83034610748291
0,410957,-9.823272705078125,-28.24578285217285,-0.0793294832110405,15.137773513793945
0,410958,-8.967862129211426,9.910921096801758,42.90569305419922,6.256886005401611
0,410958,-5.91528844833374,33.69363021850586,23.83241081237793,-7.617075443267822
0,410961,16.930742263793945,-16.099016189575195,-31.238412857055664,-3.9570155143737793
0,410962,17.033519744873047,-3.594527006149292,-13.747259140014648,-2.3842835426330566
0,410965,-17.190519332885742,30.6617431640625,37.56571960449219,15.152264595031738
0,410966,-12.228870391845703,-11.326337814331055,7.5533223152160645,16.585969924926758
0,410969,7.537415504455566,-21.785491943359375,-13.944674491882324,-33.93996810913086
0,410971,10.12122631072998,18.70798110961914,16.855627059936523,-26.18830108642578
0,410973,-10.0652494430542,12.374106407165527,-4.5764241218566895,67.69906616210938
0,410975,-1.0463567972183228,-18.041109085083008,-29.762718200683594,39.31610107421875
0,410977,17.07990837097168,-12.201579093933105,-10.10373306274414,-76.04917907714844
0,410979,0.5430904626846313,8.683409690856934,0.5205973982810974,-38.55215835571289
0,410981,-7.4863739013671875,-11.194339752197266,-5.141589164733887,27.815893173217773
0,410983,-11.991108894348145,-6.734832286834717,8.501774787902832,-9.389578819274902
0,410985,-3.3698668479919434,12.310710906982422,-6.828366279602051,21.555023193359375
0,410987,9.449366569519043,-15.66753101348877,5.996109962463379,69.9087142944336
0,410989,14.981135368347168,5.7141523361206055,-8.446645736694336,-59.53137969970703
0,410991,9.854081153869629,27.766551971435547,-27.073368072509766,-92.05467987060547
0,410993,-10.719242095947266,7.071887493133545,52.43343734741211,61.815120697021484
0,410995,-9.508808135986328,-14.719993591308594,16.660531997680664,39.83468246459961
0,410997,-18.83701515197754,-13.013571739196777,-22.337060928344727,-25.7575740814209
0,410999,-6.060554027557373,2.2171196937561035,8.055727005004883,10.23795223236084
0,411001,20.304960250854492,-3.8617186546325684,-8.5647611618042,18.57054901123047
0,411003,2.9106173515319824,9.864840507507324,-4.913499355316162,-15.945798873901367
1,412311,-0.8811357021331787,15.629534721374512,5.530918121337891,-14.72297477722168
1,412313,2.8128550052642822,-14.505541801452637,25.074634552001953,33.70496368408203
1,412315,-22.847871780395508,-16.75762176513672,-3.8198280334472656,-10.783757209777832
1,412317,-13.938334465026855,2.248279094696045,-51.60309982299805,-37.941123962402344
1,412319,22.366762161254883,10.378165245056152,-9.489343643188477,8.838669776916504
1,412325,28.712650299072266,14.198186874389648,40.45209884643555,11.946612358093262
1,412326,-6.7906951904296875,-8.644392967224121,9.775956153869629,10.71900749206543
1,412326,-24.69577407836914,-1.5236642360687256,-8.195550918579102,13.081299781799316
1,412327,10.59400749206543,1.2552825212478638,-2.0464210510253906,-6.9873366355896
1,412328,17.8675479888916,-20.7672176361084,-10.519791603088379,-0.7835618257522583
1,412331,-4.69959020614624,8.087846755981445,-2.0660223960876465,-30.541879653930664
1,412332,-19.662412643432617,15.23668098449707,10.194079399108887,-28.89405059814453
1,412335,3.9712867736816406,4.231320381164551,18.51990509033203,44.1459846496582
1,412336,22.565332412719727,-17.04515266418457,-19.764497756958008,24.88251304626465
1,412339,-0.6608144640922546,-7.410157680511475,-14.338134765625,-7.107922077178955
1,412340,-25.297475814819336,14.141963958740234,19.810970306396484,-8.259492874145508
1,412343,-22.941999435424805,2.2911183834075928,-3.9260687828063965,-6.865077018737793
1,412344,14.651042938232422,19.732757568359375,3.139403820037842,2.4859941005706787
1,412347,27.23442840576172,-14.35858154296875,4.004580974578857,-10.948534965515137
1,412366,5.6690545082092285,-20.293251037597656,-5.027749538421631,4.739136219024658
1,412366,-10.548516273498535,16.258262634277344,10.755781173706055,19.304960250854492
1,412367,-3.0906827449798584,-3.170360803604126,0.7028735280036926,-25.54977798461914
1,412367,-7.042945384979248,-19.685319900512695,-9.614474296569824,-11.470147132873535
1,412367,-10.478202819824219,16.182926177978516,2.265011787414551,23.175678253173828
1,412367,22.98469352722168,26.60826873779297,-7.0914835929870605,-9.494583129882812
1,412367,4.863814830780029,-25.916833877563477,-24.160778045654297,-9.140301704406738
1,412367,-28.30387306213379,-29.435644149780273,-0.7960086464881897,6.124876499176025
1,412368,0.5843315124511719,15.480207443237305,22.580636978149414,3.8098740577697754
1,412368,8.60965633392334,21.656030654907227,19.96915054321289,11.809547424316406
1,412369,7.819407939910889,3.378570795059204,-25.64750862121582,14.768593788146973
1,412370,6.4964447021484375,3.44303297996521,-30.487476348876953,-14.60706901550293
1,412373,-19.764970779418945,-12.219803810119629,26.922042846679688,-1.0044864416122437
1,412374,15.702871322631836,-12.030550956726074,26.904491424560547,21.388656616210938
1,412377,4.338604927062988,5.085009574890137,-14.277571678161621,-7.063204765319824
1,412378,-23.147397994995117,-1.6403374671936035,-6.522828102111816,3.3136048316955566
1,412381,19.156301498413086,-15.54494571685791,-25.946271896362305,-24.882701873779297
1,412382,3.597378969192505,9.880965232849121,-26.916170120239258,-29.3502197265625
1,412385,9.690888404846191,30.8238468170166,61.83261489868164,43.78889083862305
1,412386,-0.7943100929260254,13.211594581604004,33.2817268371582,6.8315839767456055
1,412389,-29.50299835205078,-12.721748352050781,-48.52398681640625,-48.4073486328125
1,412391,-0.46396705508232117,-27.49407196044922,-12.208268165588379,17.92336082458496
1,412393,0.8070452213287354,9.34271240234375,47.704193115234375,66.47832489013672
1,412425,12.030879974365234,7.874149322509766,4.508330345153809,-32.91599655151367
1,412425,12.108760833740234,-10.587684631347656,-26.544504165649414,-74.16238403320312
1,412425,-20.397415161132812,-5.6094584465026855,11.941814422607422,39.429779052734375
1,412426,-8.361473083496094,8.483407974243164,24.31486701965332,43.67635726928711
1,412426,19.004549026489258,19.942808151245117,-16.746801376342773,-36.83175277709961
1,412426,11.252866744995117,-27.203981399536133,-30.28972816467285,-23.477313995361328
1,412426,-17.765039443969727,-4.715292930603027,10.218608856201172,27.01022720336914
1,412426,2.4563217163085938,26.805130004882812,12.5994291305542,15.894911766052246
1,412426,12.377199172973633,-6.204763412475586,-9.89826488494873,-6.616440773010254
1,412427,-19.703245162963867,-2.6840450763702393,-9.381592750549316,2.855687141418457
1,412427,-8.002416610717773,-14.723949432373047,-8.206992149353027,-5.66028356552124
1,412427,6.403040885925293,-4.145385265350342,-6.61726188659668,5.164078712463379
1,412427,21.80747413635254,23.401601791381836,6.787901401519775,16.1208553314209
1,412427,14.743642807006836,3.173922061920166,6.630724906921387,-10.156278610229492
1,412428,-24.760969161987305,-14.18331241607666,13.495941162109375,-9.395207405090332
1,412428,-2.6772749423980713,3.252711772918701,-1.8757858276367188,-0.1961054801940918
1,412429,16.55427360534668,-11.833894729614258,-16.59613609313965,4.694289207458496
1,412429,-6.037591934204102,-16.434667587280273,15.712170600891113,-9.03468132019043
1,412430,-9.966920852661133,20.92906379699707,15.87938404083252,-30.997074127197266
1,412433,-3.291264295578003,8.44785213470459,-26.113019943237305,11.577528953552246
1,412435,7.9013872146606445,3.210728406906128,-10.348594665527344,18.82466697692871
1,412437,-7.623418807983398,2.670970916748047,33.8028678894043,-12.697372436523438
1,412439,-19.25883674621582,-27.013511657714844,-8.854769706726074,11.752670288085938
1,412441,19.859195709228516,-18.40357780456543,-63.15442657470703,-2.4353015422821045
1,412443,11.476335525512695,44.236183166503906,17.73343849182129,-20.281648635864258
1,412445,-18.00906753540039,21.22835922241211,44.43037033081055,12.202856063842773
1,412447,12.40530776977539,-48.90283203125,-31.187278747558594,26.64835548400879
1,412449,9.575714111328125,-4.301446437835693,11.045373916625977,-8.48631763458252
1,412451,-26.106109619140625,44.483219146728516,43.71662139892578,-38.742767333984375
1,412453,-7.586645126342773,-1.491207480430603,-5.824483394622803,25.128610610961914
1,412455,28.866775512695312,-11.755210876464844,-11.825467109680176,31.817209243774414
1,412500,6.3622260093688965,12.56734848022461,-1.412239670753479,-29.558521270751953
1,412500,-9.240796089172363,-21.44406509399414,-10.991042137145996,-2.1056904792785645
1,412500,-16.717376708984375,-6.381831169128418,-7.068068981170654,23.6514835357666
1,412500,-17.84752655029297,19.90097427368164,11.298766136169434,2.9187204837799072
1,412500,33.29231262207031,-8.250524520874023,12.346348762512207,-21.618253707885742
1,412501,25.636018753051758,-17.860315322875977,-17.976137161254883,-8.872061729431152
1,412501,-19.724319458007812,9.81179141998291,-11.164631843566895,21.753583908081055
1,412501,-17.07819175720215,19.18478775024414,0.18837562203407288,1.1599586009979248
1,412501,-3.106926679611206,-12.33718490600586,5.116945743560791,1.4313161373138428
1,412501,6.861865520477295,-14.976762771606445,10.548466682434082,-1.25498628616333
1,412502,16.86517333984375,10.156118392944336,-9.327729225158691,-28.065046310424805
1,412502,1.9613615274429321,-8.63873291015625,7.180281162261963,-4.436736106872559
1,412502,-15.529818534851074,-18.021665573120117,3.629871368408203,14.02265739440918
1,412502,-10.003063201904297,25.48118019104004,2.561786651611328,-0.45473483204841614
1,412502,7.466172218322754,10.720983505249023,8.11679744720459,-5.012740612030029
1,412502,8.369558334350586,-27.68952751159668,-16.021589279174805,15.42461109161377
1,412503,-9.625105857849121,-3.8175735473632812,-3.477147102355957,16.68951416015625
1,412503,2.967686891555786,16.51361656188965,-3.0048089027404785,-13.637459754943848
1,412503,5.01699686050415,8.69287109375,-10.18956184387207,-9.79835033416748
1,412503,-8.393814086914062,17.879711151123047,12.339855194091797,-1.3186068534851074
1,412503,13.127609252929688,3.347052812576294,5.946616172790527,-11.974575996398926
1,412503,5.0171799659729,-29.785324096679688,-10.446122169494629,7.050539970397949
1,412505,-19.02751350402832,9.7996826171875,3.964256525039673,13.968889236450195
1,412505,-40.01985168457031,2.8240768909454346,2.8375496864318848,0.9796810150146484
1,412505,11.202638626098633,-20.181968688964844,-3.5981545448303223,4.252230644226074
1,412506,76.89397430419922,35.45426559448242,-0.2359459400177002,8.228412628173828
1,412509,-10.875688552856445,1.3554844856262207,16.633501052856445,23.608177185058594
1,412510,-37.829463958740234,-28.442964553833008,2.1050631999969482,-24.29142951965332
1,412513,-5.603017807006836,3.5316226482391357,-15.68805980682373,-39.97232437133789
1,412514,5.18936824798584,4.089818000793457,20.317668914794922,29.47201919555664
1,412517,30.09894561767578,8.948582649230957,-5.350883483886719,11.442885398864746
1,412518,3.239065647125244,-9.977139472961426,-34.639774322509766,-30.243009567260742
1,412521,-1.3839870691299438,-23.813438415527344,9.603397369384766,20.772659301757812
1,412522,-19.148723602294922,26.230836868286133,41.8049430847168,50.38516616821289
1,412525,-28.235612869262695,26.412918090820312,-34.42247772216797,-52.115234375
1,412527,-2.4601047039031982,-38.42107391357422,-72.14017486572266,-97.05085754394531
1,412529,-11.37317943572998,-23.30368995666504,50.849029541015625,-7.154887676239014
1,412531,3.6811811923980713,5.972691535949707,49.54519271850586,59.27639389038086
1,412587,52.73904800415039,24.951671600341797,-32.126197814941406,33.459014892578125
1,412587,25.580886840820312,36.979679107666016,11.884648323059082,9.179365158081055
1,412588,-43.56848907470703,-15.106104850769043,18.42035484313965,-1.3942135572433472
1,412588,-11.392803192138672,-29.09644889831543,-10.054439544677734,-5.094127178192139
1,412588,4.226635456085205,3.6084249019622803,10.581803321838379,8.169099807739258
1,412588,-6.7092604637146,7.678152561187744,-1.3482056856155396,-6.871514320373535
1,412588,15.192864418029785,1.751587152481079,-10.505999565124512,4.343390464782715
1,412589,25.66456413269043,7.769740581512451,18.980030059814453,25.811893463134766
1,412589,7.492544651031494,-3.2789227962493896,-0.8766390085220337,-5.551290512084961
1,412589,-40.15791320800781,-7.305639743804932,-35.825809478759766,-12.971329689025879
1,412589,-5.545493125915527,-5.797136306762695,-2.7777953147888184,25.24234962463379
1,412589,18.410306930541992,10.11991024017334,19.93289566040039,5.170294761657715
1,412589,-5.65022087097168,5.591447830200195,-16.680770874023438,-27.515384674072266
1,412590,-1.9407386779785156,-11.667510986328125,-4.037113189697266,6.27891206741333
1,412590,-5.699722766876221,11.469306945800781,-2.1701886653900146,6.080592632293701
1,412590,7.057944297790527,-14.343660354614258,-16.592275619506836,-21.262964248657227
1,412590,-5.451904296875,-16.845897674560547,28.929960250854492,11.282991409301758
1,412590,-26.476709365844727,10.942641258239746,1.0153875350952148,-4.296502113342285
1,412590,13.409490585327148,17.234649658203125,-16.323383331298828,-6.426296710968018
1,412591,17.763626098632812,16.972064971923828,16.02371597290039,22.20616340637207
1,412591,-16.528451919555664,-34.40436935424805,-17.67009162902832,-26.478532791137695
1,412591,-3.790574550628662,-22.674806594848633,-6.0763163566589355,-27.845359802246094
1,412591,14.43949031829834,19.113662719726562,24.995718002319336,4.937390327453613
1,412591,1.0927640199661255,3.1620898246765137,5.391308784484863,5.209761619567871
1,412591,0.021452032029628754,12.863588333129883,6.861763000488281,8.602991104125977
1,412592,16.768198013305664,0.2804945111274719,7.034524917602539,-1.0797696113586426
1,412592,9.229876518249512,-3.968341588973999,-5.290655612945557,-7.113625526428223
1,412592,-9.31356430053711,24.905832290649414,-19.308637619018555,10.379570960998535
1,412593,-19.60291862487793,-17.729536056518555,-5.404803276062012,1.7810362577438354
1,412593,1.4194917678833008,-44.06939697265625,17.97284698486328,-23.641551971435547
1,412594,14.05681037902832,6.445709705352783,-22.015304565429688,-5.881799221038818
1,412595,-10.257658958435059,14.790355682373047,-16.68414878845215,7.871840953826904
1,412596,-8.825939178466797,12.597119331359863,24.815349578857422,-6.879815578460693
1,412599,-0.8852046728134155,19.87213134765625,13.436213493347168,2.035627841949463
1,412600,-5.2413506507873535,-9.26849365234375,-1.1221235990524292,17.822471618652344
1,412603,4.374094486236572,-5.439648151397705,-28.164613723754883,1.830072045326233
1,412604,9.199027061462402,9.846689224243164,25.425697326660156,16.549711227416992
1,412607,-4.614897727966309,-4.055830955505371,36.170345306396484,22.1325740814209
1,412608,4.041111946105957,-14.572236061096191,-54.52854919433594,-5.249794006347656
1,412611,29.18123435974121,17.383838653564453,-25.975507736206055,-19.394546508789062
1,412612,-8.417789459228516,19.380470275878906,38.96057891845703,-18.649011611938477
1,412615,-26.713960647583008,-15.387271881103516,29.597484588623047,26.12238121032715
1,412677,-11.220218658447266,-7.384697437286377,-18.59389305114746,4.403451919555664
1,412677,-2.8704519271850586,-15.726907730102539,-9.23283576965332,-22.956878662109375
1,412677,32.54682159423828,-2.010538101196289,2.6768670082092285,3.474912405014038
1,412677,-1.1380205154418945,18.96726417541504,-12.551987648010254,-17.922990798950195
1,412677,-28.326976776123047,-12.523602485656738,27.135326385498047,21.45745086669922
1,412677,5.358989715576172,-11.86221694946289,19.331090927124023,25.3303279876709
1,412678,5.898603439331055,22.248680114746094,-17.353662490844727,-26.70609474182129
1,412678,-0.16706512868404388,7.33925724029541,-2.4529128074645996,3.8190619945526123
1,412678,7.676448345184326,-20.076818466186523,-5.731332778930664,10.054462432861328
1,412678,6.589842319488525,-2.219302177429199,-3.303514003753662,0.40455177426338196
1,412678,0.15934720635414124,14.277372360229492,13.618852615356445,1.6971880197525024
1,412678,1.0032919645309448,16.04645538330078,-1.3738867044448853,-4.347051620483398
1,412679,-3.0478830337524414,-11.88045597076416,-10.31821346282959,-9.229835510253906
1,412679,-6.506664752960205,-16.448862075805664,-17.85320281982422,-18.584482192993164
1,412679,10.21956729888916,11.668536186218262,-19.671934127807617,-5.539076805114746
1,412679,12.734869956970215,0.5693537592887878,-8.013884544372559,16.30617332458496
1,412679,-12.919832229614258,-12.792094230651855,-0.5582980513572693,9.211149215698242
1,412680,-20.21954917907715,2.6356494426727295,-5.87380838394165,-12.060331344604492
1,412680,3.2635817527770996,3.9039530754089355,8.31418228149414,-4.124666213989258
1,412680,21.242469787597656,-12.632116317749023,-4.034848690032959,7.670472145080566
1,412680,8.58939266204834,7.000271797180176,-13.538536071777344,-4.011595249176025
1,412680,-18.51270294189453,-2.1945202350616455,35.16144943237305,6.991087436676025
1,412680,-14.270169258117676,-25.57915687561035,10.259169578552246,20.448871612548828
1,412681,14.2481050491333,17.68259048461914,-11.574914932250977,-4.747259140014648
1,412681,9.825699806213379,26.955875396728516,14.104764938354492,-5.566699028015137
1,412681,7.9618682861328125,-3.5560100078582764,28.256114959716797,4.529360294342041
1,412681,3.6550984382629395,1.0210180282592773,10.291886329650879,-6.444870471954346
1,412681,-19.490692138671875,2.6058225631713867,-7.326623916625977,-4.178981304168701
1,412681,-6.122810363769531,-1.8988503217697144,2.1784768104553223,7.678523540496826
1,412682,-8.412949562072754,0.08884595334529877,-2.2045464515686035,13.12416934967041
1,412682,-6.7155070304870605,-3.9332938194274902,8.390320777893066,-0.28706562519073486
1,412683,22.925029754638672,12.061247825622559,-1.658531665802002,-15.941156387329102
1,412683,8.604031562805176,23.100927352905273,-9.859097480773926,3.6391422748565674
1,412684,-13.065640449523926,-18.950946807861328,-7.281489372253418,10.426531791687012
1,412685,-16.245271682739258,-51.408790588378906,-18.48100471496582,-30.01627540588379
1,412686,-15.873184204101562,-17.6428279876709,-14.008217811584473,-17.488330841064453
1,412689,23.027841567993164,22.13759422302246,3.9354379177093506,33.231876373291016
1,412690,32.51905822753906,29.546157836914062,9.026657104492188,35.082698822021484
1,412693,-20.055545806884766,-8.585958480834961,-3.3058292865753174,-25.338645935058594
1,412694,-18.177024841308594,-17.779619216918945,-28.214574813842773,-41.400943756103516
1,412697,-0.47339221835136414,13.713685989379883,-4.109558582305908,13.475314140319824
1,412698,14.522470474243164,9.597050666809082,50.12825012207031,9.197843551635742
1,412701,17.612871170043945,6.707004547119141,5.973863124847412,7.0505170822143555
1,412702,-14.471134185791016,-2.433795213699341,-25.546443939208984,-4.207589626312256
1,412705,-4.332988262176514,-3.553032398223877,-9.76009750366211,-34.06449890136719
1,412706,-7.969115257263184,10.775449752807617,6.223627090454102,13.727961540222168
1,412709,2.2705953121185303,11.536194801330566,24.496915817260742,29.56815528869629
1,412710,20.031898498535156,-2.6119203567504883,-14.524234771728516,-14.342691421508789
1,412783,-5.650200843811035,-14.997346878051758,-14.089462280273438,-10.098673820495605
1,412783,-3.302554130554199,19.479507446289062,10.382158279418945,6.853929042816162
1,412783,11.278615951538086,14.449599266052246,-20.08951187133789,-1.718721628189087
1,412783,-9.713184356689453,-45.49037170410156,-4.08804178237915,14.467339515686035
1,412784,-23.846786499023438,-16.38517951965332,23.112567901611328,15.077157974243164
1,412784,6.924950122833252,35.62276077270508,3.1979312896728516,-25.39733123779297
1,412784,12.79836368560791,5.665379524230957,-1.193286418914795,-4.241791725158691
1,412784,-16.86689567565918,-20.036001205444336,9.647000312805176,28.80695915222168
1,412784,-7.650351047515869,-10.946579933166504,31.37041664123535,-7.354286193847656
1,412784,19.777240753173828,2.01607084274292,0.3585827350616455,-18.317873001098633
1,412785,-3.713226079940796,-5.887740612030029,-46.574928283691406,-4.885987758636475
1,412785,-12.921186447143555,-14.924559593200684,1.890952229499817,7.2556352615356445
1,412785,10.141732215881348,35.09612274169922,17.84354019165039,-2.2324635982513428
1,412785,7.466330528259277,-0.10415758192539215,-31.473535537719727,-16.954181671142578
1,412785,-11.191113471984863,-39.031761169433594,-10.475468635559082,12.226826667785645
1,412785,-14.175317764282227,23.36016082763672,14.121366500854492,14.535001754760742
1,412786,4.011633396148682,7.574835777282715,6.0237579345703125,3.9068284034729004
1,412786,17.310081481933594,-12.7510347366333,20.052507400512695,-8.108076095581055
1,412786,15.589795112609863,8.290519714355469,-2.801318645477295,-0.28980162739753723
1,412786,-0.24467076361179352,18.31963348388672,-8.049137115478516,21.446908950805664
1,412786,-0.5853275060653687,1.4900639057159424,16.67838478088379,1.4757862091064453
1,412787,18.987133026123047,-9.183332443237305,14.320358276367188,-2.0275700092315674
1,412787,1.3017456531524658,-3.0072453022003174,-9.914456367492676,0.7293053269386292
1,412787,-27.162965774536133,-17.470449447631836,-17.174850463867188,9.865736961364746
1,412787,-0.6991341710090637,8.29094123840332,13.80821418762207,-2.7556025981903076
1,412787,24.13953971862793,9.239680290222168,12.512975692749023,-13.544132232666016
1,412787,5.307090759277344,-0.8011254668235779,-13.949467658996582,8.984375953674316
1,412788,-20.415117263793945,15.076284408569336,-18.591459274291992,-6.5285210609436035
1,412788,-10.956714630126953,0.9120112061500549,-2.3759799003601074,-4.6505584716796875
1,412788,-12.071297645568848,-0.7089906334877014,0.9970410466194153,0.8704028129577637
1,412788,-5.20264196395874,-7.181674003601074,-2.2342329025268555,7.826336860656738
1,412788,18.874710083007812,0.5711385607719421,11.220613479614258,16.407451629638672
1,412788,-2.6415045261383057,-6.0864481925964355,9.204617500305176,-22.833629608154297
1,412789,-17.45853614807129,-8.256101608276367,-11.069655418395996,-30.163312911987305
1,412789,10.80026912689209,2.6018831729888916,2.0636868476867676,9.641410827636719
1,412789,25.009479522705078,-12.045049667358398,4.042065143585205,21.08304214477539
1,412790,-7.432425498962402,9.28180980682373,-4.648499011993408,-22.101856231689453
1,412790,-12.795656204223633,17.464799880981445,10.02839183807373,-18.435855865478516
1,412790,-14.55512809753418,8.45047378540039,-5.407435894012451,19.8432674407959
1,412791,1.2910631895065308,-10.444244384765625,-5.072566032409668,-0.5943377017974854
1,412793,25.922992706298828,-39.54132843017578,-9.868485450744629,-1.6085034608840942
1,412795,4.755064964294434,13.515610694885254,-6.933500289916992,13.32371997833252
1,412797,-8.589190483093262,36.467063903808594,-13.061158180236816,-42.479469299316406
1,412799,-19.846630096435547,-19.609363555908203,-4.395804405212402,-34.416873931884766
1,412801,26.561546325683594,41.529903411865234,59.64972686767578,58.93245315551758
1,412803,36.405635833740234,16.499238967895508,-27.647117614746094,63.65947341918945
1,412805,-72.5194320678711,-71.7452621459961,-103.36974334716797,-136.91505432128906
1,412807,-27.447853088378906,3.173029899597168,51.38201141357422,-135.78433227539062
1,412809,79.41899108886719,-23.267635345458984,110.62191772460938,237.02279663085938
1,412811,-16.933218002319336,-52.58984375,-24.74292755126953,195.10777282714844
1,412813,-42.27442169189453,38.46697998046875,-50.93814468383789,-75.3658676147461
1,412815,11.921287536621094,11.349345207214355,-11.696850776672363,-66.85659790039062
1,412816,-2.5351428985595703,-14.958629608154297,19.186969757080078,-20.538978576660156
1,412819,42.02885437011719,40.95911407470703,25.428466796875,-9.291552543640137
1,412820,6.198788642883301,23.05906105041504,-2.1052064895629883,-21.664539337158203
1,412823,-25.705350875854492,23.69066047668457,21.604440689086914,-41.62440490722656
1,412906,-1.005760669708252,-1.7424333095550537,-31.091068267822266,-5.027123928070068
1,412906,-25.5372371673584,-44.44928741455078,-50.15926742553711,25.04302406311035
1,412906,11.941890716552734,34.82316970825195,23.778615951538086,-15.385510444641113
1,412906,20.94167709350586,31.512651443481445,11.40078067779541,-35.98162841796875
1,412906,-8.549236297607422,-32.13253402709961,-0.11274287104606628,-8.29898452758789
1,412906,-9.892379760742188,-14.615410804748535,17.42225456237793,6.7163896560668945
1,412907,6.678314685821533,11.770483016967773,-0.17379708588123322,15.306089401245117
1,412907,-4.919371128082275,-21.287960052490234,-2.8363256454467773,44.0895881652832
1,412907,-16.194210052490234,-33.0435905456543,8.192733764648438,34.11775207519531
1,412907,26.146669387817383,38.82748794555664,-0.9055612683296204,2.3106250762939453
1,412907,32.784629821777344,28.952877044677734,-10.911993980407715,-12.082395553588867
1,412907,-18.761032104492188,-41.912532806396484,6.2923359870910645,2.2638344764709473
1,412908,-12.446941375732422,-5.953808784484863,16.497522354125977,-9.684529304504395
1,412908,20.549488067626953,38.235111236572266,-11.426543235778809,-26.950822830200195
1,412908,-16.90267562866211,2.492305278778076,-9.414238929748535,-4.477318286895752
1,412908,-10.141448974609375,-20.983394622802734,4.413987636566162,-17.531980514526367
1,412908,14.885677337646484,-7.901484966278076,-21.874380111694336,-1.2127361297607422
1,412909,-4.303736209869385,6.114009380340576,2.8704476356506348,27.51997184753418
1,412909,-9.081779479980469,12.727259635925293,27.328523635864258,1.8738666772842407
1,412909,4.424191474914551,15.11119556427002,2.1190052032470703,-6.941530227661133
1,412909,18.103971481323242,-16.387367248535156,-9.349394798278809,-1.2401849031448364
1,412909,-7.151097774505615,-8.136446952819824,-8.875324249267578,-3.318275213241577
1,412909,-32.986656188964844,37.80913162231445,11.037784576416016,-8.970785140991211
1,412910,1.8685795068740845,13.74968147277832,2.08086895942688,-31.197628021240234
1,412910,25.554384231567383,-18.484352111816406,-9.3233003616333,-18.645000457763672
1,412910,-13.142524719238281,-5.9745402336120605,8.672013282775879,31.514328002929688
1,412910,-19.364913940429688,15.915159225463867,1.7183051109313965,31.76734161376953
1,412910,23.033893585205078,-5.320815086364746,-7.393171787261963,-9.375585556030273
1,412910,16.089208602905273,-29.463027954101562,-0.8805539608001709,-8.098060607910156
1,412911,-9.268274307250977,-17.800722122192383,5.331861972808838,32.91056823730469
1,412911,-2.5787580013275146,2.913099527359009,-5.693911075592041,16.68142318725586
1,412911,14.034706115722656,-12.557823181152344,-10.087953567504883,-15.529668807983398
1,412911,11.225428581237793,-21.84798812866211,1.4713739156723022,-7.950355529785156
1,412911,-0.28144708275794983,17.57667350769043,9.14968204498291,0.9835688471794128
1,412911,-3.043649196624756,10.578498840332031,8.407354354858398,4.169325828552246
1,412912,-16.46288299560547,-3.287684679031372,-6.896508693695068,-14.16457748413086
1,412912,-9.018866539001465,-13.145323753356934,-7.67866849899292,13.068471908569336
1,412912,18.55988121032715,-10.84685230255127,10.388818740844727,22.037107467651367
1,412912,-0.20469026267528534,15.522035598754883,7.2877960205078125,0.11745636910200119
1,412912,-26.33269691467285,-5.02131462097168,-20.79530143737793,9.279230117797852
1,412912,-12.997760772705078,-6.518090724945068,-19.0021915435791,-12.909371376037598
1,412914,8.421643257141113,67.31330108642578,-10.35312557220459,-7.659071922302246
1,412914,18.189128875732422,67.58363342285156,0.7450982332229614,3.742621421813965
1,412914,1.341507911682129,-61.832557678222656,14.459317207336426,-9.603686332702637
1,412914,14.264200210571289,-57.11796569824219,-9.903687477111816,-12.39945125579834
1,412916,-10.41466236114502,-30.670854568481445,-0.6912246346473694,35.52281188964844
1,412917,-67.70805358886719,-116.75841522216797,-1.7747987508773804,130.2288055419922
1,412918,-1.6217281818389893,-55.37671661376953,-12.133469581604004,60.465091705322266
1,412921,66.18775939941406,28.13113784790039,50.384796142578125,-34.883689880371094
1,412922,9.87943172454834,21.708995819091797,40.631160736083984,-35.23756790161133
1,412925,-22.154516220092773,99.58662414550781,-23.273691177368164,-136.56822204589844
1,412926,19.35028839111328,118.04582977294922,-13.500779151916504,-110.4413833618164
1,412929,-30.692684173583984,14.299829483032227,-3.4807093143463135,-35.04037857055664
1,412930,-40.38166809082031,1.4264822006225586,-5.407959938049316,-30.865650177001953
1,412933,59.24126434326172,-0.15871532261371613,-9.53740406036377,81.95366668701172
1,412934,31.460813522338867,-8.774917602539062,2.2669756412506104,23.723302841186523
1,412937,-26.920757293701172,43.50450134277344,14.078072547912598,-98.41090393066406
1,412938,-9.1910400390625,27.900203704833984,-16.108943939208984,-0.8924610614776611
1,412941,2.7005746364593506,-64.6977767944336,-21.692262649536133,92.14557647705078
1,412942,6.137902736663818,-88.3214111328125,13.838123321533203,63.94294738769531
1,412945,18.733375549316406,-9.183418273925781,35.72108459472656,40.42644119262695
1,412947,10.818533897399902,28.560579299926758,14.59322738647461,69.564697265625
1,412949,-32.52682876586914,-27.469160079956055,-15.68380355834961,-0.2414354681968689
1,413044,-17.3580265045166,9.542227745056152,-25.377275466918945,-115.21907806396484
1,413044,14.692410469055176,71.74267578125,-19.251523971557617,-45.667842864990234
1,413044,-14.282050132751465,-17.52271270751953,0.5230476260185242,38.48733901977539
1,413044,-6.474907875061035,-23.245868682861328,10.892134666442871,-9.112439155578613
1,413044,17.582576751708984,59.461090087890625,8.167698860168457,-12.784306526184082
1,413044,-11.164959907531738,25.760717391967773,-4.318286418914795,0.3664410710334778
1,413045,-5.283251762390137,-39.52381134033203,-20.60736846923828,-8.556769371032715
1,413045,25.84198760986328,-51.56985855102539,0.3528189957141876,7.151398658752441
1,413045,6.8890886306762695,-38.519813537597656,7.614638328552246,25.45111656188965
1,413045,-17.46837043762207,-17.68374252319336,4.108016490936279,55.18878936767578
1,413045,-1.532463550567627,-18.337554931640625,36.036197662353516,32.21367645263672
1,413045,22.42915916442871,14.786493301391602,-5.572971343994141,-21.27611541748047
1,413046,4.61988639831543,45.6037483215332,-30.469865798950195,-18.047704696655273
1,413046,-26.946380615234375,1.7971177101135254,25.141189575195312,-20.892074584960938
1,413046,-5.859543800354004,-0.7300834059715271,25.963436126708984,-37.4514274597168
1,413046,14.813227653503418,13.807774543762207,-5.527306079864502,-0.36161965131759644
1,413046,-8.686859130859375,-0.03997010365128517,-23.367706298828125,9.75987720489502
1,413046,-16.547710418701172,-0.3485240638256073,-19.019773483276367,-7.0486297607421875
1,413047,12.099388122558594,-28.68280601501465,17.43654441833496,21.725685119628906
1,413047,21.938779830932617,-19.870532989501953,30.370088577270508,14.88007926940918
1,413047,-4.796945095062256,6.34507942199707,2.7440595626831055,-6.495368003845215
1,413047,-7.414757251739502,-6.994695663452148,-12.529670715332031,14.258487701416016
1,413047,8.105183601379395,17.798738479614258,1.1835471391677856,6.080461025238037
1,413047,8.989215850830078,38.545738220214844,8.285845756530762,-28.895872116088867
1,413048,-4.404745578765869,14.665635108947754,-13.906023979187012,-17.191675186157227
1,413048,3.947462558746338,-7.663242816925049,-11.966865539550781,8.633321762084961
1,413048,-12.372332572937012,-15.901216506958008,0.2952844202518463,1.1509919166564941
1,413048,-31.524311065673828,-18.32698631286621,-12.748212814331055,-6.031411170959473
1,413048,18.393526077270508,14.129477500915527,-0.28795427083969116,5.499220848083496
1,413049,11.22679328918457,-2.970306873321533,2.943544864654541,6.934686660766602
1,413049,-17.612876892089844,-40.75748062133789,-15.852625846862793,15.401252746582031
1,413049,18.99673080444336,-2.0869901180267334,-0.9651544690132141,32.39187240600586
1,413049,10.670954704284668,4.613168716430664,11.503805160522461,-9.164735794067383
1,413049,-19.84668731689453,2.7551190853118896,12.561668395996094,-37.90012741088867
1,413049,14.143637657165527,14.090848922729492,-6.535743713378906,-1.869947910308838
1,413050,-2.3015387058258057,7.545427322387695,-16.45131492614746,12.998165130615234
1,413050,-28.201141357421875,11.699655532836914,0.6321710348129272,0.9983341693878174
1,413050,24.429738998413086,-15.534523963928223,-6.389138698577881,11.099640846252441
1,413050,15.44413948059082,-25.480533599853516,18.698503494262695,9.928265571594238
1,413050,-12.246320724487305,9.308908462524414,15.393129348754883,-25.243446350097656
1,413050,-0.5014105439186096,-2.2197513580322266,-18.488924026489258,3.1933295726776123
1,413051,-1.3407481908798218,13.817575454711914,12.866403579711914,29.51864242553711
1,413051,5.908801555633545,44.68004608154297,26.064149856567383,-15.36660385131836
1,413051,-1.833365797996521,3.1561286449432373,-18.140830993652344,-21.31513786315918
1,413051,-3.579552173614502,-16.634342193603516,-24.714223861694336,4.226433277130127
1,413051,8.458158493041992,9.6121826171875,12.610238075256348,7.211489200592041
1,413051,-2.0680935382843018,-6.434885501861572,10.49177360534668,0.809160053730011
1,413053,2.513698101043701,28.163524627685547,16.369007110595703,8.48437786102295
1,413053,3.5599679946899414,61.726802825927734,0.5263468027114868,-3.725752830505371
1,413053,-13.675748825073242,-48.517921447753906,-25.96988296508789,-2.957430839538574
1,413053,3.0710136890411377,-39.20395278930664,14.458438873291016,-0.3406258821487427
1,413053,7.289924621582031,28.79144287109375,8.675331115722656,-5.592916488647461
1,413055,-7.6166791915893555,9.976325035095215,-8.758713722229004,1.1151841878890991
1,413057,14.623771667480469,20.590085983276367,-25.569093704223633,-105.63660430908203
1,413059,-44.222469329833984,-1.3472793102264404,-73.92947387695312,-107.07249450683594
1,413061,-42.23858642578125,-56.23707580566406,25.52411651611328,61.541194915771484
1,413063,62.93334197998047,-26.440217971801758,75.46746826171875,74.051513671875
1,413065,21.2578182220459,57.070560455322266,1.034278154373169,8.329483985900879
1,413067,-29.828062057495117,9.939253807067871,20.756256103515625,15.404861450195312
1,413069,-40.95387268066406,-93.48210906982422,-77.56643676757812,3.371411085128784
1,413071,-5.194858074188232,-32.065452575683594,-68.76058959960938,0.4873623251914978
1,413073,58.85431671142578,77.18219757080078,137.6576385498047,44.31119918823242
1,413075,37.004615783691406,43.7678337097168,49.21780014038086,34.49091720581055
1,413077,-6.5701727867126465,-37.00934600830078,-69.46070861816406,24.942625045776367
1,413079,-6.275656700134277,-20.516826629638672,-15.182415962219238,-1.8988659381866455
1,413080,-4.003061771392822,-14.552156448364258,-49.35926055908203,-32.89259719848633
1,413083,-47.47079086303711,-32.741966247558594,-12.218035697937012,-17.134286880493164
1,413084,14.321451187133789,37.741519927978516,100.03294372558594,-9.158246994018555
1,413087,59.69354248046875,36.24776840209961,22.16301727294922,10.436829566955566
1,413088,-28.849098205566406,-26.431781768798828,-37.552703857421875,-31.556175231933594
1,413091,-19.932708740234375,25.72984504699707,7.972076416015625,-20.324954986572266
1,413197,11.170428276062012,5.620850086212158,-31.146089553833008,22.596635818481445
1,413197,-20.50151824951172,-57.7701416015625,-25.67452049255371,-35.55922317504883
1,413197,-7.334305763244629,13.450911521911621,22.350736618041992,11.185267448425293
1,413197,8.14706039428711,36.04353713989258,16.991743087768555,37.756256103515625
1,413197,11.400754928588867,4.11287784576416,13.97712230682373,-28.36330795288086
1,413198,10.875837326049805,-6.473945617675781,-6.510690212249756,4.0473809242248535
1,413198,-5.404428005218506,1.9177089929580688,-9.140703201293945,10.36952018737793
1,413198,-8.404159545898438,6.840141296386719,-11.70041561126709,-23.043540954589844
1,413198,-4.3530168533325195,-27.34223747253418,-22.41438865661621,12.422746658325195
1,413198,-4.834161758422852,-13.013517379760742,22.37757110595703,32.518428802490234
1,413198,9.185442924499512,22.171831130981445,2.201798677444458,-3.291085720062256
1,413199,2.484067916870117,-2.1468424797058105,-5.428633689880371,-11.324546813964844
1,413199,-15.056192398071289,-3.786475658416748,39.87905502319336,15.17748737335205
1,413199,6.866704940795898,11.41303825378418,-7.104129791259766,7.416985988616943
1,413199,14.290205001831055,-5.785822868347168,-31.401046752929688,-13.51805305480957
1,413199,4.520152568817139,16.151473999023438,-2.594359874725342,-13.352973937988281
1,413200,-4.100805759429932,4.3412322998046875,1.067602276802063,6.721503734588623
1,413200,-7.410581111907959,-19.94141387939453,3.343207359313965,6.347233772277832
1,413200,-16.406457901000977,12.889721870422363,-10.635346412658691,-31.49873161315918
1,413200,-0.05368812754750252,9.62852954864502,-17.690824508666992,-2.4561023712158203
1,413200,12.769679069519043,-25.96771812438965,2.1578128337860107,12.06540584564209
1,413200,-12.904109001159668,-8.396933555603027,12.39395809173584,-16.001928329467773
1,413201,12.21068000793457,12.331104278564453,4.261385917663574,-1.4195834398269653
1,413201,0.23842337727546692,-23.763141632080078,-10.468098640441895,12.208113670349121
1,413201,-7.671405792236328,-4.0915985107421875,9.564579010009766,20.79638671875
1,413201,24.717357635498047,21.7869873046875,27.156105041503906,-0.7913493514060974
1,413201,-1.3851099014282227,8.962278366088867,-7.288773536682129,5.798975467681885
1,413201,-5.600973606109619,-12.093653678894043,-19.406551361083984,16.671878814697266
1,413202,-8.82633113861084,-25.2103271484375,1.9249560832977295,-11.123124122619629
1,413202,-22.714271545410156,11.294377326965332,21.339052200317383,-1.1385104656219482
1,413202,17.17821502685547,16.857194900512695,17.98250389099121,-2.4866559505462646
1,413202,33.60927963256836,-0.9902529716491699,-14.4149169921875,9.039643287658691
1,413202,-8.673223495483398,-1.191692590713501,2.20412015914917,19.60798454284668
1,413202,-22.139301300048828,4.341031074523926,9.295878410339355,-14.048121452331543
1,413203,5.361937046051025,3.1922919750213623,-11.24666690826416,2.037170886993408
1,413203,5.414098739624023,-6.33973503112793,6.590662002563477,7.114599227905273
1,413203,2.1913962364196777,6.083852291107178,-20.56159210205078,-21.061168670654297
1,413203,-2.1713430881500244,3.419354200363159,-22.628543853759766,7.5013017654418945
1,413203,-11.9036226272583,11.117684364318848,36.11285400390625,14.610284805297852
1,413203,16.151195526123047,-2.3499033451080322,-4.5610575675964355,-22.905986785888672
1,413204,8.2172212600708,-35.945350646972656,-37.34120178222656,5.117125988006592
1,413204,-18.11250877380371,10.753976821899414,20.091848373413086,14.623764038085938
1,413204,3.4318037033081055,24.001689910888672,23.278568267822266,-29.150110244750977
1,413204,17.67862892150879,-13.885787010192871,-8.05271053314209,6.322656154632568
1,413204,-19.118846893310547,-16.31743812561035,1.1745195388793945,25.11331558227539
1,413205,-19.591663360595703,9.484010696411133,7.445905685424805,-12.327659606933594
1,413205,7.649454593658447,-5.041535377502441,-1.372159481048584,8.009745597839355
1,413205,-7.211908340454102,-4.7140092849731445,7.77148962020874,18.21063232421875
1,413205,37.97871398925781,22.911638259887695,-3.2419307231903076,-26.46600341796875
1,413205,18.27018165588379,-11.867210388183594,-12.984064102172852,-20.964170455932617
1,413205,-48.11870193481445,5.012058734893799,-2.023669719696045,16.82418441772461
1,413205,8.271235466003418,11.22969913482666,13.014840126037598,-6.191091537475586
1,413206,17.36635398864746,-14.43651294708252,-2.583693027496338,-14.908329010009766
1,413207,-20.460460662841797,-0.7238993048667908,-21.073869705200195,-9.93092155456543
1,413207,-9.616689682006836,-6.7131171226501465,0.6813180446624756,-12.141680717468262
1,413207,-11.421796798706055,1.9410641193389893,0.6639343500137329,18.047542572021484
1,413207,2.034344434738159,14.98220443725586,16.93736457824707,-7.177231311798096
1,413208,28.319782257080078,-15.686824798583984,-4.920673847198486,-23.46629524230957
1,413209,15.632437705993652,7.527000904083252,-24.060741424560547,41.9561767578125
1,413210,-11.232660293579102,50.33985137939453,37.24366760253906,46.6968879699707
1,413213,-6.129640579223633,-16.394479751586914,1.681012749671936,-76.03228759765625
1,413214,6.965148448944092,-30.690044403076172,-27.03421401977539,-69.2210922241211
1,413217,-17.980506896972656,24.8431339263916,15.41826057434082,66.1101303100586
1,413218,1.2265925407409668,2.6736063957214355,-21.175559997558594,35.81364822387695
1,413221,14.86872386932373,-10.342619895935059,-2.2421669960021973,-14.031865119934082
1,413222,-11.591708183288574,2.6216132640838623,37.529518127441406,4.302493095397949
1,413225,-2.362515687942505,-2.8425135612487793,-3.1185567378997803,24.999828338623047
1,413226,-6.413354396820068,-19.114009857177734,-38.648555755615234,-9.288996696472168
1,413229,-4.320534706115723,-27.926286697387695,-47.66769790649414,-55.06916427612305
1,413230,27.13404083251953,26.97752571105957,46.857994079589844,26.776357650756836
1,413233,11.025228500366211,11.569326400756836,53.11449432373047,47.33112716674805
1,413234,-32.37425994873047,-27.64667320251465,-44.71015930175781,-24.75386619567871
1,413237,-8.891621589660645,15.19606876373291,-2.092045545578003,-18.362363815307617
1,413238,23.015480041503906,23.359891891479492,37.27408981323242,17.134885787963867
1,413241,6.353590488433838,-19.325538635253906,-3.9120092391967773,27.813514709472656
1,413242,8.346694946289062,-6.569091796875,-10.821020126342773,32.914146423339844
1,413245,-3.0025546550750732,9.902972221374512,3.3558738231658936,-18.594440460205078
1,413247,-16.754192352294922,-3.1265146732330322,8.850926399230957,-41.15185546875
1,413364,-3.38214111328125,20.653047561645508,1.7362350225448608,-10.7935791015625
1,413364,-20.736692428588867,-30.40176010131836,-20.391216278076172,1.5971415042877197
1,413364,5.663879871368408,-14.988946914672852,8.95251178741455,7.02719783782959
1,413364,29.566020965576172,28.831016540527344,2.524625539779663,-6.810941219329834
1,413365,-4.75473165512085,-14.43842601776123,-15.743682861328125,12.093165397644043
1,413365,-13.105212211608887,-0.7698642015457153,1.6015739440917969,12.043128967285156
1,413365,5.819296360015869,26.52433204650879,-6.465335369110107,-29.60076141357422
1,413365,13.924408912658691,5.5450568199157715,8.260106086730957,-22.52134132385254
1,413365,-4.963993072509766,-18.98396873474121,-9.111263275146484,15.812261581420898
1,413365,-4.208205223083496,12.718343734741211,1.0675475597381592,18.105241775512695
1,413366,11.144865036010742,-12.2420654296875,7.655546188354492,-8.589371681213379
1,413366,-2.8890063762664795,-22.256893157958984,-21.36510467529297,-7.312695503234863
1,413366,-13.607925415039062,23.095565795898438,27.539796829223633,17.004117965698242
1,413366,-2.252612590789795,-5.185968399047852,24.629310607910156,9.735791206359863
1,413366,4.461876392364502,5.674352645874023,-20.891965866088867,5.361364841461182
1,413366,1.9346083402633667,9.625285148620605,-8.033713340759277,1.074375033378601
1,413367,11.829110145568848,-12.927703857421875,-13.161239624023438,-24.347013473510742
1,413367,-6.159294128417969,2.382286310195923,-9.768776893615723,-7.336309909820557
1,413367,-16.771564483642578,-16.337400436401367,30.48128318786621,4.904042720794678
1,413367,2.9860682487487793,-3.767380952835083,6.388865947723389,-0.8718400597572327
1,413367,-0.053620170801877975,40.17981719970703,-18.96109390258789,4.6593451499938965
1,413368,14.543497085571289,-1.9029510021209717,8.749908447265625,3.874601125717163
1,413368,1.6571323871612549,-23.12327766418457,9.161060333251953,3.541010856628418
1,413368,-6.127342224121094,10.659077644348145,-4.356526851654053,-1.5547585487365723
1,413368,7.9818620681762695,-8.511401176452637,-9.56842041015625,-2.68764591217041
1,413368,-12.585436820983887,1.4964607954025269,6.1413140296936035,1.1192591190338135
1,413368,-3.4010062217712402,-3.7400238513946533,-4.8391547203063965,-2.5803897380828857
1,413369,18.15273094177246,-24.356815338134766,-25.015146255493164,0.13060761988162994
1,413369,-4.102133750915527,19.76348304748535,12.901494979858398,13.85116195678711
1,413369,-20.858007431030273,27.173934936523438,26.903162002563477,-2.509878396987915
1,413369,3.8751423358917236,-13.142757415771484,-18.23407554626465,-26.580394744873047
1,413369,10.226021766662598,-15.01555061340332,-14.961691856384277,12.355549812316895
1,413369,-6.022692680358887,4.919875144958496,12.748004913330078,19.534038543701172
1,413370,1.9352439641952515,-2.11655330657959,1.0202491283416748,-17.77825355529785
1,413370,6.959010601043701,28.797229766845703,9.532947540283203,-3.626659631729126
1,413370,-4.715558052062988,1.141271710395813,-6.24795389175415,0.4755409061908722
1,413370,-4.50286340713501,-35.682621002197266,-16.64531135559082,2.9042046070098877
1,413370,-10.661486625671387,20.405853271484375,22.269216537475586,3.093480348587036
1,413370,16.27127456665039,9.2559814453125,14.602157592773438,-13.926493644714355
1,413371,21.113086700439453,-26.091777801513672,-18.567895889282227,7.308668613433838
1,413371,-32.421112060546875,-6.921802043914795,-6.875053882598877,25.469453811645508
1,413371,-5.759891033172607,14.122149467468262,13.88380241394043,5.12147331237793
1,413371,25.817283630371094,-12.564417839050293,-11.942652702331543,-15.189043998718262
1,413371,-12.514445304870605,-12.690033912658691,-23.171491622924805,-1.6946115493774414
1,413371,-19.463735580444336,9.187715530395508,26.634136199951172,3.058798313140869
1,413372,11.879944801330566,7.890204906463623,18.363483428955078,-24.445247650146484
1,413372,22.238903045654297,13.0140962600708,-23.975486755371094,-1.1054424047470093
1,413372,3.384059190750122,3.6775639057159424,-6.405174732208252,33.26841735839844
1,413372,-2.5141139030456543,-5.753394603729248,0.23530922830104828,-14.111871719360352
1,413372,-0.9709590077400208,-16.151517868041992,-6.514858245849609,-29.232105255126953
1,413372,-13.484047889709473,-1.3474907875061035,-7.380517482757568,22.85451316833496
1,413373,-1.8529107570648193,13.921626091003418,1.3970249891281128,9.818880081176758
1,413373,12.846938133239746,1.24833083152771,16.28620147705078,9.127147674560547
1,413373,-1.5484691858291626,12.342272758483887,-1.2250826358795166,24.617136001586914
1,413373,-10.91341781616211,0.6047693490982056,-16.6279354095459,-34.014068603515625
