Aktueller Finger,timestamp_ms,sensor_0,sensor_1,sensor_2,sensor_3
0,211658,14.324156761169434,21.45163345336914,7.546895503997803,-30.94328498840332
0,211661,17.233863830566406,3.5098378658294678,2.505693197250366,-39.1798095703125
0,211662,-5.3220977783203125,7.806497573852539,-13.40245532989502,30.695085525512695
0,211665,-20.750879287719727,-5.294466495513916,6.133429527282715,31.36812973022461
0,211666,1.5214780569076538,-18.454544067382812,23.321704864501953,-17.35602378845215
0,211669,2.430924654006958,11.137432098388672,-0.6276519894599915,-4.024157524108887
0,211670,-23.460084915161133,1.1938912868499756,-14.930593490600586,-4.155481815338135
0,211673,20.319665908813477,-2.093740940093994,-12.693253517150879,-32.57606887817383
0,211674,25.484567642211914,20.658010482788086,4.562978744506836,25.703716278076172
0,211677,-17.57193374633789,-11.422904968261719,1.4655131101608276,12.298346519470215
0,211678,5.646216869354248,-28.009014129638672,-5.234814167022705,-27.12384605407715
0,211684,-13.007837295532227,11.482539176940918,26.20277214050293,18.530458450317383
0,211684,-8.294373512268066,16.468505859375,-16.79859161376953,7.910370349884033
0,211685,13.1839599609375,1.9535642862319946,-41.07074737548828,-5.474809646606445
0,211687,-14.206581115722656,-5.27096700668335,13.03378677368164,-4.692395210266113
0,211689,2.8954570293426514,-10.835506439208984,28.721879959106445,-6.728397369384766
0,211691,26.42070198059082,1.9011054039001465,22.802576065063477,29.110645294189453
0,211693,2.1542813777923584,1.7377194166183472,13.193474769592285,4.104794502258301
0,211695,-21.823503494262695,12.8343505859375,-24.12327003479004,-30.509166717529297
0,211697,4.160705089569092,11.400548934936523,-25.77699089050293,10.758626937866211
0,211699,16.49251365661621,4.850020885467529,24.968034744262695,24.372699737548828
0,211701,-20.58437728881836,-20.417112350463867,5.33988094329834,-36.16940689086914
0,211703,-20.799142837524414,-30.160964965820312,-32.90560531616211,-26.81294059753418
0,211705,27.715728759765625,25.324115753173828,-7.491020202636719,31.44913673400879
0,211707,17.0509033203125,-2.303577423095703,16.72664451599121,-4.066172122955322
0,211709,-18.380985260009766,-22.993261337280273,15.615163803100586,8.217578887939453
0,211711,-22.566234588623047,21.113323211669922,-8.803890228271484,73.5103759765625
0,211713,7.586693286895752,24.61612319946289,-7.106318473815918,-20.61248016357422
0,211715,31.533742904663086,-8.55788803100586,-0.12791398167610168,-81.16352081298828
0,211717,1.8474435806274414,-9.615768432617188,-1.8377615213394165,23.008453369140625
0,211719,-19.757192611694336,0.661703884601593,15.713831901550293,6.013784885406494
0,211721,5.875483512878418,7.074288368225098,-1.4315087795257568,-22.4875431060791
0,211723,25.229467391967773,3.240828275680542,-19.293766021728516,19.571229934692383
0,211725,-11.248030662536621,-11.973073959350586,8.587509155273438,-4.5388898849487305
0,211727,-33.65042495727539,8.541796684265137,14.957132339477539,6.537683486938477
0,211729,4.364985942840576,-14.29669189453125,-13.741724014282227,19.68189239501953
0,211731,12.44267749786377,-17.494693756103516,-4.50335168838501,-19.59744644165039
0,211733,-9.190956115722656,21.991830825805664,24.01885986328125,-33.22539520263672
0,211735,-7.556863784790039,0.8166249394416809,-1.5246318578720093,3.683140754699707
0,211737,6.740128993988037,-9.909690856933594,-14.085885047912598,40.112754821777344
0,211739,22.00115966796875,3.126946210861206,-2.0651557445526123,37.75652313232422
0,211741,-13.386857032775879,7.7202229499816895,-12.17521858215332,-26.77679443359375
0,211743,-9.013936996459961,8.908294677734375,24.129711151123047,-30.917396545410156
0,211745,13.46720027923584,-9.907957077026367,6.829375267028809,9.238508224487305
0,211747,-17.573354721069336,-5.433310508728027,-13.412540435791016,-2.648515462875366
0,211749,1.3692047595977783,-0.01496586762368679,-1.5593022108078003,14.456713676452637
0,211751,17.49960708618164,5.907086372375488,-34.13574981689453,-20.05267333984375
0,211753,-9.4780912399292,17.937788009643555,20.14420509338379,-17.286399841308594
0,211755,4.414768695831299,-9.004278182983398,27.841495513916016,34.876136779785156
0,211757,15.322265625,-20.422273635864258,-15.06379222869873,-15.345423698425293
0,211759,-12.340875625610352,-2.9413368701934814,-1.8976995944976807,0.6364926099777222
0,211761,-7.608420372009277,24.96691131591797,0.06907454878091812,37.50199890136719
0,211763,11.62464714050293,12.80691146850586,8.464784622192383,-16.58064079284668
0,211765,-18.02174186706543,-29.879581451416016,-19.65874671936035,-29.99518585205078
0,211767,-5.091092586517334,-0.8893061280250549,-9.452717781066895,17.365598678588867
0,211769,43.97476577758789,8.603074073791504,28.248159408569336,8.679788589477539
0,211771,-9.378288269042969,-12.375018119812012,-3.454526424407959,-19.93113899230957
0,211773,-24.36876106262207,11.835332870483398,5.003232002258301,15.420008659362793
0,211775,9.202718734741211,6.5749616622924805,16.56797981262207,-1.189132809638977
0,211777,-23.33789825439453,-14.49137020111084,-32.63548278808594,-22.762746810913086
0,211779,-19.40238380432129,-4.936647891998291,-13.097919464111328,9.780847549438477
0,211781,11.908087730407715,9.739060401916504,33.21627426147461,12.59083366394043
0,211783,16.637109756469727,5.060194969177246,-2.311046838760376,2.5950608253479004
0,211785,7.23008394241333,-15.848775863647461,-22.68958854675293,7.507664203643799
0,211787,11.953904151916504,12.626017570495605,12.234270095825195,7.444478511810303
0,211789,5.191860198974609,11.191770553588867,11.310892105102539,-12.541470527648926
0,211791,-19.995412826538086,-26.33523941040039,-16.922697067260742,-26.37380027770996
0,211793,7.363942623138428,28.721633911132812,10.171109199523926,-15.62291431427002
0,211795,-4.135396480560303,11.771819114685059,-13.043351173400879,2.5592613220214844
0,211797,-12.776253700256348,-38.17245864868164,-24.69368553161621,21.002197265625
0,211799,35.857730865478516,3.1198294162750244,49.47649383544922,30.720643997192383
0,211801,5.8759446144104,21.028108596801758,9.355524063110352,7.018130779266357
0,211803,-35.10205078125,5.252342700958252,-37.693233489990234,-26.137453079223633
0,211805,-16.127187728881836,-22.266857147216797,7.4737420082092285,-20.77676010131836
0,211807,16.978620529174805,-8.122453689575195,24.289443969726562,9.086118698120117
0,211809,25.131479263305664,11.248739242553711,-11.987557411193848,16.607458114624023
0,211811,-1.3349088430404663,5.04252815246582,-36.6855583190918,12.368415832519531
0,211813,-18.13581085205078,9.776253700256348,21.534313201904297,13.572425842285156
0,211815,-6.939311981201172,-8.180063247680664,29.65711784362793,-4.368596076965332
0,211817,5.702915191650391,-24.42540168762207,-15.001459121704102,-27.04476547241211
0,211819,-0.9398341178894043,4.595021724700928,3.4458789825439453,-24.16670036315918
0,211821,0.4962960183620453,18.783695220947266,-11.251626968383789,-14.036307334899902
0,211823,17.687955856323242,6.407429218292236,-20.773662567138672,15.460929870605469
0,211825,-4.47135591506958,4.809370994567871,22.756187438964844,21.752105712890625
0,211827,-16.15329933166504,-5.357678413391113,19.70783042907715,5.020890235900879
0,211829,-4.388577461242676,-16.60595703125,-23.72203826904297,21.619321823120117
0,211831,7.169338703155518,9.15616226196289,-7.122342109680176,3.354112148284912
0,211833,13.578913688659668,13.846322059631348,18.128889083862305,-27.21990203857422
0,211835,-18.202239990234375,-17.898399353027344,-5.881282806396484,-10.323741912841797
0,211837,9.296446800231934,-3.3308143615722656,-8.720718383789062,-8.286718368530273
0,211839,29.150890350341797,20.010726928710938,11.819770812988281,11.914783477783203
0,211841,-29.74174690246582,-3.9631805419921875,-1.794895887374878,5.699443817138672
0,211843,-22.74899673461914,-27.871135711669922,-17.647092819213867,-44.89310836791992
0,211845,23.251680374145508,14.14284610748291,12.556405067443848,28.008892059326172
0,211847,-2.7334766387939453,9.728031158447266,11.063125610351562,44.06028366088867
0,211849,1.7901183366775513,-16.110776901245117,-14.219879150390625,-20.421955108642578
0,211851,33.48760223388672,17.08620834350586,-6.302086353302002,-20.8602352142334
0,211853,-33.75462341308594,-11.71052360534668,25.086040496826172,-6.784287452697754
0,211855,-36.74070358276367,-14.117385864257812,9.465473175048828,22.11478614807129
0,211857,38.69797897338867,20.161170959472656,-25.613035202026367,17.648374557495117
0,211859,5.639297008514404,-5.784765243530273,-7.367244243621826,-1.8492200374603271
0,211861,-11.613911628723145,17.554025650024414,11.360112190246582,-15.85627269744873
0,211863,0.36315783858299255,-10.549878120422363,-10.061914443969727,-19.50136947631836
0,211865,-21.117149353027344,-30.713146209716797,-10.150303840637207,8.1256103515625
0,211867,10.55390739440918,27.820253372192383,29.783061981201172,11.936163902282715
0,211869,17.930551528930664,-6.580450057983398,1.0872347354888916,-11.421629905700684
0,211871,-0.34291449189186096,6.28481388092041,-25.280107498168945,-6.9888997077941895
0,211873,17.623149871826172,37.06854248046875,18.002593994140625,10.578792572021484
0,211875,-20.53115463256836,-38.28384017944336,-1.3441016674041748,12.873505592346191
0,211877,-14.813691139221191,-21.58514404296875,-21.123332977294922,-0.042646028101444244
0,211879,46.73244094848633,41.040401458740234,29.543514251708984,12.817387580871582
0,211881,-11.23861026763916,4.210256099700928,-12.069290161132812,1.1280769109725952
0,211883,-40.4031982421875,-12.32421588897705,-21.64113998413086,-19.95880126953125
0,211885,13.272099494934082,-20.579984664916992,31.6750545501709,-8.658608436584473
0,211887,32.626426696777344,2.7694387435913086,0.6912041306495667,-17.888648986816406
0,211889,-15.069235801696777,46.85633087158203,-2.848219871520996,33.068260192871094
0,211891,-25.635026931762695,-7.756557941436768,-0.09013159573078156,29.783544540405273
0,211892,10.489668846130371,-43.60783004760742,-12.166496276855469,-41.16178512573242
0,211895,-11.085957527160645,-20.660507202148438,-12.195767402648926,1.4526817798614502
0,211896,0.7192689180374146,-7.121487617492676,-9.506540298461914,-13.558656692504883
0,211899,37.49396514892578,47.69110107421875,21.073747634887695,-35.874168395996094
0,211900,0.7764501571655273,37.8028564453125,22.360740661621094,41.40377426147461
0,211903,-40.31517028808594,-61.855491638183594,-6.146304607391357,36.278263092041016
0,211904,-6.784977436065674,-25.159988403320312,13.103815078735352,-3.558729887008667
0,211907,25.147621154785156,41.77476119995117,-12.743735313415527,-36.28847122192383
0,211908,3.494666576385498,2.4905049800872803,-22.394819259643555,-30.93526268005371
0,211911,-5.836647033691406,-3.748356580734253,4.631266117095947,10.565691947937012
0,211912,12.277441024780273,17.287982940673828,-12.571213722229004,22.078975677490234
0,211915,-14.231096267700195,-5.726240158081055,19.009815216064453,28.039052963256836
0,211916,-12.309072494506836,-21.2336368560791,18.086172103881836,2.541351318359375
0,211919,32.10944747924805,15.650838851928711,4.865874767303467,0.3315964639186859
0,212174,-14.084066390991211,60.5356330871582,-29.625926971435547,0.9962370991706848
0,212177,-23.91744613647461,-29.08613395690918,-30.7031192779541,-17.53148078918457
0,212178,37.17308807373047,-87.06214141845703,36.295501708984375,2.6707098484039307
0,212181,-15.011161804199219,46.80867004394531,21.49789810180664,-29.378673553466797
0,212182,-30.035476684570312,43.03479766845703,10.923480033874512,-23.594261169433594
0,212188,24.789325714111328,-58.55790710449219,-21.825706481933594,64.31072235107422
0,212188,-1.6839609146118164,-16.170516967773438,22.076114654541016,28.95279312133789
0,212189,-2.9869489669799805,26.972745895385742,10.956847190856934,-42.95527267456055
0,212191,-1.7752275466918945,5.880975723266602,-93.17216491699219,3.214369058609009
0,212192,4.930366039276123,3.0197856426239014,9.125231742858887,21.72344398498535
0,212195,2.318559408187866,-17.58544921875,22.91057586669922,-35.550376892089844
0,212196,-26.529537200927734,-27.345558166503906,-1.7632110118865967,-17.02219009399414
0,212199,39.68031311035156,30.85166358947754,41.66248321533203,19.805017471313477
0,212200,50.246376037597656,41.02463150024414,-2.7011983394622803,-2.6839590072631836
0,212203,-33.72728729248047,-11.569825172424316,-23.8627872467041,0.8693104386329651
0,212204,-30.104421615600586,-10.176950454711914,-4.284605979919434,6.706724166870117
0,212207,3.9405622482299805,16.020305633544922,-0.7576784491539001,-11.665164947509766
0,212208,-5.2112860679626465,4.832898139953613,-6.502174377441406,1.3881473541259766
0,212211,-5.6072893142700195,-10.021685600280762,6.714252471923828,-6.463086128234863
0,212212,2.312931776046753,-23.71504020690918,12.239282608032227,-13.457487106323242
0,212215,11.672588348388672,-15.139531135559082,1.8641599416732788,47.9775276184082
0,212216,-3.7330687046051025,36.80078887939453,-4.36916446685791,17.273542404174805
0,212219,17.169321060180664,29.389772415161133,12.088492393493652,-57.02853012084961
0,212220,18.286020278930664,-37.032405853271484,15.579357147216797,14.669167518615723
0,212223,-27.944019317626953,-31.546628952026367,-27.358158111572266,36.625877380371094
0,212224,-9.73208999633789,17.421112060546875,-33.45411682128906,-19.763355255126953
0,212227,-16.2995548248291,8.086420059204102,21.749486923217773,-18.807119369506836
0,212228,-8.504899024963379,-8.985963821411133,31.73514175415039,-15.529491424560547
0,212231,21.483497619628906,-3.8048393726348877,-14.461797714233398,4.9558281898498535
0,212232,-17.593402862548828,-10.179454803466797,-20.14470863342285,11.591976165771484
0,212235,-22.333900451660156,5.35231351852417,-3.2066824436187744,21.114355087280273
0,212236,39.64069747924805,23.54985809326172,2.9144341945648193,-21.201080322265625
0,212239,30.682600021362305,15.354172706604004,33.892189025878906,-30.206340789794922
0,212240,-30.705047607421875,-8.501337051391602,7.0882673263549805,50.170867919921875
0,212243,-1.921600103378296,-20.14046287536621,-25.21796417236328,18.651742935180664
0,212244,27.077838897705078,2.7243125438690186,5.751813888549805,-27.55243682861328
0,212247,-2.5612573623657227,2.9675352573394775,7.924989223480225,-19.983890533447266
0,212248,-3.7525112628936768,2.3331997394561768,-8.305020332336426,2.535383939743042
0,212251,-17.701719284057617,10.8587007522583,-16.589887619018555,21.37131118774414
0,212252,-9.836121559143066,-0.6372002959251404,3.7825117111206055,2.3477134704589844
0,212255,22.374948501586914,-15.544039726257324,10.90705394744873,-0.13261614739894867
0,212256,-14.513263702392578,-20.143041610717773,-21.27660369873047,17.364900588989258
0,212259,6.025202751159668,23.205751419067383,17.681894302368164,-9.198885917663574
0,212260,38.899070739746094,29.097530364990234,31.229354858398438,-24.50208282470703
0,212263,-38.72160339355469,-30.15416145324707,-39.02922439575195,-1.8707598447799683
0,212264,-35.31308364868164,-11.331891059875488,-10.316089630126953,7.525958061218262
0,212267,36.41435623168945,30.23050880432129,25.106651306152344,-17.784791946411133
0,212268,10.35007381439209,-15.526311874389648,-10.849574089050293,-3.049150228500366
0,212271,-27.30671501159668,-2.9081718921661377,-4.321271896362305,39.50181198120117
0,212272,-8.375761032104492,18.747854232788086,21.667137145996094,0.7174410820007324
0,212275,9.822610855102539,-16.426429748535156,11.421551704406738,-14.354677200317383
0,212276,22.67778205871582,-3.3915207386016846,-34.81591033935547,6.897397518157959
0,212279,11.66584587097168,1.4140422344207764,-10.904521942138672,-11.732829093933105
0,212280,-15.334060668945312,1.0272563695907593,18.994064331054688,-24.48663902282715
0,212283,-5.855702877044678,6.702491283416748,-0.5291653275489807,12.880585670471191
0,212284,20.858829498291016,-10.655089378356934,1.2563556432724,24.787208557128906
0,212287,-3.5864648818969727,-6.468349933624268,40.14900588989258,-4.007978439331055
0,212288,-42.41936111450195,10.398468017578125,-0.23755580186843872,-11.569231986999512
0,212291,13.97232437133789,-2.3159005641937256,-85.2857666015625,6.39558744430542
0,212292,42.23041915893555,-4.3496904373168945,1.6325349807739258,-0.6390820145606995
0,212295,-21.629610061645508,9.180638313293457,57.20513916015625,-11.94395923614502
0,212296,-18.27163314819336,5.588853359222412,-8.656996726989746,16.48412322998047
0,212299,-10.649500846862793,10.652141571044922,-15.48115348815918,-21.46965980529785
0,212300,-0.5973839163780212,-2.0896689891815186,17.90700912475586,-16.398752212524414
0,212303,39.13303756713867,-19.574399948120117,-9.792742729187012,31.889190673828125
0,212304,-5.29613733291626,-2.1424314975738525,-22.21712303161621,-15.058600425720215
0,212307,-24.302165985107422,9.593871116638184,11.633256912231445,-2.1583096981048584
0,212308,16.554689407348633,-3.669045925140381,22.745943069458008,33.436920166015625
0,212311,7.030698299407959,-13.88945198059082,9.701312065124512,-20.970565795898438
0,212312,-6.734891414642334,1.1734377145767212,-21.52143096923828,-16.775449752807617
0,212315,-12.240179061889648,1.3865554332733154,-4.918972492218018,22.75547981262207
0,212316,-2.8944334983825684,-7.4487624168396,5.430368900299072,13.652336120605469
0,212319,38.53977966308594,8.176584243774414,-6.746355056762695,15.204968452453613
0,212320,-17.359024047851562,10.769224166870117,23.78004264831543,-9.737117767333984
0,212323,-38.98074722290039,-2.2916150093078613,5.066586017608643,-16.936798095703125
0,212324,16.988691329956055,11.929887771606445,-28.682472229003906,7.595261573791504
0,212327,4.437823295593262,17.56702423095703,-1.2416027784347534,36.58024978637695
0,212328,-8.424468040466309,-15.24411678314209,18.579124450683594,-5.8961920738220215
0,212331,19.010377883911133,-14.013969421386719,0.136752188205719,-88.63560485839844
0,212332,15.846599578857422,13.44657039642334,-0.411174476146698,-16.821313858032227
0,212335,-31.707717895507812,-3.8130125999450684,-7.155452728271484,34.2834358215332
0,212336,-2.519191026687622,-19.054410934448242,6.755460739135742,30.764318466186523
0,212339,31.37723731994629,13.535992622375488,12.341500282287598,22.135957717895508
0,212340,-6.646701812744141,-6.391963958740234,-39.7463493347168,-38.05139923095703
0,212343,-1.6103503704071045,-14.169662475585938,-0.9370583891868591,5.652996063232422
0,212344,13.738369941711426,31.87462615966797,37.55257034301758,33.64971923828125
0,212347,-30.421306610107422,-21.424142837524414,-6.303678035736084,-37.975914001464844
0,212348,-17.940879821777344,-16.886457443237305,-28.832773208618164,-2.1957340240478516
0,212351,33.82924270629883,33.36537170410156,11.87780475616455,46.22346115112305
0,212352,1.760977029800415,-11.00972843170166,18.356569290161133,-21.917509078979492
0,212355,-24.175098419189453,-9.101552963256836,-40.527591705322266,-38.9694709777832
0,212356,-5.593166828155518,21.5041446685791,-7.061107158660889,3.872779607772827
0,212359,16.420019149780273,9.814655303955078,59.30697250366211,32.84143829345703
0,212360,19.914539337158203,3.14754581451416,9.276873588562012,14.190155982971191
0,212363,-13.042619705200195,7.040224075317383,-41.50982666015625,-30.571971893310547
0,212364,-12.271183013916016,-38.19046401977539,3.140533447265625,-20.193103790283203
0,212367,9.920721054077148,-12.765619277954102,17.756591796875,18.54250144958496
0,212368,7.133735179901123,51.95563888549805,-1.4698504209518433,33.72793960571289
0,212371,-1.36366605758667,-16.504898071289062,3.714475631713867,-18.30999755859375
0,212372,-5.345737457275391,-41.32182312011719,-23.02092742919922,-20.974157333374023
0,212375,-2.8346025943756104,16.226594924926758,-15.742416381835938,38.29019546508789
0,212376,-1.7368550300598145,-1.4846487045288086,24.061880111694336,1.7933423519134521
0,212379,9.249979972839355,5.253910541534424,12.855695724487305,-19.71221160888672
0,212380,8.390612602233887,28.614686965942383,9.121525764465332,1.0679746866226196
0,212383,-6.839738845825195,-23.461994171142578,-24.206844329833984,-12.437148094177246
0,212384,0.4108508229255676,-16.550222396850586,-36.237850189208984,-8.557098388671875
0,212387,-1.7466193437576294,1.9185723066329956,13.628540992736816,0.3719708323478699
0,212388,-25.154369354248047,1.0886099338531494,20.915340423583984,7.197756290435791
0,212391,0.19319510459899902,26.576847076416016,23.95060920715332,0.47541433572769165
0,212392,30.291500091552734,11.29475212097168,10.666060447692871,10.469542503356934
0,212395,0.813676655292511,-5.070071220397949,-41.83382034301758,24.57128143310547
0,212396,-25.980327606201172,-17.31245994567871,-10.017509460449219,-16.653406143188477
0,212399,-1.7809343338012695,-12.128768920898438,47.82652282714844,-31.724233627319336
0,212400,24.263784408569336,0.6388048529624939,1.8321542739868164,11.284624099731445
0,212403,-12.110163688659668,-0.36320480704307556,-29.22405242919922,18.08823013305664
0,212404,-2.699488639831543,13.788703918457031,-14.439199447631836,-8.300065994262695
0,212407,19.156036376953125,3.898122549057007,-0.027574840933084488,-7.730013370513916
0,212408,-19.705018997192383,-15.506590843200684,25.213424682617188,18.795202255249023
0,212411,11.903899192810059,13.048943519592285,10.142745018005371,0.9282122254371643
0,212412,16.55272674560547,16.522335052490234,-19.349010467529297,-29.22025489807129
0,212415,-17.736589431762695,-29.542404174804688,-14.131585121154785,12.954784393310547
0,212416,0.8371423482894897,-0.6278536319732666,-7.251089572906494,10.371715545654297
0,212419,-20.911617279052734,12.887163162231445,26.911821365356445,-11.8379545211792
0,212420,-11.85975170135498,-14.7568941116333,15.443772315979004,12.002303123474121
0,212423,30.183626174926758,24.50745391845703,-28.997285842895508,-16.513769149780273
0,216102,-10.129755973815918,4.684566974639893,-8.822650909423828,-26.07251739501953
0,216105,-5.3603901863098145,-33.28325653076172,-3.0086686611175537,36.59293746948242
0,216106,31.063255310058594,24.73402214050293,16.486289978027344,30.121212005615234
0,216109,-8.390580177307129,10.599417686462402,33.82852554321289,-4.862124919891357
0,216110,-16.962135314941406,-14.892156600952148,-21.05765724182129,-20.48238754272461
0,216113,5.031083106994629,6.340721130371094,-24.478822708129883,-30.594907760620117
0,216114,1.4172108173370361,-23.155040740966797,15.412625312805176,15.968802452087402
0,216117,8.303339958190918,-0.9931979775428772,6.338588714599609,14.780261039733887
0,216118,7.325072765350342,26.403316497802734,20.144264221191406,-0.2228199988603592
0,216124,-35.095821380615234,-16.049535751342773,-28.350988388061523,-7.715543746948242
0,216124,2.3199474811553955,-16.424596786499023,-55.35670471191406,-24.134565353393555
0,216125,43.601715087890625,29.885120391845703,53.16053771972656,25.665761947631836
0,216127,-15.604621887207031,-7.453611373901367,19.898717880249023,8.326571464538574
0,216129,-7.72723913192749,-14.994624137878418,-25.005760192871094,-34.77848434448242
0,216131,11.023274421691895,8.317217826843262,20.916900634765625,22.351520538330078
0,216133,-20.616621017456055,-18.989850997924805,-21.161487579345703,30.51595115661621
0,216135,5.326117038726807,22.90782356262207,10.695030212402344,-27.528451919555664
0,216137,22.23630142211914,35.420894622802734,30.0095272064209,-14.133298873901367
0,216139,-22.299772262573242,-21.750232696533203,-37.48773956298828,28.77796173095703
0,216141,-11.983030319213867,-34.49961471557617,-10.716209411621094,11.565406799316406
0,216143,14.062458992004395,-3.500673770904541,14.886931419372559,-19.403560638427734
0,216145,-0.3243984878063202,16.431730270385742,4.097099781036377,-10.40056324005127
0,216147,-2.1603569984436035,13.933995246887207,7.440795421600342,4.993479251861572
0,216149,0.13649378716945648,2.5892980098724365,-2.6258134841918945,7.636131286621094
0,216151,8.176382064819336,-13.442538261413574,-1.8433746099472046,-1.2221862077713013
0,216153,-15.966386795043945,-4.33642578125,-10.430527687072754,-14.651290893554688
0,216155,1.746631145477295,21.384653091430664,3.184936285018921,-5.161903381347656
0,216157,32.89512252807617,-2.9632632732391357,0.21421243250370026,-2.979492664337158
0,216159,-35.59387969970703,-18.934362411499023,-7.395529747009277,53.38509750366211
0,216161,-14.816049575805664,10.254220008850098,29.10845947265625,28.848093032836914
0,216163,25.917165756225586,1.9194519519805908,-2.5985913276672363,-89.77372741699219
0,216165,-5.639769554138184,-8.478065490722656,-28.788455963134766,-8.824986457824707
0,216167,12.659492492675781,9.421951293945312,6.474963188171387,23.84968376159668
0,216169,-14.76064395904541,19.868131637573242,-0.0008868705481290817,-8.194880485534668
0,216171,-12.778613090515137,-2.3929715156555176,-3.7386415004730225,52.51418685913086
0,216173,28.872997283935547,-22.409893035888672,0.600230872631073,-11.624648094177246
0,216175,3.790013074874878,-13.015870094299316,-16.176708221435547,-38.35564041137695
0,216177,-7.265761375427246,10.419074058532715,32.80179214477539,16.028053283691406
0,216179,-4.479619979858398,19.70137596130371,12.391233444213867,-24.295183181762695
0,216181,9.098690032958984,-19.503944396972656,-35.910003662109375,-10.352775573730469
0,216183,-0.7272791862487793,-6.204113006591797,10.705812454223633,48.81641387939453
0,216185,-18.823352813720703,19.431453704833984,17.731637954711914,9.70138931274414
0,216187,4.444151401519775,-24.86796760559082,-10.109919548034668,-28.30872344970703
0,216189,8.767576217651367,-5.754429817199707,-10.921198844909668,-0.19608090817928314
0,216191,-0.22950588166713715,35.76885223388672,12.53467082977295,-7.820521831512451
0,216193,2.8449196815490723,-1.892774224281311,7.979454040527344,-21.29561424255371
0,216195,6.843430519104004,-10.692609786987305,-5.841002464294434,37.5774040222168
0,216197,3.4408392906188965,-1.0564682483673096,-0.7014262080192566,35.68743896484375
0,216199,-22.749004364013672,-27.260433197021484,-8.020934104919434,-36.95172882080078
0,216201,-24.67060661315918,14.297776222229004,-20.59427833557129,-9.3381986618042
0,216203,25.868404388427734,41.94441604614258,13.365264892578125,23.98357582092285
0,216205,24.385587692260742,-20.71961212158203,21.54445457458496,-13.936049461364746
0,216207,1.380815863609314,-12.536369323730469,-17.30364990234375,-16.090045928955078
0,216209,-10.657139778137207,3.513108491897583,4.404799461364746,18.04106903076172
0,216211,-35.61874008178711,-21.878591537475586,3.9847404956817627,6.208670616149902
0,216213,-4.2637224197387695,3.803945779800415,-16.462078094482422,-27.345605850219727
0,216215,35.83953857421875,24.910985946655273,19.034465789794922,-4.183305740356445
0,216217,25.791288375854492,14.98793888092041,13.76891803741455,21.35138702392578
0,216219,-25.144044876098633,-17.059999465942383,-34.69649124145508,11.787015914916992
0,216221,-15.33117961883545,-19.530405044555664,-22.428253173828125,-15.896285057067871
0,216223,16.601613998413086,13.075088500976562,45.04043960571289,-10.30584716796875
0,216225,-1.8352105617523193,33.81632995605469,29.576148986816406,6.481456279754639
0,216227,-6.436105728149414,-18.76885223388672,-42.59142303466797,3.883681058883667
0,216229,5.199522018432617,-38.05278778076172,4.508177280426025,11.734505653381348
0,216231,13.084173202514648,7.378463268280029,-0.33406391739845276,10.0316801071167
0,216233,-26.707656860351562,1.9667729139328003,-34.087684631347656,-19.330585479736328
0,216235,-18.79218864440918,15.019917488098145,38.24831008911133,-28.347911834716797
0,216237,32.252445220947266,33.29105758666992,15.659406661987305,4.385672569274902
0,216239,7.5308685302734375,-10.39202880859375,-21.684009552001953,16.261720657348633
0,216241,-15.849625587463379,-45.101261138916016,-0.9815735220909119,15.643668174743652
0,216243,-6.743116855621338,11.488123893737793,4.898658275604248,8.181468963623047
0,216245,0.343659371137619,26.60453987121582,15.890005111694336,-18.745981216430664
0,216247,12.499856948852539,-16.04880142211914,-17.955516815185547,-3.958883047103882
0,216249,14.434124946594238,-4.232983112335205,-29.389074325561523,10.02608871459961
0,216251,-10.148453712463379,5.687378406524658,21.36233139038086,-11.71866512298584
0,216253,-22.798254013061523,-9.263528823852539,13.399435043334961,-5.610848903656006
0,216255,12.720464706420898,-4.738319396972656,1.6760311126708984,16.47971534729004
0,216257,15.673051834106445,19.163166046142578,20.195018768310547,22.295032501220703
0,216259,-10.108147621154785,-1.7867449522018433,-12.707836151123047,-15.430570602416992
0,216261,-12.357735633850098,-7.317419052124023,-23.393871307373047,-18.093448638916016
0,216263,10.610044479370117,5.976380825042725,14.663505554199219,22.422443389892578
0,216265,21.398841857910156,-14.338761329650879,6.3624982833862305,-26.10824203491211
0,216267,-26.511375427246094,14.016056060791016,-5.0916314125061035,-18.595979690551758
0,216269,-10.559855461120605,16.287307739257812,0.17913103103637695,41.017391204833984
0,216271,29.227771759033203,-7.459099292755127,-20.06490707397461,1.4575691223144531
0,216273,-8.240788459777832,-28.712629318237305,-6.987042427062988,-17.475135803222656
0,216275,-3.0810983180999756,-1.570199728012085,24.141136169433594,-10.294841766357422
0,216277,11.150388717651367,37.81494140625,-4.784780502319336,6.419938564300537
0,216279,-28.433263778686523,-12.96209716796875,-12.56157112121582,22.265968322753906
0,216281,-2.9675698280334473,-3.507786750793457,14.909289360046387,-7.457586288452148
0,216283,31.127336502075195,1.0675599575042725,-8.166470527648926,-17.968976974487305
0,216285,-4.352156162261963,-9.62076187133789,19.70926856994629,20.642654418945312
0,216287,-12.31724739074707,1.9431170225143433,20.003631591796875,12.498138427734375
0,216289,-10.764986991882324,-10.370609283447266,-34.38401412963867,-20.950468063354492
0,216291,-9.065520286560059,11.133974075317383,-12.334339141845703,11.357197761535645
0,216293,31.528045654296875,12.479914665222168,11.290726661682129,-10.657755851745605
0,216295,22.291261672973633,1.5282988548278809,8.158933639526367,-21.17271614074707
0,216297,-25.141067504882812,-8.973615646362305,-6.409221172332764,18.408897399902344
0,216299,-20.2135009765625,-10.767152786254883,-10.43613052368164,3.0353779792785645
0,216301,13.381363868713379,9.281254768371582,15.909459114074707,-3.3384766578674316
0,216303,16.301929473876953,-11.944866180419922,1.79009211063385,-5.135851860046387
0,216305,-25.776548385620117,-29.455562591552734,-30.475812911987305,12.406734466552734
0,216307,-21.801536560058594,14.46176528930664,17.7957706451416,32.42457962036133
0,216309,45.937034606933594,41.50777816772461,47.25392532348633,-8.880167961120605
0,216311,14.105329513549805,11.298382759094238,-10.766461372375488,-43.641387939453125
0,216313,-44.48566818237305,-12.835898399353027,-49.2625617980957,-6.026060581207275
0,216315,13.201154708862305,-5.576236248016357,-16.998214721679688,22.17479133605957
0,216317,35.23271942138672,11.499848365783691,34.34977722167969,-1.366644024848938
0,216319,-27.16948890686035,-18.54763412475586,8.149413108825684,-26.15220832824707
0,216321,-29.602298736572266,-13.70499324798584,-18.700122833251953,-19.962800979614258
0,216323,21.529802322387695,28.063304901123047,16.820642471313477,30.354860305786133
0,216325,17.561729431152344,-14.651617050170898,-8.836677551269531,20.392423629760742
0,216327,-14.890531539916992,-7.757193565368652,-16.139202117919922,-19.710603713989258
0,216329,-5.7295989990234375,19.523771286010742,22.95402717590332,4.568655014038086
0,216331,15.449446678161621,-25.449405670166016,4.971352577209473,31.112409591674805
0,216333,-5.76969575881958,-11.5780668258667,1.9397611618041992,10.791627883911133
0,216335,3.6309657096862793,38.35795974731445,7.3932366371154785,-23.70295524597168
0,216337,0.14595668017864227,4.7884345054626465,-19.588428497314453,-20.95285415649414
0,216339,-38.26966857910156,-22.83147430419922,3.8674404621124268,32.04084777832031
0,216341,27.403898239135742,-3.4173061847686768,20.713655471801758,51.86491394042969
0,216343,51.37839889526367,-0.019938228651881218,-14.972886085510254,-47.40382385253906
0,216345,-31.87779998779297,9.281808853149414,-7.831869125366211,-67.4997329711914
0,216347,-28.4267520904541,8.432260513305664,-5.5933756828308105,16.76885223388672
0,216349,16.300443649291992,0.3030206263065338,11.890122413635254,18.544090270996094
0,216350,4.239400386810303,-25.15757942199707,13.955519676208496,-4.800205230712891
0,216353,-12.854586601257324,4.111045837402344,-30.925445556640625,-13.936869621276855
0,216354,-12.486145973205566,22.05975914001465,-8.206535339355469,29.396568298339844
0,216357,9.491599082946777,-32.19389724731445,16.271955490112305,34.849422454833984
0,216358,2.3283512592315674,-4.897604465484619,20.545032501220703,-20.63608741760254
0,216361,-7.970583438873291,30.9880313873291,-0.3785557746887207,-3.6026384830474854
0,216362,31.71426010131836,11.469465255737305,-28.001068115234375,-14.426530838012695
0,216365,0.5062909722328186,-10.252114295959473,-5.874983310699463,-21.597200393676758
0,216366,-22.964582443237305,9.872669219970703,18.734455108642578,23.902074813842773
0,216369,8.59838581085205,18.084455490112305,10.450241088867188,16.291635513305664
0,216370,-9.172131538391113,-24.424636840820312,-3.3125245571136475,-16.691064834594727
0,216373,2.504404306411743,-26.765439987182617,-11.103975296020508,2.161909580230713
0,216374,9.429366111755371,11.786456108093262,-23.29935646057129,-0.5847958922386169
0,216377,-15.250945091247559,18.715961456298828,9.124375343322754,-29.956214904785156
0,216378,3.730304479598999,-7.0270843505859375,20.532596588134766,5.733373641967773
0,216381,19.525409698486328,-7.720906734466553,3.131258964538574,29.092208862304688
0,216382,-9.354278564453125,-6.40061616897583,-3.57892107963562,6.329699516296387
0,216385,-8.956014633178711,-5.471191883087158,-13.642389297485352,-7.0475029945373535
0,216389,11.775638580322266,14.46360969543457,14.183282852172852,3.210869073867798
0,216389,-12.016905784606934,18.921314239501953,13.214475631713867,1.0340464115142822
0,216391,-18.2569580078125,-13.594799041748047,-15.03266429901123,-9.608470916748047
0,216393,27.193374633789062,-20.399150848388672,3.368659257888794,20.347578048706055
0,216395,29.23000717163086,24.95081901550293,29.274738311767578,9.921524047851562
0,216397,-26.211109161376953,-2.188302516937256,-20.368993759155273,-36.52201843261719
0,216399,-20.115436553955078,-38.534488677978516,-31.42123031616211,-22.497739791870117
0,216401,6.760889053344727,4.225035190582275,9.1915283203125,3.1777899265289307
0,216403,-5.011412620544434,13.599576950073242,-7.653204441070557,6.864227771759033
0,216405,7.7409987449646,24.904094696044922,-5.601949214935303,26.788759231567383
0,216407,8.653470993041992,16.437284469604492,6.81295108795166,35.0989990234375
0,216409,9.046242713928223,-42.060211181640625,18.69724464416504,-28.11621856689453
0,216411,13.462639808654785,-12.635276794433594,7.020531177520752,-50.603187561035156
0,216413,-34.691593170166016,26.947402954101562,-13.206677436828613,-4.74564266204834
0,216415,-28.285741806030273,10.935141563415527,7.680683612823486,39.602134704589844
0,216417,37.25924301147461,-9.035782814025879,3.585416793823242,27.430837631225586
0,216419,16.09621238708496,2.379084348678589,-0.35878074169158936,-9.055424690246582
0,216421,-21.97990608215332,10.717323303222656,6.8884148597717285,13.309769630432129
0,216423,4.075479030609131,-25.565410614013672,-13.097309112548828,-23.286357879638672
0,216425,-2.218372344970703,-5.825469017028809,-9.289372444152832,-61.171878814697266
0,216427,-1.008872151374817,18.018508911132812,9.519502639770508,14.119560241699219
0,216429,14.881717681884766,-10.04263973236084,9.153740882873535,56.20882034301758
0,216431,-13.802550315856934,2.133049488067627,-22.037866592407227,19.073850631713867
0,216433,-17.22113609313965,25.8109130859375,-25.087726593017578,-7.379318714141846
0,216435,11.536767959594727,-17.80712890625,26.529170989990234,-35.14021301269531
0,216437,21.40988540649414,-14.24669361114502,33.86811828613281,-13.080146789550781
0,216439,-9.936412811279297,14.565156936645508,-13.718024253845215,10.001811027526855
0,216441,-13.793477058410645,-20.890390396118164,-20.643817901611328,20.18865203857422
0,216443,18.464242935180664,-8.294561386108398,7.821598529815674,29.06892967224121
0,216445,-8.757274627685547,41.04922866821289,-12.585039138793945,-39.357566833496094
0,216447,-25.80716896057129,21.352922439575195,-6.05269718170166,-26.48773765563965
0,216449,28.250980377197266,-47.07664108276367,49.82826232910156,33.92179489135742
0,216451,21.5318603515625,-15.372365951538086,1.3549754619598389,4.110902309417725
0,216453,-31.939537048339844,18.939573287963867,-55.46395492553711,-42.416648864746094
0,216455,-14.662203788757324,-15.689728736877441,-0.6939667463302612,-10.950121879577637
0,216457,20.092662811279297,42.39004898071289,49.03947830200195,72.94452667236328
0,216459,17.093719482421875,34.98109436035156,4.684642314910889,20.338394165039062
0,216461,-15.151739120483398,-58.27244186401367,-59.28435516357422,-73.16801452636719
0,216463,-11.473442077636719,-4.017983436584473,10.117313385009766,-10.878325462341309
0,216465,9.16157054901123,13.7463960647583,36.458248138427734,31.39480209350586
0,216467,3.941068649291992,-30.76495361328125,-21.404830932617188,10.024249076843262
0,216469,-0.14511443674564362,16.037992477416992,2.5341317653656006,-4.831823825836182
0,216471,2.5266597270965576,12.289901733398438,6.493126392364502,-16.766490936279297
0,216473,3.0395684242248535,-8.177532196044922,-8.79284954071045,21.138591766357422
0,216475,7.8250627517700195,6.776871681213379,20.27116584777832,11.45976448059082
0,216477,1.5906977653503418,10.020973205566406,19.776710510253906,-39.677490234375
0,216479,-24.471744537353516,4.882967948913574,-35.85458755493164,-2.3474903106689453
0,216481,2.133117198944092,-8.27537727355957,-20.44672203063965,9.936294555664062
0,216483,9.139408111572266,-24.606735229492188,17.48955726623535,2.6992645263671875
0,216485,-4.748679161071777,-25.992584228515625,-7.92303466796875,44.29714584350586
0,216487,10.169158935546875,15.0477876663208,11.650599479675293,-2.063693046569824
0,216489,-6.7218170166015625,43.06949996948242,17.71053123474121,-41.11615753173828
0,216491,-17.987937927246094,-6.877204418182373,-26.824604034423828,7.9741106033325195
0,216493,19.252790451049805,-26.587800979614258,2.1629533767700195,15.097953796386719
0,216495,16.874160766601562,16.0319881439209,20.506349563598633,-25.18047523498535
0,216497,-21.26338768005371,9.013421058654785,-6.8941330909729,-3.1489429473876953
0,216499,-16.174463272094727,-15.72728443145752,-6.903055191040039,13.729240417480469
0,216501,3.1602418422698975,-6.28843355178833,2.7570061683654785,6.577470779418945
0,216503,25.19559669494629,-4.459743976593018,6.8514723777771,5.303882598876953
0,216505,4.996300220489502,21.91291618347168,-19.73406219482422,-32.06217956542969
0,216507,-16.4337100982666,51.1195068359375,-7.807024002075195,1.6208480596542358
0,216509,13.872296333312988,-31.716413497924805,32.86094284057617,44.79893112182617
0,216511,3.049657106399536,-56.90548324584961,20.82480239868164,2.2445626258850098
0,216513,-18.7232608795166,23.756380081176758,-37.02964782714844,-21.43863296508789
0,216515,3.6814277172088623,43.38874435424805,-16.368871688842773,-2.387768507003784
0,216517,-0.8451454639434814,-23.223068237304688,7.189542770385742,-33.27728271484375
0,216519,-20.14942741394043,-44.374019622802734,-29.71488380432129,-22.713838577270508
0,216521,10.842931747436523,24.698652267456055,27.883066177368164,58.797035217285156
0,216523,28.187488555908203,16.4554386138916,45.5694465637207,36.722145080566406
0,216525,-15.133366584777832,-12.968141555786133,-10.128010749816895,-18.737916946411133
0,216527,-9.99080753326416,16.266468048095703,-14.186362266540527,-18.051952362060547
0,216529,16.153955459594727,14.309093475341797,-2.4337069988250732,-6.114200592041016
0,216531,-23.25779914855957,-16.513891220092773,-15.747354507446289,7.913548946380615
0,216533,-3.313673973083496,-11.613473892211914,-7.875522613525391,-45.95861053466797
0,216535,32.07673263549805,14.984115600585938,17.192838668823242,-38.96248245239258
0,216537,-22.851646423339844,-7.969581127166748,17.001121520996094,27.006690979003906
0,216539,-3.710247039794922,-22.824602127075195,3.767599582672119,91.66138458251953
0,216541,32.30113983154297,2.926112651824951,-20.014448165893555,86.47569274902344
0,216543,-9.82917594909668,1.4623067378997803,-8.968862533569336,-87.94176483154297
0,216545,-18.83970832824707,28.44184112548828,4.86815071105957,-106.08208465576172
0,216547,2.5296742916107178,26.568578720092773,-5.409762859344482,0.8628429770469666
0,216549,13.207340240478516,-24.418567657470703,3.117239475250244,34.098663330078125
0,216551,-27.501245498657227,-21.607128143310547,10.044839859008789,23.530914306640625
0,216553,-9.843281745910645,-10.163867950439453,-15.221893310546875,21.846906661987305
0,216555,41.338871002197266,-0.2825120985507965,2.042062997817993,-3.0118215084075928
0,216557,-12.688146591186523,-18.857702255249023,11.716663360595703,-33.56342315673828
0,216559,-12.003448486328125,2.0305137634277344,-16.751100540161133,42.59505844116211
0,216561,33.679317474365234,72.79547119140625,22.825366973876953,-16.94240951538086
0,216563,-21.397497177124023,32.54041290283203,9.15878963470459,-73.81669616699219
0,216565,-29.42742919921875,-85.49092102050781,-18.19921875,80.78372192382812
0,216567,39.98247528076172,-64.75408935546875,14.204500198364258,5.747795581817627
0,216569,39.93281173706055,54.970123291015625,8.127538681030273,-14.42381477355957
0,216571,-43.48594284057617,37.00061798095703,-31.336381912231445,78.44036865234375
0,216573,-41.6057243347168,-23.87486457824707,-27.178476333618164,-62.454036712646484
0,216575,37.5750732421875,4.275847434997559,43.03956985473633,-30.605186462402344
0,216577,-5.34166955947876,25.635208129882812,27.42875099182129,18.97842788696289
0,216579,-24.869943618774414,-9.033720016479492,-47.02716827392578,-7.908028602600098
0,216581,25.970802307128906,24.14186668395996,-11.395666122436523,-44.828392028808594
0,216583,9.463141441345215,29.649688720703125,23.388303756713867,-93.818359375
0,216584,-20.873308181762695,-59.94968032836914,5.823922634124756,78.6447525024414
0,216587,29.873830795288086,-41.44867706298828,15.661309242248535,161.0281524658203
0,216588,20.53485107421875,25.63770866394043,-6.031927108764648,5.310351848602295
0,216591,-62.211055755615234,-7.127120018005371,-22.645606994628906,-113.08245086669922
0,216592,3.985696315765381,-23.271387100219727,-15.646968841552734,-29.32520866394043
0,216595,49.857582092285156,51.130401611328125,13.832098960876465,49.51026916503906
0,216596,-26.46858787536621,11.72207260131836,19.413911819458008,7.774990558624268
0,216599,-8.780875205993652,-25.791473388671875,-6.0289764404296875,-21.823604583740234
0,216600,22.795379638671875,17.353355407714844,3.472074031829834,-53.850425720214844
0,216603,-26.580163955688477,-29.159378051757812,-4.299638748168945,58.847145080566406
0,216604,55.25509262084961,-17.28331756591797,22.998281478881836,134.1531524658203
0,216607,16.564001083374023,38.97145462036133,0.6799851059913635,-78.64600372314453
0,216608,-119.2287368774414,17.743999481201172,-53.332218170166016,-161.5462646484375
0,216611,4.331700801849365,-23.86295509338379,2.335857391357422,26.73865509033203
0,216612,38.67041778564453,-19.111419677734375,13.456798553466797,78.44705200195312
0,216615,25.49785041809082,26.957048416137695,32.40740203857422,12.87196159362793
0,216616,30.944917678833008,16.82070541381836,40.08910369873047,-6.705286026000977
0,216619,-53.52763366699219,-29.066246032714844,-54.05019760131836,-21.49462890625
0,216620,-5.609644412994385,3.027276039123535,-19.81854820251465,-0.3081248104572296
0,216623,6.343196868896484,3.231379270553589,3.077906608581543,36.572181701660156
0,216624,6.174269199371338,-30.51460838317871,-23.25481414794922,32.87281799316406
0,216627,39.61427307128906,13.814654350280762,37.54412841796875,-2.9591848850250244
0,216628,-45.99151611328125,35.71380615234375,15.126422882080078,-40.149288177490234
0,216631,-33.54422378540039,9.889636039733887,-20.674131393432617,-84.89437866210938
0,216632,42.75275421142578,2.6900269985198975,17.349214553833008,-34.53041076660156
0,216635,23.82375717163086,-31.650793075561523,-30.256301879882812,25.521053314208984
0,216636,-13.34533405303955,-64.0237808227539,-42.7229118347168,46.85839080810547
0,216639,-6.770190715789795,29.158231735229492,50.56558609008789,88.1014175415039
0,216640,-4.270408630371094,59.38907241821289,25.241405487060547,-26.977426528930664
0,216643,-9.788727760314941,-3.9546117782592773,-9.21660041809082,-23.007492065429688
0,216644,49.288143157958984,-0.408020555973053,16.93227195739746,76.05426025390625
0,216647,-1.0753586292266846,-11.912262916564941,-1.367418646812439,-86.32197570800781
0,216648,-60.23612976074219,-14.259815216064453,-32.9171142578125,-66.57051849365234
0,216652,22.305932998657227,37.48257827758789,-24.830570220947266,85.05342864990234
0,216653,5.459100246429443,-11.316567420959473,30.164953231811523,21.218809127807617
0,216655,-12.252379417419434,-75.67524719238281,33.10976028442383,16.955869674682617
0,216657,22.25227165222168,27.62348175048828,-34.13362503051758,-9.812339782714844
0,216659,-11.745976448059082,64.14972686767578,-7.569034576416016,-65.56854248046875
0,216661,-17.786029815673828,-54.69761657714844,27.05124855041504,49.377681732177734
0,216663,-1.0125746726989746,-35.5079345703125,-48.70386505126953,15.827696800231934
0,216665,9.478364944458008,57.58796310424805,2.9382667541503906,-102.7131576538086
0,216667,28.56711769104004,-16.887859344482422,70.21749877929688,69.65217590332031
0,216669,9.144638061523438,-26.27903938293457,-23.096506118774414,5.677401065826416
0,216671,-58.09836196899414,62.54285430908203,-39.148948669433594,-186.31077575683594
0,216673,-28.61158561706543,34.349037170410156,5.453766822814941,94.27671813964844
0,216675,67.98126983642578,-27.422897338867188,37.368255615234375,229.4573516845703
0,216677,27.616926193237305,-44.28116226196289,19.22164535522461,-32.14760971069336
0,216679,-23.746870040893555,-17.894821166992188,-45.05518341064453,-148.71275329589844
0,216681,-26.627033233642578,43.87738800048828,-12.494085311889648,-29.386245727539062
0,216683,-35.07809066772461,22.365461349487305,7.226556301116943,48.67490005493164
0,216685,25.3072509765625,-40.23093032836914,6.169759273529053,43.6236686706543
0,216687,46.18008804321289,7.3625030517578125,24.934194564819336,-4.790563106536865
0,216689,-13.065632820129395,-8.586255073547363,-8.509479522705078,-1.2417408227920532
0,216691,-7.5575032234191895,-27.772233963012695,-27.550132751464844,76.00606536865234
0,216693,21.557029724121094,33.42258834838867,9.62659740447998,-190.76898193359375
0,216695,-10.124826431274414,-8.49454116821289,14.649381637573242,-307.6836242675781
0,216697,-11.734596252441406,-8.591360092163086,3.3077428340911865,358.8252258300781
0,216699,0.6183711290359497,25.324377059936523,-0.9098997116088867,396.87261962890625
0,216701,-25.212493896484375,-3.2287192344665527,-34.03765106201172,-317.5345458984375
0,216703,-13.2627592086792,-1.61008882522583,-8.112074851989746,-252.68521118164062
0,216705,41.35346603393555,5.342970371246338,49.297847747802734,163.2984619140625
0,216707,20.442562103271484,-17.32433319091797,2.8001515865325928,118.84629821777344
0,216709,-57.617889404296875,4.090017795562744,-51.249671936035156,-99.34193420410156
0,216711,-18.842548370361328,28.364891052246094,3.6860547065734863,-39.01020431518555
0,216713,97.17009735107422,-42.36104202270508,48.83173751831055,262.2724609375
0,216715,73.75420379638672,-28.858755111694336,22.488609313964844,160.3721160888672
0,216717,-88.75701904296875,51.94868469238281,-21.827686309814453,-325.8077087402344
0,216719,-106.1176986694336,31.39937973022461,-28.75245475769043,-237.2380828857422
0,216721,30.457366943359375,-16.709144592285156,-3.87361478805542,114.37640380859375
0,216723,30.691308975219727,-20.727495193481445,23.182785034179688,26.080617904663086
0,216725,-7.731975555419922,11.191178321838379,-9.388625144958496,4.54656457901001
0,216727,18.781982421875,8.690568923950195,-27.799427032470703,55.5307502746582
0,216729,2.485424041748047,-23.630451202392578,26.60540199279785,9.984930992126465
0,216731,-17.456933975219727,10.852445602416992,5.343940258026123,5.62095308303833
0,216733,-26.251724243164062,-6.864743232727051,-27.608379364013672,-12.033867835998535
0,216735,18.356857299804688,-21.54921531677246,-5.281147003173828,-9.058744430541992
0,216737,69.82451629638672,45.3317756652832,27.660110473632812,16.982675552368164
0,216739,15.92066478729248,9.453362464904785,19.750268936157227,21.44036102294922
0,216741,-36.73785400390625,-44.36479187011719,-13.877913475036621,8.104021072387695
0,216743,-42.901241302490234,-10.859480857849121,-5.897230625152588,-8.313084602355957
0,216745,-25.00387191772461,38.40257263183594,-10.982277870178223,-88.93689727783203
0,216747,13.678959846496582,18.931194305419922,-8.103163719177246,-51.94706344604492
0,216749,35.69670104980469,-47.487831115722656,16.398706436157227,168.5999298095703
0,216751,33.007102966308594,-44.403377532958984,13.501128196716309,115.0840835571289
0,216753,-28.223377227783203,55.49864196777344,7.93789529800415,-127.66026306152344
0,216755,-37.80827713012695,55.91179275512695,-23.812828063964844,-103.63497924804688
0,216757,19.722654342651367,-68.3236083984375,-41.70005798339844,17.288694381713867
0,216759,6.127071380615234,-51.95586395263672,13.819369316101074,6.217562198638916
0,216761,-5.150932788848877,53.17247772216797,44.85800552368164,24.72829246520996
0,216763,1.7259011268615723,22.687963485717773,-8.356800079345703,16.22240447998047
0,216765,-21.595582962036133,-14.664388656616211,-42.11897277832031,-58.6074333190918
0,216767,19.658559799194336,32.308650970458984,42.84977722167969,59.9516487121582
0,216769,62.49260330200195,3.892137050628662,46.76407241821289,84.43157958984375
0,216771,-25.742462158203125,-16.435638427734375,-39.33767318725586,-66.25801849365234
0,216773,-56.51144027709961,4.091820240020752,-12.730001449584961,-2.129061222076416
0,216775,17.649477005004883,-19.7468318939209,-4.07133674621582,35.426856994628906
0,216777,2.7424585819244385,-5.2793073654174805,-9.722420692443848,-110.21218872070312
0,216779,-12.318387985229492,-19.82122039794922,6.449294090270996,-110.85572814941406
0,216781,24.414670944213867,-3.7617218494415283,-5.666579723358154,118.87965393066406
0,216783,16.729665756225586,58.512779235839844,25.070266723632812,167.4677734375
0,216785,-25.218700408935547,-10.864574432373047,-10.621244430541992,-75.82518768310547
0,216787,-9.594078063964844,-46.403770446777344,-40.16595458984375,-86.43685913085938
0,216789,15.239165306091309,27.608890533447266,25.790996551513672,-0.7188301086425781
0,216791,-23.484115600585938,7.7651238441467285,15.72848129272461,-21.930261611938477
0,216793,-3.935220956802368,-26.48452377319336,8.835542678833008,89.09107208251953
0,216795,34.86671447753906,27.944480895996094,18.35579490661621,79.40646362304688
0,216797,-12.017037391662598,12.185628890991211,-35.630123138427734,-92.96873474121094
0,216799,-17.480558395385742,-11.266166687011719,-22.709575653076172,-43.56604766845703
0,216801,40.24630355834961,3.514277696609497,35.73079299926758,83.93441009521484
0,216803,8.401660919189453,-20.25499725341797,12.8222017288208,-13.722911834716797
0,216805,-49.30958557128906,1.6337894201278687,-26.81284523010254,-49.01280975341797
0,216807,1.4158906936645508,28.91954803466797,-8.367920875549316,-0.11559421569108963
0,216809,31.28813362121582,-20.14379119873047,3.1680774688720703,-18.816360473632812
0,216811,-13.060966491699219,-23.809263229370117,10.433161735534668,8.933197021484375
0,216813,-20.907791137695312,45.5077018737793,13.377997398376465,3.5904388427734375
0,216815,12.143959045410156,23.456298828125,-19.268756866455078,-2.315145254135132
0,216817,30.564674377441406,-47.25849914550781,4.0689802169799805,58.85613250732422
0,216819,0.7778156995773315,-16.428464889526367,27.90103530883789,36.2180061340332
0,216821,-15.85085391998291,21.996540069580078,-8.878996849060059,-54.39601135253906
0,216823,-19.43533706665039,-10.18607234954834,-23.485979080200195,-67.3605728149414
0,216825,0.5769726634025574,-45.528011322021484,-5.2408528327941895,-3.007390022277832
0,216827,22.060253143310547,2.6463935375213623,21.228317260742188,48.13301467895508
0,216829,2.9198215007781982,53.706260681152344,17.356168746948242,29.669231414794922
0,216831,-21.35507583618164,13.935747146606445,-35.08942413330078,-38.18848419189453
0,216833,-21.863752365112305,-23.955078125,-29.578208923339844,-35.905704498291016
0,216835,26.756563186645508,-23.724609375,41.66001892089844,29.107263565063477
0,216837,9.173834800720215,21.664827346801758,4.848621845245361,13.756843566894531
0,216839,-18.613372802734375,25.712318420410156,-40.20438003540039,6.278283596038818
0,216841,12.762758255004883,1.9883127212524414,20.670175552368164,19.506481170654297
0,216843,-0.6164225935935974,-1.688677191734314,27.252626419067383,7.468822956085205
0,216845,-2.3792645931243896,-18.704544067382812,-11.994950294494629,-10.161724090576172
0,216847,10.765109062194824,-0.10854405909776688,-17.810354232788086,-18.907594680786133
0,216849,-0.30077964067459106,-1.3236017227172852,5.08358907699585,7.7692365646362305
0,216851,1.6316311359405518,-5.9187092781066895,16.310935974121094,-13.727222442626953
0,216853,-5.779441833496094,8.264244079589844,-2.9380581378936768,-27.70907211303711
0,216855,-2.143465757369995,-14.75049877166748,-5.9019341468811035,42.596595764160156
0,216857,0.9651939272880554,21.185192108154297,2.1818125247955322,8.93106746673584
0,216859,-12.774181365966797,37.22393798828125,10.354697227478027,-73.12808227539062
0,216860,4.552951812744141,-42.07672119140625,4.585552215576172,9.739838600158691
0,216863,11.686689376831055,-20.766685485839844,3.7265748977661133,56.05230712890625
0,216864,11.272708892822266,21.921228408813477,-10.734518051147461,-6.324792385101318
0,216867,8.601570129394531,-6.527271747589111,-43.35236740112305,29.403186798095703
0,216868,-14.669082641601562,-7.955582141876221,-1.1622669696807861,19.735031127929688
0,216871,-37.606441497802734,-0.9817871451377869,43.03846740722656,-73.65612030029297
0,216872,-9.76980972290039,-12.012381553649902,-4.530380725860596,-14.556617736816406
0,216875,43.0387077331543,25.204723358154297,10.978682518005371,35.18703842163086
0,216876,-4.3178300857543945,32.78883361816406,21.266002655029297,-4.068881034851074
0,216879,-23.405527114868164,-22.280736923217773,-42.066253662109375,12.08189868927002
0,216880,13.69013786315918,-21.427215576171875,-17.940052032470703,22.497085571289062
0,216883,6.651345252990723,-31.748497009277344,5.017018795013428,-14.425129890441895
0,216884,8.290520668029785,-14.379413604736328,25.121849060058594,-34.141456604003906
0,216887,-12.535991668701172,74.00012969970703,23.7601375579834,-9.148276329040527
0,216888,-8.61215591430664,66.02265167236328,-31.890417098999023,1.923532247543335
0,216891,8.149140357971191,-63.15212631225586,-3.101896047592163,8.657304763793945
0,216892,-10.354722023010254,-83.32050323486328,12.42380142211914,27.36441421508789
0,216895,33.530452728271484,38.7938346862793,-13.930204391479492,7.018680095672607
0,216896,20.55131721496582,51.88433074951172,9.224297523498535,-1.9685707092285156
0,216899,-60.77483367919922,-30.165231704711914,-12.518705368041992,-38.18970489501953
0,216900,-10.60210132598877,-20.001680374145508,-15.88868236541748,-35.577571868896484
0,216903,34.6597785949707,15.788832664489746,36.86613464355469,75.72290802001953
0,216904,6.781987190246582,8.354736328125,3.987421989440918,40.867855072021484
0,216907,8.063075065612793,14.339341163635254,-20.947111129760742,-60.40557861328125
0,216908,-11.074054718017578,-14.879997253417969,4.556516170501709,-5.576335906982422
0,216911,-11.304306983947754,-28.743967056274414,1.1590590476989746,21.870098114013672
0,216912,-2.297942876815796,21.188064575195312,-0.736312210559845,-27.960674285888672
0,216917,9.820634841918945,17.535184860229492,3.0247111320495605,-14.14013957977295
0,216917,19.894681930541992,-5.373752593994141,5.35026216506958,31.529020309448242
0,216918,-13.16563892364502,-0.6012496948242188,2.7346484661102295,23.32384490966797
0,216921,-13.139869689941406,-24.489973068237305,-17.482406616210938,-16.260128021240234
0,216922,-8.363290786743164,-21.700246810913086,-19.042980194091797,-15.508028030395508
0,216925,1.0312377214431763,35.18272399902344,22.22547149658203,-15.565420150756836
0,216926,14.536073684692383,35.81977462768555,34.59229278564453,-8.516159057617188
0,216929,10.491992950439453,-17.041927337646484,-14.358716011047363,11.72249698638916
0,216930,-10.902050018310547,-19.181903839111328,-29.850053787231445,12.178857803344727
0,216933,-22.350128173828125,-5.263149738311768,-15.354438781738281,11.984841346740723
0,216934,14.119845390319824,14.610142707824707,1.865233302116394,-1.724527359008789
0,216937,12.055649757385254,16.194446563720703,39.21956253051758,-21.65373420715332
0,216938,-8.973664283752441,-14.311593055725098,14.021552085876465,-21.443883895874023
0,216941,13.05174732208252,6.990256309509277,-16.118009567260742,19.010162353515625
0,216942,-6.3745222091674805,10.670743942260742,2.263012647628784,18.486040115356445
0,216945,-19.505096435546875,-33.178680419921875,-14.587371826171875,18.333755493164062
0,216946,19.417667388916016,-14.64968490600586,-17.519399642944336,19.543949127197266
0,216949,1.053438425064087,17.351757049560547,17.849441528320312,-34.0030403137207
0,216950,-18.14383316040039,0.08090073615312576,5.0964555740356445,-4.399261951446533
0,216953,-5.724556922912598,-2.5586581230163574,-8.824284553527832,12.423095703125
0,216954,12.04910659790039,5.653539657592773,-3.6615681648254395,-17.72942352294922
0,216957,22.991987228393555,2.733780860900879,-2.1513831615448,-6.5124006271362305
0,216958,0.13816575706005096,3.8944754600524902,21.182796478271484,1.9615916013717651
0,216961,-27.56435775756836,-6.884685039520264,-2.10324764251709,44.88642501831055
0,216962,-12.110672950744629,-14.140462875366211,-4.886286735534668,18.935319900512695
0,216965,16.091047286987305,-0.2312561422586441,6.932671546936035,-107.35237884521484
0,216966,14.073713302612305,17.20791244506836,-11.424354553222656,-24.14423179626465
0,216969,20.25474739074707,16.162145614624023,11.141386032104492,86.22245788574219
0,216970,-21.755781173706055,-18.350461959838867,-8.088279724121094,-13.764278411865234
0,216973,-22.729867935180664,-13.190896034240723,-17.111753463745117,1.1937607526779175
0,216974,23.250715255737305,11.319038391113281,24.943090438842773,31.826675415039062
0,216977,-3.6772994995117188,11.640220642089844,-1.1964387893676758,-24.775758743286133
0,216978,-0.15467804670333862,-1.2283918857574463,-14.679975509643555,-6.570755958557129
0,216981,0.9295156598091125,-11.541861534118652,6.529324054718018,7.804995536804199
0,216982,-1.4197731018066406,3.6306815147399902,-2.2032735347747803,0.6840577721595764
0,216985,2.346437692642212,7.892235279083252,16.820863723754883,-16.884347915649414
0,216986,-0.8589141964912415,15.655472755432129,-1.147854208946228,-22.861135482788086
0,216989,7.925934791564941,-3.570192575454712,-32.84267044067383,35.752601623535156
0,216990,-24.860960006713867,-31.276031494140625,2.446742057800293,37.33948516845703
0,216993,-5.998271942138672,-11.214734077453613,3.922652006149292,-33.492183685302734
0,216994,12.331642150878906,25.67409324645996,20.56612205505371,-24.37621307373047
0,216997,6.291950702667236,25.266849517822266,25.363285064697266,13.962425231933594
0,216998,15.386028289794922,-15.45292854309082,-29.587692260742188,12.192030906677246
0,217001,-9.488988876342773,-13.450942039489746,-18.121673583984375,2.315685510635376
0,217002,-3.4962825775146484,3.1304378509521484,18.02042579650879,6.71522855758667
0,217005,3.6880922317504883,2.9144725799560547,17.22516441345215,10.192571640014648
0,217006,5.0569257736206055,-6.677218914031982,-1.9836710691452026,-32.108463287353516
0,217009,-5.02493953704834,-13.3524808883667,-9.261343002319336,-27.460317611694336
0,217010,-13.539628028869629,10.779293060302734,-12.746535301208496,8.415425300598145
0,217013,11.280484199523926,11.699124336242676,1.3618239164352417,3.986614465713501
0,217014,-6.550185203552246,-3.347522258758545,24.173702239990234,32.18876647949219
0,217017,4.738585948944092,-9.132705688476562,-11.212909698486328,12.88379192352295
0,217018,13.283026695251465,-14.528166770935059,-30.47254180908203,-42.29847717285156
0,217021,-16.160818099975586,16.638792037963867,1.960833191871643,-6.297451019287109
0,217022,-5.68129825592041,26.005027770996094,-0.07122226059436798,36.376522064208984
0,217025,-7.593517303466797,-24.29247283935547,9.203856468200684,17.702661514282227
0,217026,9.550555229187012,-3.4181101322174072,14.124749183654785,-17.68120765686035
0,217029,28.64141082763672,16.68580436706543,-2.6134889125823975,-39.07233810424805
0,217030,-13.373043060302734,-15.304924011230469,15.37326431274414,4.070087432861328
0,217033,-20.05843162536621,1.0746712684631348,-4.142002582550049,45.62947463989258
0,217034,19.08938980102539,9.456036567687988,-5.042065143585205,-10.05160903930664
0,217037,0.6528018712997437,-4.944713592529297,-1.0646328926086426,-32.3367805480957
0,217038,-38.4511604309082,-0.904157280921936,-8.488818168640137,24.713998794555664
0,217041,7.369034767150879,2.7715377807617188,-3.0423364639282227,6.988252639770508
0,217042,32.20728302001953,-2.763700246810913,-12.1187744140625,-23.69725227355957
0,217045,-18.586198806762695,-7.959160327911377,18.64312171936035,17.363855361938477
0,217046,-1.3001956939697266,6.052339553833008,7.779329299926758,3.6671319007873535
0,217049,27.834300994873047,12.145047187805176,-18.978792190551758,-0.6682584881782532
0,217050,-22.555946350097656,-21.15184211730957,-4.650175094604492,-8.620770454406738
0,217053,0.36703208088874817,8.271928787231445,9.854408264160156,-26.864051818847656
0,217054,46.056671142578125,21.993589401245117,12.480783462524414,26.38284683227539
0,217057,-21.90682601928711,-22.617000579833984,-16.543676376342773,18.66609001159668
0,217058,-33.6919059753418,-12.643272399902344,-7.2877197265625,1.4119609594345093
0,217061,-0.6644364595413208,-1.4772080183029175,9.896859169006348,-20.456092834472656
0,217062,-9.701339721679688,-6.750195026397705,-6.956104278564453,-60.239505767822266
0,217065,13.654104232788086,24.250764846801758,16.940845489501953,32.12575912475586
0,217066,13.351794242858887,27.789058685302734,17.15265655517578,58.640377044677734
0,217069,-23.36597442626953,-19.902238845825195,-29.938886642456055,-15.360443115234375
0,217070,4.882900714874268,-21.535551071166992,-7.981274604797363,-0.946520209312439
0,217073,24.426206588745117,-9.490029335021973,23.45601463317871,-22.14809799194336
0,217074,-10.296615600585938,13.47877025604248,-5.471410751342773,-14.248306274414062
0,217077,12.770638465881348,33.17325973510742,14.040825843811035,19.61774444580078
0,217078,7.604703903198242,-7.962226390838623,12.300553321838379,-13.526928901672363
0,217081,-28.09964370727539,-28.432985305786133,-40.824317932128906,6.769697666168213
0,217082,18.4606876373291,17.126344680786133,4.845716953277588,30.62947654724121
0,217085,16.64180564880371,11.747024536132812,29.383136749267578,2.392441749572754
0,217086,-20.89301300048828,-30.556699752807617,-30.402069091796875,-31.15875244140625
0,217089,-0.04305842146277428,20.812868118286133,8.267829895019531,3.9800121784210205
0,217090,-12.522475242614746,14.451028823852539,23.116981506347656,6.070700168609619
0,217093,-12.682595252990723,-35.97829818725586,-26.24913215637207,-20.69700813293457
0,217094,33.20004653930664,17.104341506958008,12.197732925415039,27.736913681030273
0,217097,-4.8044586181640625,27.891782760620117,11.538174629211426,15.778390884399414
0,217098,-30.787841796875,-24.8417911529541,-17.75857925415039,-17.508447647094727
0,217101,6.459099292755127,-28.6025333404541,-21.655948638916016,-9.258146286010742
0,217102,-1.2269407510757446,1.2427113056182861,-1.5806844234466553,-12.254106521606445
0,217105,26.356639862060547,33.896263122558594,25.49036979675293,2.468529462814331
0,217106,21.74783706665039,21.514223098754883,-0.0926906168460846,26.123655319213867
0,217109,-22.645858764648438,-20.42672348022461,2.880493640899658,-11.602194786071777
0,217110,-0.6025108098983765,-18.327829360961914,-2.1054296493530273,-28.583545684814453
0,217113,-15.15000057220459,-1.7674638032913208,-25.810840606689453,-4.416260719299316
0,217114,-10.8082857131958,2.0128395557403564,2.027308464050293,10.596529006958008
0,217117,20.737056732177734,1.9837578535079956,31.717552185058594,63.26848602294922
0,217118,-0.84941166639328,-9.789523124694824,9.732976913452148,12.604823112487793
0,217121,-0.76185142993927,-1.319830060005188,-25.66082763671875,-75.47337341308594
0,217123,-0.7118117809295654,9.760106086730957,1.144404649734497,-7.4378838539123535
0,217125,9.520172119140625,-13.09542179107666,13.656249046325684,43.80406188964844
0,217127,7.050055980682373,-10.94202709197998,-16.04081153869629,12.578614234924316
0,217129,-35.70291519165039,18.778257369995117,-4.218442916870117,-21.271827697753906
0,217131,-2.87616229057312,19.258054733276367,3.17787766456604,-24.83877944946289
0,217133,23.285375595092773,9.652915000915527,4.355318069458008,2.1196436882019043
0,217135,0.43672898411750793,-3.100109815597534,18.860673904418945,16.008134841918945
0,217137,1.8119914531707764,-22.61048126220703,-19.71173095703125,1.688387155532837
0,217139,-3.0749528408050537,-0.8092872500419617,-20.082109451293945,-19.456464767456055
0,217141,-4.464495658874512,10.197619438171387,21.496713638305664,4.558300018310547
0,217143,6.187288284301758,11.520220756530762,2.271928071975708,7.258631229400635
0,217145,-4.263542652130127,3.1544907093048096,8.090780258178711,-19.24741554260254
0,217147,5.603496551513672,-11.872944831848145,13.636627197265625,9.991117477416992
0,217148,16.005704879760742,6.478886127471924,-6.6906514167785645,27.492813110351562
0,217151,-27.64809799194336,-1.4232290983200073,-12.271209716796875,-6.257566928863525
0,217152,-11.62898063659668,-16.26266860961914,-37.39231491088867,-17.973108291625977
0,217155,44.09791564941406,-8.24311351776123,-1.8663597106933594,14.264154434204102
0,217156,10.246435165405273,1.5172308683395386,37.37185287475586,26.001108169555664
0,217159,-43.69390106201172,9.710041999816895,0.5435369610786438,-29.617839813232422
0,217160,-23.36402130126953,7.391777515411377,-3.6820740699768066,-26.27506446838379
0,217163,25.5189151763916,-0.9762200713157654,11.394207000732422,24.755237579345703
0,217164,27.260574340820312,-6.705488204956055,3.574666976928711,19.78840446472168
0,217167,1.2816038131713867,-16.779809951782227,-25.109323501586914,-12.052392959594727
0,217168,-10.454920768737793,4.334607124328613,-7.305248260498047,-21.160921096801758
0,217171,-26.806617736816406,11.107078552246094,21.352123260498047,25.11902618408203
0,217172,-11.144007682800293,-0.7695668935775757,-18.537242889404297,-10.082799911499023
0,217175,29.352886199951172,10.462189674377441,6.664400100708008,-19.536996841430664
0,217176,7.655581474304199,1.6816927194595337,24.697315216064453,21.661354064941406
0,217179,-20.089340209960938,-9.355439186096191,-23.198305130004883,-18.303077697753906
0,217183,-1.7746020555496216,-3.441641330718994,-4.259349346160889,-0.16075916588306427
0,217183,21.13153648376465,27.006717681884766,32.864253997802734,13.982858657836914
0,217184,-3.118593692779541,16.0479793548584,7.7953267097473145,0.3532874584197998
0,217187,-21.465049743652344,-39.85970687866211,-32.35328674316406,8.068048477172852
0,217188,10.884575843811035,-30.15091896057129,-5.597716331481934,0.3457622826099396
0,217191,-10.726158142089844,8.04810905456543,-6.235471248626709,-9.456269264221191
0,217192,0.49869218468666077,7.84112024307251,-19.08365821838379,-11.516022682189941
0,217195,33.09437561035156,19.785741806030273,42.826690673828125,9.376630783081055
0,217196,-9.614824295043945,20.755390167236328,24.36028289794922,25.557146072387695
0,217199,-11.465814590454102,-12.087138175964355,-26.438180923461914,-3.0920495986938477
0,217200,8.137643814086914,-10.502619743347168,-12.6215238571167,-27.073183059692383
0,217203,9.293017387390137,-3.3188445568084717,-1.3237615823745728,7.804165840148926
0,217204,-16.55959701538086,-8.31091022491455,-7.900531768798828,20.588823318481445
0,217207,-28.473268508911133,5.8274312019348145,11.748161315917969,-11.683359146118164
0,217208,17.341920852661133,28.279447555541992,24.445262908935547,-27.36338996887207
0,217211,21.832202911376953,-6.59989595413208,-17.352651596069336,-6.3381805419921875
0,217212,-15.19047737121582,-19.613065719604492,0.8238287568092346,13.152446746826172
0,217215,4.1313323974609375,19.639480590820312,9.341464042663574,30.226205825805664
0,217216,24.592300415039062,-9.289982795715332,-10.643073081970215,25.28721046447754
0,217219,-41.580177307128906,-42.90662384033203,-27.50959587097168,-52.468414306640625
0,217220,-22.93936538696289,-11.648896217346191,-6.931690216064453,-41.99729919433594
0,217223,71.5325698852539,49.41267395019531,51.2759895324707,58.88323211669922
0,217224,6.182847023010254,27.080026626586914,-2.7724883556365967,31.28914451599121
0,217227,-47.281044006347656,-30.67285919189453,-14.400651931762695,-43.74702072143555
0,217228,15.357908248901367,-6.449082374572754,6.419950008392334,-14.447244644165039
0,217231,-0.1698397696018219,0.5688043832778931,-13.828017234802246,46.374595642089844
0,217232,-25.47679901123047,-3.258896827697754,-15.717697143554688,-9.342856407165527
0,217235,17.391090393066406,21.45631980895996,17.378555297851562,-41.841705322265625
0,217236,20.212522506713867,2.6435272693634033,33.775142669677734,24.62407875061035
0,217239,-11.65277099609375,-10.825818061828613,-29.93368911743164,-19.940536499023438
0,217240,5.617151260375977,4.115330696105957,-20.826345443725586,-11.680808067321777
0,217243,5.732254505157471,3.5390186309814453,21.276004791259766,47.48854446411133
0,217244,-13.626235961914062,3.4004876613616943,2.9413485527038574,3.654653310775757
0,217247,5.329795837402344,3.3281733989715576,5.1843342781066895,-9.54238224029541
0,217248,-6.399188995361328,-24.862953186035156,11.130311012268066,-16.45278549194336
0,217251,-20.9959659576416,-22.963420867919922,-26.00555419921875,-12.394736289978027
0,217252,5.7243170738220215,20.45915985107422,-23.733943939208984,23.3298397064209
0,217255,24.379255294799805,10.886487007141113,35.54204177856445,19.45860481262207
0,217256,7.6766357421875,-13.00721549987793,26.48854637145996,-0.9000951051712036
0,217259,-18.903596878051758,10.029574394226074,-23.970478057861328,-25.460304260253906
0,217260,-11.680575370788574,5.019552230834961,-28.077102661132812,-18.638492584228516
0,217263,7.2293477058410645,-7.95412540435791,-5.578400135040283,7.382069110870361
0,217264,-14.848030090332031,19.36625862121582,21.096025466918945,11.81696891784668
0,217267,8.074238777160645,-3.4902560710906982,18.6932373046875,18.80738639831543
0,217268,45.208656311035156,-6.692254066467285,-3.519922971725464,-0.9940731525421143
0,217271,-27.578445434570312,3.3200244903564453,-30.313873291015625,-21.116506576538086
0,217272,-36.49009323120117,-20.615291595458984,-18.80826187133789,-16.759521484375
0,217275,42.98783493041992,5.224416732788086,42.64750289916992,-4.329262733459473
0,217276,8.033159255981445,11.623866081237793,23.242082595825195,26.482452392578125
0,217279,-31.629457473754883,-14.565485000610352,-35.5250129699707,12.806588172912598
0,217280,10.504638671875,-6.965880870819092,-0.29123204946517944,-21.503206253051758
0,217283,9.24917221069336,20.319965362548828,23.42411231994629,3.8587241172790527
0,217284,-10.632051467895508,7.441003322601318,-23.439355850219727,28.604524612426758
0,217287,-1.8334780931472778,-29.89698600769043,-17.466493606567383,-0.6651891469955444
0,217288,9.77971076965332,7.0104217529296875,36.409664154052734,-53.85208511352539
0,217291,-3.430466651916504,25.654878616333008,15.447914123535156,-22.375152587890625
0,217292,-6.226041316986084,-13.004243850708008,-23.45565414428711,57.31861114501953
0,217295,8.141646385192871,12.451744079589844,15.630017280578613,35.53669357299805
0,217296,-9.496553421020508,7.931571960449219,-6.320218563079834,-28.013839721679688
0,217299,-2.0125184059143066,-21.29559898376465,-23.035598754882812,-12.657716751098633
0,217300,-0.6574899554252625,3.16721510887146,17.076019287109375,7.638426780700684
0,217303,6.464516639709473,12.233098983764648,-17.896020889282227,-19.26544952392578
0,217304,17.689353942871094,-6.967530727386475,1.9792526960372925,0.8080800771713257
0,217307,-17.3552303314209,-12.515461921691895,22.380096435546875,21.2490177154541
0,217308,-1.4022620916366577,-0.8764813542366028,-25.97710609436035,3.370514392852783
0,217311,11.122832298278809,0.8415988087654114,-3.4284605979919434,1.3649637699127197
0,217312,-7.543774127960205,-3.3243136405944824,20.412935256958008,-11.50367259979248
0,217315,9.943827629089355,13.067916870117188,4.385526180267334,-16.671995162963867
0,217316,10.74171257019043,16.034870147705078,-10.94914436340332,12.626798629760742
0,217319,-23.996400833129883,-32.87508773803711,-10.480743408203125,8.394519805908203
0,217320,-17.32469367980957,-14.763680458068848,14.627168655395508,-27.982439041137695
0,217323,19.67945098876953,34.70939636230469,3.710355281829834,-0.4168386161327362
0,217324,9.125651359558105,-6.598801612854004,-12.098515510559082,22.360740661621094
0,217327,3.7102038860321045,-18.083179473876953,5.865796089172363,2.756718635559082
0,217328,-13.005013465881348,11.85066032409668,-8.891355514526367,2.165426254272461
0,217331,-40.58538055419922,3.354175090789795,-8.274158477783203,-3.5617411136627197
0,217332,31.05274772644043,23.685585021972656,29.288354873657227,-8.40172290802002
0,217335,50.031517028808594,15.45705509185791,22.795217514038086,-8.89249324798584
0,217336,-37.37196350097656,-46.94810104370117,-15.626707077026367,9.02228832244873
0,217339,-33.5726318359375,-11.687507629394531,-38.925743103027344,25.09025764465332
0,217340,32.790470123291016,14.955575942993164,-19.21976089477539,-10.657950401306152
0,217343,24.82899284362793,-0.18260933458805084,27.043785095214844,-15.968389511108398
0,217344,-17.206626892089844,3.931227445602417,28.81620216369629,9.729851722717285
0,217347,-8.693525314331055,-11.57066822052002,-5.993332862854004,-8.583379745483398
0,217348,13.412393569946289,15.561006546020508,11.276969909667969,-4.709110260009766
0,217351,-8.810040473937988,1.2735894918441772,-11.224517822265625,-5.234951019287109
0,217352,-19.959436416625977,-11.966758728027344,-44.55989456176758,-6.225179672241211
0,217355,-1.2082253694534302,19.8565673828125,38.638671875,23.972455978393555
0,217356,18.34135627746582,4.505605697631836,37.25877380371094,46.949703216552734
0,217359,-0.3156883120536804,-0.5325409770011902,-38.89308547973633,-10.086603164672852
0,217360,-27.06712532043457,-8.666138648986816,-14.926146507263184,-69.24368286132812
0,217363,15.298005104064941,-21.72124671936035,13.781606674194336,-0.9572219848632812
0,217364,3.605624198913574,3.428629159927368,-1.1896486282348633,31.44654083251953
0,217367,-22.837753295898438,15.166959762573242,1.5478935241699219,-3.6409878730773926
0,217368,33.00298309326172,4.4610748291015625,9.751411437988281,2.7718756198883057
0,217371,21.628162384033203,-7.255011081695557,-16.970914840698242,28.442277908325195
0,217372,-19.558292388916016,-1.1964709758758545,-4.894505977630615,0.2665916979312897
0,217375,14.137717247009277,-5.386074542999268,17.033411026000977,-20.904972076416016
0,217376,1.2035592794418335,-7.147310733795166,-14.217788696289062,-4.121400833129883
0,217379,-55.624839782714844,11.260578155517578,-8.887975692749023,-38.35572052001953
0,217380,-6.700761795043945,-8.707120895385742,17.571033477783203,-11.098658561706543
0,217383,67.62649536132812,15.41441822052002,14.629836082458496,62.33233642578125
0,217384,3.154707908630371,13.961783409118652,-8.7510404586792,19.364749908447266
0,217387,-42.132911682128906,-38.12803649902344,-11.11559009552002,-38.42033767700195
0,217389,11.26374340057373,17.133699417114258,12.985008239746094,-13.481731414794922
0,217391,-2.006408929824829,32.007720947265625,4.939210891723633,21.01837158203125
0,217393,-2.1905720233917236,-16.70132064819336,-13.126631736755371,-3.2272448539733887
0,217395,32.639991760253906,-12.666244506835938,13.861297607421875,3.971320390701294
0,217397,-16.961997985839844,-10.393658638000488,3.633235454559326,21.10832977294922
0,217399,-26.638973236083984,7.435859203338623,-32.89348602294922,-21.603654861450195
0,217401,13.369929313659668,4.043804168701172,-2.2442214488983154,-13.230093955993652
0,217403,2.310065746307373,-4.381038665771484,10.420421600341797,11.755888938903809
0,217405,5.594365119934082,21.20433235168457,4.164778709411621,4.9756340980529785
0,217407,6.949924468994141,-14.439807891845703,3.1078577041625977,4.702702522277832
0,217409,-3.974360704421997,-16.782482147216797,-9.11264705657959,-15.044580459594727
0,217411,-18.553417205810547,8.120574951171875,-0.3001483380794525,-12.408074378967285
0,217413,-9.043113708496094,-13.16158676147461,6.936005592346191,1.0194584131240845
0,217414,26.19815444946289,16.225112915039062,11.48669719696045,-5.185337543487549
0,217417,0.9875882863998413,17.61655044555664,10.184946060180664,6.433952331542969
0,217418,-8.546186447143555,-15.796771049499512,-17.463098526000977,12.392536163330078
0,217421,5.09732723236084,2.2777044773101807,-29.606840133666992,9.97300910949707
0,217422,-1.5137664079666138,5.453624725341797,7.186268329620361,1.7300082445144653
0,217425,3.8865113258361816,-12.221861839294434,27.721298217773438,3.1671411991119385
0,217426,-11.570775985717773,1.5239981412887573,1.3299704790115356,3.5537893772125244
0,217429,-21.90690803527832,8.552589416503906,3.3986434936523438,-16.427799224853516
0,217430,10.292285919189453,-6.719095230102539,-1.308791995048523,-16.94564437866211
0,217433,25.802888870239258,0.7698677182197571,-24.325014114379883,-6.500133991241455
0,217434,6.023857593536377,8.632890701293945,-6.590156555175781,-4.046075820922852
0,217437,-14.822675704956055,-9.39319896697998,12.32363510131836,17.88085174560547
0,217438,-9.163433074951172,4.842212200164795,28.247783660888672,20.276716232299805
0,217441,12.564197540283203,5.519891738891602,-3.348324775695801,1.3874746561050415
0,217442,7.738381862640381,-20.504436492919922,-22.400197982788086,-12.632366180419922
0,217445,-3.4568512439727783,18.659807205200195,26.459430694580078,-30.38783073425293
0,217449,-6.002204418182373,3.8836429119110107,-19.43378448486328,21.435117721557617
0,217449,0.10387541353702545,-40.40735626220703,-42.67036437988281,35.79158020019531
0,217450,2.9772043228149414,13.744402885437012,50.480674743652344,-27.921846389770508
0,217453,-13.988688468933105,25.802396774291992,16.285226821899414,9.592023849487305
0,217454,-1.1068813800811768,-16.830698013305664,-47.644691467285156,7.235788345336914
0,217457,6.35569429397583,-20.56888198852539,11.683051109313965,-33.14304733276367
0,217458,-14.054722785949707,18.062023162841797,25.565914154052734,8.191834449768066
0,217461,17.49281120300293,9.22895336151123,-28.337064743041992,8.810521125793457
0,217462,8.679896354675293,-23.330787658691406,-17.86949348449707,8.114344596862793
0,217465,-19.00353240966797,32.24409866333008,34.98306655883789,-4.67125940322876
0,217466,26.2249698638916,31.9161434173584,20.950836181640625,-18.250913619995117
0,217469,16.258573532104492,-20.025348663330078,-15.58546257019043,-3.599308490753174
0,217470,-45.13328170776367,0.04965796321630478,-14.647637367248535,0.6869698762893677
0,217473,-9.560552597045898,1.0980279445648193,3.3759586811065674,46.79884338378906
0,217474,44.863929748535156,-23.526391983032227,-5.865111827850342,12.089591979980469
0,217477,-8.509982109069824,-6.786992073059082,10.576948165893555,-62.72874069213867
0,217478,-14.713766098022461,11.368518829345703,24.056884765625,3.926433563232422
0,217481,-0.5785707831382751,-0.5976539254188538,-22.242923736572266,20.098995208740234
0,217482,-26.372549057006836,-15.583479881286621,-18.619569778442383,-51.36344909667969
0,217485,20.088180541992188,-1.3825440406799316,7.541526794433594,7.927795886993408
0,217486,14.524303436279297,8.479877471923828,-2.3543331623077393,66.59632110595703
0,217489,-14.243298530578613,0.4247836172580719,-12.388486862182617,-3.7907917499542236
0,217490,-0.29499903321266174,-9.661009788513184,20.01140022277832,-27.86603355407715
0,217493,2.1207754611968994,-2.5805013179779053,17.61219024658203,-0.11263076215982437
0,217494,21.251523971557617,15.181954383850098,-22.307186126708984,19.775314331054688
0,217497,5.133833885192871,20.137062072753906,3.1793179512023926,8.749664306640625
0,217498,-10.538954734802246,-2.8310513496398926,13.323554992675781,-23.731760025024414
0,217501,-13.897801399230957,-11.280014038085938,-12.556990623474121,-0.4794743061065674
0,217502,-8.0443115234375,14.555323600769043,3.525705575942993,10.886078834533691
0,217505,-2.382593870162964,-3.6825625896453857,14.355907440185547,6.319622993469238
0,217506,-8.42749309539795,-12.151341438293457,-0.383502721786499,-10.709895133972168
0,217509,22.07758903503418,8.045604705810547,-10.42618179321289,-19.099977493286133
0,217510,17.387344360351562,-0.8985551595687866,-19.190828323364258,40.29606246948242
0,217513,-24.625276565551758,-21.694374084472656,-1.068827748298645,-7.533327579498291
0,217514,2.5881199836730957,-25.57578468322754,-5.094733238220215,-65.557861328125
0,217517,36.65261459350586,16.6678409576416,3.2758948802948,20.947994232177734
0,217518,-24.67082977294922,28.338045120239258,37.07392501831055,24.774751663208008
0,217521,-26.776948928833008,3.493082284927368,5.466911792755127,-0.4953170120716095
0,217522,25.80131721496582,-2.037038564682007,-8.18359375,31.01878547668457
0,217525,5.422662734985352,-12.731291770935059,-4.51118278503418,-14.474225044250488
0,217526,-3.099666118621826,-5.548644065856934,-22.264461517333984,-32.626487731933594
0,217529,-8.422962188720703,-2.2947030067443848,5.253925800323486,3.972682237625122
0,217530,-19.540159225463867,3.4551022052764893,2.7964541912078857,0.3770299553871155
0,217533,3.1960062980651855,17.640548706054688,-21.01126480102539,3.3541011810302734
0,217534,18.11377716064453,-3.4037423133850098,25.3431453704834,1.9930282831192017
0,217537,18.038101196289062,13.921870231628418,7.735795974731445,3.2048277854919434
0,217538,-13.439148902893066,13.01373291015625,-28.520889282226562,19.53448486328125
0,217541,-20.148880004882812,-31.994354248046875,5.0475640296936035,-0.3815282881259918
0,217542,20.12631607055664,-7.782754421234131,-6.133596420288086,-6.859549045562744
0,217545,6.7117109298706055,19.26436996459961,11.939535140991211,5.294179916381836
0,217546,-20.745147705078125,7.758892059326172,34.759132385253906,-13.35379409790039
0,217549,7.254940032958984,-22.683990478515625,-5.6994476318359375,1.1123896837234497
0,217550,14.66948413848877,-15.345704078674316,-23.867368698120117,3.3638601303100586
0,217553,-9.084501266479492,19.40629005432129,2.470292329788208,-13.710714340209961
0,217554,-11.162303924560547,3.852421760559082,14.49398136138916,17.42548179626465
0,217557,-10.576401710510254,-21.25800895690918,-8.466843605041504,3.3370654582977295
0,217558,-7.657919883728027,2.7825145721435547,-17.04883575439453,-29.112070083618164
0,217561,34.22353744506836,20.573087692260742,11.771801948547363,-4.284797191619873
0,217562,27.768449783325195,-24.223434448242188,16.31859588623047,4.741065979003906
0,217565,-42.299259185791016,-4.004858016967773,-26.317832946777344,23.232513427734375
0,217566,-6.131831645965576,35.18333435058594,-1.9830763339996338,45.31804656982422
0,217569,23.362178802490234,-10.684906959533691,20.86994743347168,-40.974952697753906
0,217570,-18.252952575683594,-9.651674270629883,-4.343108177185059,-75.65534210205078
0,217573,0.915090024471283,16.644514083862305,-0.6468461751937866,35.455322265625
0,217574,14.043795585632324,4.160939693450928,-3.4166085720062256,60.73874282836914
0,217577,-6.855937480926514,-1.5781465768814087,-17.344419479370117,-21.99831771850586
0,217578,-6.511501312255859,-24.93718910217285,-7.609086036682129,-21.518220901489258
0,217581,-0.41553351283073425,-16.571075439453125,12.085771560668945,19.337657928466797
0,217582,7.797767639160156,24.18396759033203,17.588491439819336,3.918980360031128
0,217585,12.021888732910156,-4.788384914398193,-8.391221046447754,-3.707118511199951
0,217586,-11.535645484924316,-9.740299224853516,-2.729809522628784,-3.3341376781463623
0,217589,7.504520893096924,15.767190933227539,20.112407684326172,-3.666477918624878
0,217590,-3.270735263824463,16.320693969726562,-13.950428009033203,-8.604964256286621
0,217593,-44.165225982666016,-9.63054084777832,-13.443621635437012,-20.872119903564453
0,217594,20.678651809692383,-21.8885498046875,9.421451568603516,23.03326988220215
0,217597,35.912330627441406,43.81938552856445,8.325934410095215,38.81088638305664
0,217598,-30.000694274902344,14.13341999053955,6.233072280883789,-11.292068481445312
0,217601,-6.6137895584106445,-50.23200225830078,2.924234628677368,-14.047369003295898
0,217602,31.470142364501953,2.4979088306427,-9.328753471374512,-21.071748733520508
0,217605,-18.599721908569336,36.71321105957031,-23.337003707885742,-11.14680290222168
0,217606,-11.100090980529785,-8.08970832824707,6.84223747253418,17.77024269104004
0,217609,29.162189483642578,-35.0907096862793,4.9812164306640625,2.8514883518218994
0,217610,-20.623044967651367,1.3917406797409058,-10.73755168914795,12.6943359375
0,217613,-7.5174641609191895,20.770170211791992,26.358552932739258,6.236212253570557
0,217614,33.21210479736328,-16.12801742553711,13.080467224121094,0.7881728410720825
0,217617,-1.932816505432129,-8.167450904846191,-13.392190933227539,-16.31572723388672
0,217618,-12.966386795043945,19.067386627197266,-4.367055416107178,-27.51747703552246
0,217621,-0.25313419103622437,-5.316077709197998,-11.026558876037598,8.323078155517578
0,217622,-6.695074558258057,4.303896903991699,0.8260014653205872,24.15814208984375
0,217625,-14.148904800415039,9.180060386657715,16.81267738342285,7.768939018249512
0,217626,14.066017150878906,-10.174896240234375,-14.300636291503906,-27.0058650970459
0,217629,-2.9498846530914307,-7.599229335784912,-17.18646812438965,10.979057312011719
0,217630,-12.840170860290527,-1.3169063329696655,20.150270462036133,30.86069679260254
0,217633,22.11433982849121,0.34186312556266785,15.545392036437988,-34.18694305419922
0,217634,1.752595067024231,9.267655372619629,-20.61907196044922,-19.14942741394043
0,217637,1.038855791091919,4.232262134552002,-12.395419120788574,24.419803619384766
1,217638,5.810534477233887,-10.020547866821289,31.003007888793945,-6.876267433166504
1,217641,-2.561885118484497,0.5879631638526917,0.17408232390880585,17.299039840698242
1,217642,-7.650838375091553,5.344743728637695,-30.260154724121094,42.46879196166992
1,217645,-20.735868453979492,-4.518874168395996,11.422407150268555,-32.007083892822266
1,217646,11.333624839782715,9.721142768859863,14.83287239074707,-48.568878173828125
1,217649,21.971755981445312,12.20677661895752,-20.2938289642334,2.0532608032226562
1,217650,6.126369953155518,-15.717787742614746,-6.1124444007873535,31.857248306274414
1,217653,-11.466840744018555,-6.534207820892334,24.546449661254883,19.49990463256836
1,217654,-20.509706497192383,-10.247694969177246,1.2829513549804688,-23.385967254638672
1,217657,17.66372299194336,9.2683687210083,-14.482751846313477,-24.42888641357422
1,217658,2.462468147277832,31.73880386352539,8.056611061096191,6.615187168121338
1,217661,-18.17102813720703,-25.15579605102539,2.999368906021118,49.383811950683594
1,217662,4.422690391540527,-8.779489517211914,-8.267909049987793,4.629791736602783
1,217665,6.0547566413879395,20.00607681274414,5.213150978088379,-53.185543060302734
1,217666,-2.505523681640625,-28.400203704833984,-2.3441579341888428,18.023862838745117
1,217669,1.452641487121582,4.892096996307373,-0.4019649028778076,5.6663103103637695
1,217670,-0.33241572976112366,41.12626266479492,-4.490692138671875,-40.708290100097656
1,217673,4.812887668609619,-21.654993057250977,3.8028557300567627,28.704980850219727
1,217674,10.971657752990723,-18.15239715576172,30.540849685668945,31.535175323486328
1,217677,-23.969831466674805,9.616357803344727,-10.324350357055664,-13.382746696472168
1,217679,-18.317527770996094,-5.714306831359863,-33.33095932006836,-5.815345287322998
1,217681,12.98293399810791,10.821050643920898,2.478416681289673,-19.711971282958984
1,217683,13.186474800109863,-13.340043067932129,21.22421646118164,-5.126302242279053
1,217685,10.893250465393066,-10.300106048583984,-19.68764877319336,10.439682960510254
1,217687,-9.701160430908203,38.85737609863281,-10.363410949707031,1.3792483806610107
1,217689,-5.457988739013672,-1.4842983484268188,47.115379333496094,28.805891036987305
1,217691,16.030750274658203,-36.51570510864258,-21.821470260620117,-5.978219985961914
1,217693,11.583130836486816,16.345455169677734,-39.351680755615234,-42.79466247558594
1,217695,-1.0920069217681885,10.9202299118042,42.4388427734375,28.95476531982422
1,217697,-24.728866577148438,-26.011035919189453,2.757668972015381,-3.805912971496582
1,217699,-22.977252960205078,9.137919425964355,-35.74460983276367,-44.92490768432617
1,217701,3.535311222076416,3.474522829055786,16.60354232788086,47.16634750366211
1,217703,29.295061111450195,0.33986568450927734,22.421363830566406,21.46007537841797
1,217704,21.404367446899414,19.51235008239746,-3.4123735427856445,-16.88763999938965
1,217707,-20.220890045166016,-8.578452110290527,-2.36122727394104,5.300495147705078
1,217708,-33.563968658447266,-22.013097763061523,-10.891053199768066,2.866744041442871
1,217712,13.591958999633789,-12.751968383789062,-0.91802579164505,-5.226583957672119
1,217712,20.728038787841797,14.774683952331543,5.620718002319336,-17.511600494384766
1,217715,-7.6875319480896,33.36977005004883,-6.290340423583984,16.603364944458008
1,217716,-2.4216222763061523,0.8526225686073303,-2.223820447921753,12.784228324890137
1,217719,-15.440478324890137,-6.568568229675293,1.453532099723816,-26.4387149810791
1,217720,11.032691955566406,-8.244390487670898,1.3265790939331055,-19.066532135009766
1,217723,18.79623794555664,-19.726789474487305,-5.080972194671631,18.983722686767578
1,217724,-5.602335453033447,10.384570121765137,21.490886688232422,9.143820762634277
1,217727,-3.0332038402557373,3.7938807010650635,-1.2052583694458008,-34.445945739746094
1,217728,-17.774930953979492,-5.6874260902404785,-25.485876083374023,16.91362762451172
1,217731,8.187450408935547,14.68574047088623,11.5993070602417,36.731163024902344
1,217732,12.465676307678223,-0.8372886180877686,-8.646029472351074,-15.378606796264648
1,217735,-6.92808723449707,-12.985645294189453,6.485504627227783,-3.913435459136963
1,217736,5.144227027893066,-3.275630235671997,34.19822311401367,15.421180725097656
1,217739,-10.243514060974121,-10.01109504699707,-9.581547737121582,1.3661142587661743
1,217740,-4.462118625640869,8.640064239501953,-25.872343063354492,-21.362886428833008
1,217743,16.115629196166992,9.450438499450684,-6.9782490730285645,-19.628061294555664
1,217998,2.826927900314331,-11.243766784667969,15.946043968200684,14.771708488464355
1,218001,-10.750917434692383,0.38514941930770874,10.759649276733398,16.457015991210938
1,218002,-1.5699551105499268,16.45793914794922,-18.473180770874023,-5.9197893142700195
1,218005,1.6303291320800781,9.997133255004883,4.8459553718566895,-7.4756364822387695
1,218006,8.145476341247559,-22.55416488647461,11.937897682189941,-5.377617835998535
1,218009,7.438458442687988,10.79677963256836,-26.000791549682617,-10.258228302001953
1,218010,-27.85235595703125,1.5516047477722168,-11.883513450622559,10.151583671569824
1,218013,-13.23975658416748,-45.37546157836914,30.912965774536133,35.301856994628906
1,218014,22.715438842773438,34.51385498046875,19.546411514282227,-20.895421981811523
1,219103,5.701386451721191,40.52810287475586,-34.867759704589844,-26.994564056396484
1,219105,10.325993537902832,-33.68760681152344,-10.973959922790527,30.787858963012695
1,219107,13.01237964630127,-15.565197944641113,37.65436553955078,0.87313312292099
1,219109,-31.680557250976562,13.080595970153809,-18.49571990966797,-38.91770553588867
1,219111,-29.375009536743164,9.436134338378906,-19.65283203125,41.680152893066406
1,219113,35.155487060546875,-8.757546424865723,43.024932861328125,21.773460388183594
1,219115,26.395923614501953,2.6870996952056885,1.1886181831359863,-64.54692077636719
1,219117,-28.403547286987305,-2.8474438190460205,-32.49969482421875,19.27054786682129
1,219119,-13.738872528076172,-28.621686935424805,-8.982497215270996,13.693894386291504
1,219121,16.01901626586914,18.79600715637207,-3.9463601112365723,-13.422996520996094
1,219123,14.798727035522461,20.322542190551758,15.915054321289062,15.106693267822266
1,219125,-7.384158134460449,-13.629823684692383,28.406801223754883,-5.476916313171387
1,219127,-21.998502731323242,-5.44028902053833,8.545973777770996,2.698698043823242
1,219129,3.9614949226379395,-4.6696696281433105,-18.620975494384766,15.37684440612793
1,219131,23.169504165649414,18.105928421020508,-28.728174209594727,-28.551193237304688
1,219133,15.80988597869873,16.604816436767578,16.18107032775879,-16.720746994018555
1,219135,-14.09620189666748,-23.47726058959961,45.323646545410156,27.50857162475586
1,219137,-41.28435516357422,-0.6421740055084229,-28.15597915649414,-2.7613353729248047
1,219139,36.6732063293457,17.451040267944336,-42.1038932800293,5.591233730316162
1,219141,16.717939376831055,-29.56296730041504,13.013690948486328,-1.7061585187911987
1,219143,-55.62163543701172,9.882568359375,-0.8752650022506714,1.4044218063354492
1,219145,29.933502197265625,26.36743927001953,3.7726662158966064,28.73079490661621
1,219147,15.967350959777832,-14.843295097351074,9.656539916992188,-24.959138870239258
1,219149,-33.33253479003906,-5.33642578125,-13.583101272583008,2.7324869632720947
1,219151,27.177860260009766,3.631319046020508,47.326480865478516,38.94233703613281
1,219153,6.189789295196533,-8.267722129821777,24.526966094970703,-30.393295288085938
1,219155,-48.607154846191406,-44.03437805175781,-87.79449462890625,-35.01398849487305
1,219157,7.216033458709717,40.90280532836914,-44.06241226196289,1.2114670276641846
1,219159,26.021991729736328,43.18269729614258,41.75864028930664,9.900955200195312
1,219161,-7.890085697174072,-43.77067565917969,43.23637771606445,-15.570280075073242
1,219163,6.996403694152832,9.924519538879395,0.6925188899040222,-1.831438422203064
1,219165,15.186407089233398,-1.0409486293792725,-14.871336936950684,38.190208435058594
1,219167,-11.32664966583252,-37.37630844116211,-11.00355052947998,-8.333168029785156
1,219169,-21.942934036254883,8.952916145324707,28.08765411376953,-15.434863090515137
1,219171,11.329092979431152,53.71893310546875,6.44328498840332,4.490238666534424
1,219173,30.793392181396484,6.505379676818848,-43.80942153930664,1.5185768604278564
1,219175,-3.782327175140381,-37.77309799194336,27.984085083007812,13.574444770812988
1,219177,-34.697845458984375,-4.642747402191162,18.159379959106445,-8.8477201461792
1,219179,-9.355328559875488,-19.321691513061523,-22.479045867919922,-1.6272612810134888
1,219181,25.77408218383789,17.675411224365234,18.794286727905273,0.48079821467399597
1,219183,10.597389221191406,40.125118255615234,-0.3252243399620056,-20.590503692626953
1,219185,-13.620070457458496,-40.014259338378906,-1.5122090578079224,23.790712356567383
1,219187,11.787130355834961,-5.757756233215332,-4.009606838226318,32.43556213378906
1,219189,2.7357406616210938,34.423187255859375,-38.60026168823242,-42.49759292602539
1,219191,-29.216238021850586,-11.107487678527832,-5.2423529624938965,-38.580379486083984
1,219193,5.757660388946533,2.0520451068878174,42.389923095703125,33.60866928100586
1,219195,20.88899040222168,-12.042991638183594,19.768112182617188,42.97746658325195
1,219197,4.651357173919678,-14.243218421936035,-44.331932067871094,-13.849349975585938
1,219199,-6.125429153442383,35.96866989135742,-10.26801872253418,-37.301300048828125
1,219201,-10.365667343139648,-13.186112403869629,41.51598358154297,17.755550384521484
1,219203,-5.069019317626953,-34.3149528503418,0.2524504065513611,18.51548957824707
1,219205,2.0558133125305176,28.338180541992188,-17.974529266357422,-14.215964317321777
1,219207,4.254345417022705,9.650543212890625,3.333453893661499,-6.814298152923584
1,219209,-6.362593173980713,-16.789134979248047,-18.264667510986328,-18.943069458007812
1,219211,6.0190958976745605,5.311352252960205,-10.994787216186523,-8.214325904846191
1,219212,3.0775556564331055,9.673364639282227,39.5581169128418,36.48957061767578
1,219215,-5.277015686035156,1.3730742931365967,1.5449124574661255,21.026456832885742
1,219216,0.8060793280601501,-9.874245643615723,-47.32335662841797,-22.278654098510742
1,219219,2.870786666870117,-20.13475799560547,8.047881126403809,-3.0282087326049805
1,219220,-4.3872175216674805,-10.198987007141113,32.83538818359375,17.412189483642578
1,219223,-4.796054840087891,22.48407554626465,-10.770119667053223,-14.928130149841309
1,219224,3.480273962020874,23.31509017944336,13.056110382080078,-23.253734588623047
1,219227,-0.18181544542312622,-4.492798805236816,13.67483139038086,12.686166763305664
1,219228,-6.372361183166504,-5.319152355194092,-26.70404052734375,10.224397659301758
1,219231,8.923898696899414,-3.3747072219848633,-8.20776653289795,-2.6055781841278076
1,219232,22.035877227783203,-17.24667739868164,-10.06247615814209,-8.164609909057617
1,219235,-17.065088272094727,8.662065505981445,21.060997009277344,-6.635433673858643
1,219236,-5.735041618347168,17.53860855102539,19.25227928161621,31.716053009033203
1,219239,15.091124534606934,-10.740049362182617,-24.18598175048828,-8.629474639892578
1,219240,-20.87431526184082,9.640454292297363,-2.4476349353790283,-23.841081619262695
1,219244,5.14757776260376,23.02031707763672,-6.386021614074707,38.78966522216797
1,219245,34.9467887878418,-18.582979202270508,6.434247016906738,-17.635591506958008
1,219246,-5.732636451721191,-27.519699096679688,25.516773223876953,-28.697179794311523
1,219249,-49.664649963378906,-8.448406219482422,-10.209339141845703,31.09205436706543
1,219250,-19.905349731445312,-3.268528699874878,-35.16913604736328,14.317423820495605
1,219253,55.706634521484375,13.227176666259766,2.494539737701416,2.6416819095611572
1,219254,23.13676643371582,16.799480438232422,39.934017181396484,-29.171783447265625
1,219257,-48.64534378051758,1.645495057106018,1.8648369312286377,-22.717018127441406
1,219258,-10.148221015930176,-8.771449089050293,-20.157821655273438,27.36576271057129
1,219261,19.44754981994629,5.39176607131958,13.796793937683105,5.011690616607666
1,219262,-1.2801902294158936,14.687711715698242,0.6654020547866821,-10.635583877563477
1,219265,5.0507612228393555,-9.46115493774414,-22.52356719970703,7.321071147918701
1,219266,4.457324981689453,-16.725902557373047,4.316309452056885,0.3542187213897705
1,219269,0.672573447227478,-2.4082224369049072,7.253218173980713,-6.85573148727417
1,219270,0.006993850693106651,9.647014617919922,-15.129999160766602,1.3350032567977905
1,219273,-12.664032936096191,17.833175659179688,18.251169204711914,0.24277129769325256
1,219274,5.868086814880371,-25.495685577392578,20.985124588012695,1.7822009325027466
1,219277,-0.5588042736053467,-13.474607467651367,-23.66952133178711,8.877899169921875
1,219278,-7.592270851135254,41.00823974609375,-4.5746564865112305,-1.9972256422042847
1,219281,30.431795120239258,-7.4141106605529785,4.2173848152160645,-14.074589729309082
1,219282,-9.103379249572754,-33.972740173339844,-13.512982368469238,-23.67460823059082
1,219285,-26.663734436035156,12.556192398071289,2.6761600971221924,7.233001232147217
1,219286,14.999094009399414,26.090946197509766,24.164169311523438,24.89801597595215
1,219289,2.0375428199768066,-9.127368927001953,4.599253177642822,-4.597614765167236
1,219290,-11.872482299804688,-13.982515335083008,-18.43817901611328,4.260812282562256
1,219293,6.232352256774902,15.99642276763916,0.6217184066772461,15.043213844299316
1,219294,17.488832473754883,-6.690417766571045,3.8393421173095703,6.933979034423828
1,219297,0.22517232596874237,-21.930288314819336,-15.734539031982422,-11.192366600036621
1,219298,-16.68961524963379,14.430756568908691,-11.84162425994873,-11.367264747619629
1,219301,-13.999398231506348,13.450937271118164,9.279454231262207,-0.9969841837882996
1,219302,6.199540138244629,-6.996995449066162,12.344779968261719,6.601933479309082
1,219305,14.986515998840332,-6.3370361328125,-4.8837785720825195,21.196847915649414
1,219306,24.593860626220703,2.019784450531006,6.32925271987915,-17.45993995666504
1,219309,-13.398365020751953,-1.7075737714767456,0.7525421977043152,-44.405784606933594
1,219310,-34.28367614746094,7.349870204925537,9.511897087097168,12.5471773147583
1,219313,28.599979400634766,19.344127655029297,9.62405776977539,27.747102737426758
1,219314,9.713467597961426,5.825072288513184,-27.685033798217773,-16.871517181396484
1,219317,-31.617273330688477,-28.89763641357422,6.935054302215576,-1.0226683616638184
1,219318,5.285135746002197,-18.442119598388672,20.834671020507812,23.41693115234375
1,219321,14.949077606201172,13.536358833312988,-6.703118324279785,-1.9786367416381836
1,219322,-19.43563461303711,-9.296663284301758,-12.598845481872559,-2.7025933265686035
1,219325,2.576500654220581,0.7087327241897583,-22.666683197021484,-6.0690741539001465
1,219326,14.544140815734863,16.751882553100586,4.3171539306640625,-15.77568244934082
1,219329,-8.182528495788574,8.879107475280762,20.07430076599121,8.514164924621582
1,219330,-11.070161819458008,-17.357091903686523,-10.092512130737305,20.341590881347656
1,219333,4.467941761016846,-7.973424434661865,4.341230869293213,12.587213516235352
1,219334,19.342453002929688,28.327909469604492,7.649452209472656,-16.870718002319336
1,219337,-10.082925796508789,-12.601136207580566,-11.14863395690918,-28.03877830505371
1,219338,-7.566788196563721,-8.676481246948242,0.07644671201705933,-1.292844295501709
1,219341,10.737797737121582,18.299055099487305,9.843453407287598,28.992450714111328
1,219342,0.06138232722878456,-1.2488254308700562,7.748964786529541,2.809687852859497
1,219345,-5.627109050750732,-3.9798271656036377,5.00570821762085,-20.20827865600586
1,219346,18.370052337646484,-1.276186466217041,-8.74648666381836,17.825464248657227
1,219349,9.519292831420898,-4.6067280769348145,-23.037872314453125,13.780155181884766
1,219350,-37.64822769165039,-10.0921049118042,-9.930655479431152,-12.47726058959961
1,219353,5.177923679351807,1.8210591077804565,17.256628036499023,-32.03432846069336
1,219354,36.22251510620117,20.174970626831055,22.67524528503418,13.955816268920898
1,219357,-38.39254379272461,-15.093131065368652,-11.92894458770752,36.63970947265625
1,219358,-8.626359939575195,-12.52045726776123,-0.15280188620090485,-31.007482528686523
1,219361,45.97064208984375,38.782318115234375,10.075979232788086,-11.260156631469727
1,219362,-26.50031280517578,-23.506729125976562,-26.253402709960938,26.603023529052734
1,219365,-19.247007369995117,-26.21501350402832,-1.1037236452102661,-6.342283725738525
1,219366,19.626628875732422,30.492082595825195,16.210676193237305,-25.76944351196289
1,219369,-9.24813175201416,-11.86898136138916,-18.279556274414062,5.822712421417236
1,219370,-7.805254936218262,-17.64525032043457,-6.120697975158691,25.47859764099121
1,219373,15.84111499786377,15.402841567993164,43.1738166809082,-12.99084758758545
1,219374,-0.4462486505508423,23.28120231628418,9.27572250366211,-23.420194625854492
1,219377,-12.034576416015625,-5.488908290863037,-36.16836166381836,24.978235244750977
1,219378,13.34204387664795,-10.97115707397461,4.5965776443481445,22.15279769897461
1,219381,7.169386386871338,5.48787784576416,1.4215624332427979,-13.312530517578125
1,219382,-8.78944206237793,-6.16414213180542,-8.185102462768555,-13.751907348632812
1,219385,-3.5846667289733887,6.849477767944336,4.691650867462158,9.841750144958496
1,219386,-1.5576367378234863,-6.655855655670166,2.6985390186309814,-1.8728910684585571
1,219389,1.9446300268173218,-13.81640338897705,8.25743579864502,-20.50467300415039
1,219390,-8.36074447631836,13.321542739868164,-2.781583786010742,34.5152702331543
1,219395,11.686054229736328,21.107118606567383,-0.4372784495353699,10.957924842834473
1,219395,17.43073272705078,17.915687561035156,-5.931362628936768,-52.44704055786133
1,219397,-12.369832992553711,-25.873315811157227,-2.9427404403686523,4.557652950286865
1,219398,16.450828552246094,-18.662273406982422,16.723915100097656,32.27735900878906
1,219401,-1.3308886289596558,10.12309455871582,1.2094955444335938,-7.994309902191162
1,219402,-23.368181228637695,-20.174697875976562,-16.442914962768555,-7.405570983886719
1,219405,10.771797180175781,0.2722819745540619,15.836677551269531,1.355859398841858
1,219406,2.7380924224853516,35.36903762817383,9.806260108947754,0.2275179624557495
1,219409,-24.508705139160156,0.8407140374183655,-18.33391761779785,5.422173500061035
1,219410,-23.32896614074707,-45.463687896728516,-20.198713302612305,-8.736966133117676
1,219413,8.757246017456055,34.2734489440918,0.7722557187080383,-7.515590190887451
1,219414,28.461944580078125,91.18102264404297,37.0860710144043,17.92558479309082
1,219417,30.255844116210938,-78.66018676757812,-8.371246337890625,-1.7225568294525146
1,219418,0.9108743071556091,-137.4460906982422,-30.13729476928711,-8.005533218383789
1,219421,-41.45046615600586,29.739248275756836,-1.2222901582717896,17.47847557067871
1,219422,-25.21542739868164,112.79700469970703,10.242297172546387,-11.44056224822998
1,219425,19.013259887695312,4.9171247482299805,9.565943717956543,-18.22772979736328
1,219426,-11.75612735748291,-89.05953216552734,1.156514286994934,4.050163745880127
1,219429,7.630186557769775,117.6670913696289,0.46978694200515747,-0.957740068435669
1,219430,78.44731140136719,157.72962951660156,5.475246906280518,23.62321662902832
1,219433,9.281023025512695,-143.72703552246094,16.745817184448242,21.28221893310547
1,219434,-44.05214309692383,-162.80551147460938,-9.500179290771484,-27.307296752929688
1,219437,-22.284957885742188,-10.813115119934082,-33.32514572143555,-8.51768684387207
1,219438,-24.215192794799805,67.0567398071289,-5.44776725769043,19.97456932067871
1,219441,-15.2743558883667,50.00830841064453,16.7685604095459,-21.61886215209961
1,219442,39.075416564941406,-7.709414482116699,15.645731925964355,-20.52215576171875
1,219445,21.477214813232422,7.910673141479492,-7.413876533508301,11.961321830749512
1,219446,-28.78240394592285,-27.154483795166016,0.2388170212507248,17.182693481445312
1,219449,0.5542805790901184,-31.899383544921875,15.700891494750977,8.781455039978027
1,219450,-10.539982795715332,-14.05829906463623,-29.796592712402344,-14.470205307006836
1,219453,-36.65959548950195,6.82739782333374,-18.941068649291992,-1.9543204307556152
1,219454,9.03078556060791,99.7691421508789,35.183837890625,3.7493860721588135
1,219457,66.90547943115234,51.512271881103516,0.354342520236969,-23.470094680786133
1,219458,35.83967971801758,-48.336360931396484,-13.948857307434082,2.262197732925415
1,219461,-49.83734893798828,-55.309810638427734,20.111974716186523,22.595096588134766
1,219462,-43.00025177001953,-22.571077346801758,2.4781789779663086,-1.1272602081298828
1,219465,29.085247039794922,-48.89128112792969,-4.041053771972656,16.831321716308594
1,219466,41.66408920288086,-17.576885223388672,-10.908697128295898,5.529946327209473
1,219469,-9.818089485168457,180.90115356445312,-17.44852638244629,-26.21001434326172
1,219470,-25.577648162841797,41.57416534423828,0.23011496663093567,-3.9538991451263428
1,219473,-3.3136909008026123,-147.88282775878906,6.238251686096191,6.316924571990967
1,219474,-10.193151473999023,-8.358642578125,21.982913970947266,-14.80422306060791
1,219477,1.3236007690429688,29.86566734313965,23.219972610473633,3.26646089553833
1,219478,24.409385681152344,2.5105369091033936,-24.20449447631836,29.396671295166016
1,219481,16.525203704833984,0.608311653137207,-23.350357055664062,9.937247276306152
1,219482,-2.517054319381714,-22.69635772705078,24.14874839782715,-7.634525299072266
1,219485,-35.98350143432617,-3.3553943634033203,7.644315242767334,-22.43290901184082
1,219486,-7.240090847015381,7.117006778717041,-10.039891242980957,-5.508480548858643
1,219489,36.549076080322266,-4.231034755706787,0.8968633413314819,16.992414474487305
1,219490,-30.271974563598633,-13.825372695922852,-24.563962936401367,-2.5000672340393066
1,219493,-32.918819427490234,-1.8559074401855469,-3.6814281940460205,-14.848055839538574
1,219494,25.736759185791016,7.503330230712891,34.91606903076172,1.0529654026031494
1,219497,-32.31147003173828,-25.34646987915039,-1.19475519657135,17.379684448242188
1,219498,-17.709550857543945,59.2478141784668,-27.930889129638672,-17.626422882080078
1,219501,117.42485809326172,167.18685913085938,-9.196187019348145,-25.145633697509766
1,219502,55.93269729614258,-4.959381580352783,17.986703872680664,31.288721084594727
1,219505,-76.16781616210938,-201.35301208496094,9.868582725524902,48.043033599853516
1,219506,-44.91510009765625,-80.83617401123047,5.384265899658203,-2.7708468437194824
1,219509,5.069425582885742,65.06824493408203,7.708322525024414,-48.65581512451172
1,219510,9.965766906738281,-98.77486419677734,-13.33062744140625,-7.667355537414551
1,219513,-10.624040603637695,-77.50862121582031,-11.57434368133545,5.480754852294922
1,219514,-2.2134454250335693,338.7106018066406,14.231305122375488,-7.586953639984131
1,219517,24.375568389892578,337.0796203613281,8.699530601501465,27.46521759033203
1,219518,1.2685792446136475,-168.0757598876953,-11.15804672241211,-2.0665605068206787
1,219521,-26.510149002075195,-408.7419128417969,-20.78835678100586,-27.755674362182617
1,219522,-5.776824951171875,-75.27176666259766,3.9588351249694824,13.059908866882324
1,219525,62.382606506347656,68.26817321777344,30.319820404052734,6.134384632110596
1,219526,45.59709548950195,-67.52815246582031,-1.177225112915039,11.096895217895508
1,219529,-90.34896850585938,202.6999969482422,-6.2665486335754395,5.966399192810059
1,219530,-72.91702270507812,208.86907958984375,-19.414743423461914,-39.63027572631836
1,219533,61.056297302246094,-137.5007781982422,6.454732894897461,11.842219352722168
1,219534,28.15414047241211,-160.6474151611328,25.471525192260742,40.838375091552734
1,219537,-6.763982772827148,-94.04914855957031,-27.649492263793945,-20.987350463867188
1,219538,-30.74064826965332,-67.06177520751953,-3.1178359985351562,-22.19881248474121
1,219541,-68.8353271484375,80.36258697509766,-6.352712631225586,-8.854323387145996
1,219542,50.95560073852539,214.75131225585938,-0.35489633679389954,-21.025741577148438
1,219545,98.94035339355469,357.66259765625,20.251672744750977,21.371402740478516
1,219546,3.412848949432373,160.1417694091797,-18.450510025024414,34.304630279541016
1,219549,-57.278350830078125,-421.275390625,13.17685317993164,-1.735475778579712
1,219550,-40.731056213378906,-325.55706787109375,11.336241722106934,1.7518260478973389
1,219553,52.66721725463867,-26.442380905151367,-10.756793022155762,10.946975708007812
1,219554,48.23441696166992,-148.9631805419922,22.579084396362305,-2.9801957607269287
1,219557,-62.908023834228516,116.29759216308594,-24.71337890625,-29.990758895874023
1,219558,-36.193294525146484,332.0672607421875,-30.851539611816406,-17.568613052368164
1,219562,1.8340636491775513,51.206600189208984,27.048158645629883,31.954265594482422
1,219562,-29.017757415771484,-91.82717895507812,8.348234176635742,-2.54445481300354
1,219565,5.268875598907471,-60.2962532043457,-2.3112289905548096,-24.545392990112305
1,219566,62.220497131347656,11.455924034118652,6.95095682144165,1.6235365867614746
1,219569,71.32489013671875,47.78281021118164,3.785074234008789,23.32085609436035
1,219570,10.040142059326172,-31.599014282226562,-11.218697547912598,23.36711883544922
1,219573,-40.9365348815918,-35.214725494384766,-7.82802152633667,-8.542878150939941
1,219574,-30.528844833374023,28.611684799194336,20.14544677734375,-5.306715488433838
1,219577,-32.333045959472656,-29.98940086364746,8.228358268737793,-13.368106842041016
1,219578,-16.487995147705078,-79.13557434082031,-23.3189697265625,-5.158457279205322
1,219581,24.590946197509766,95.17916870117188,-4.099158763885498,19.937658309936523
1,219582,-15.294939041137695,90.03545379638672,6.32396125793457,3.9469189643859863
1,219585,-22.526395797729492,-60.85186767578125,-0.27350375056266785,-40.3505859375
1,219586,40.2774772644043,-36.73168182373047,21.858470916748047,-16.136844635009766
1,219589,35.83838653564453,-61.39735794067383,-4.870187759399414,49.37531280517578
1,219590,-27.347379684448242,-18.1124267578125,-37.13169860839844,-9.986895561218262
1,219593,-40.6328010559082,209.7730255126953,7.4912590980529785,-21.927066802978516
1,219594,35.71652603149414,112.9645004272461,37.614593505859375,29.139585494995117
1,219597,48.364784240722656,-196.79660034179688,-9.83777141571045,-1.4985458850860596
1,219598,-10.444586753845215,-164.3745880126953,-15.324522018432617,-0.5464127063751221
1,219601,9.934203147888184,-142.4009246826172,6.451890468597412,1.014859676361084
1,219602,5.675820350646973,107.70468139648438,0.8365674614906311,-1.1943951845169067
1,219605,-70.66482543945312,472.291259765625,0.08586431294679642,10.723148345947266
1,219606,-47.5850830078125,67.2524642944336,-37.79732894897461,-28.60458755493164
1,219609,31.87134552001953,-321.5165100097656,3.2151808738708496,-7.256466865539551
1,219610,44.909542083740234,-145.01927185058594,47.98076248168945,23.952198028564453
1,219613,45.53905487060547,-91.88447570800781,1.8289786577224731,7.911899566650391
1,219614,0.644401490688324,-49.69682693481445,-6.50650691986084,2.7495617866516113
1,219617,-99.6988296508789,235.38824462890625,-36.50811004638672,-33.71733856201172
1,219618,-25.86518096923828,101.3203353881836,-11.82254409790039,-5.764970779418945
1,219621,98.0597152709961,-232.71347045898438,35.73225021362305,13.717484474182129
1,219622,-34.44932174682617,-154.43588256835938,-0.24615751206874847,6.83725118637085
1,219625,-109.21424102783203,90.03706359863281,-3.862473726272583,22.06414794921875
1,219626,75.13699340820312,268.6376647949219,15.956925392150879,-19.460573196411133
1,219629,128.95657348632812,235.6372528076172,-5.877148151397705,-2.522082567214966
1,219630,-15.370291709899902,-28.98187255859375,-23.28804588317871,16.427146911621094
1,219633,-49.012577056884766,-218.36703491210938,5.895188808441162,-19.7137508392334
1,219634,-16.356679916381836,-100.58019256591797,14.620094299316406,13.928091049194336
1,219637,-24.040634155273438,40.10751724243164,1.7788928747177124,19.241313934326172
1,219638,4.659152984619141,27.95999526977539,-5.3816447257995605,-30.50632667541504
1,219641,27.862899780273438,-58.8040885925293,4.73386287689209,1.071711540222168
1,219642,5.71585750579834,-90.76885986328125,0.3568638861179352,9.847114562988281
1,219645,-43.03449630737305,-50.58612823486328,-27.916667938232422,-41.646427154541016
1,219646,-27.058942794799805,17.89813232421875,7.097998142242432,-8.275835990905762
1,219649,33.14581298828125,101.1700668334961,29.341350555419922,38.27031707763672
1,219650,0.2047135829925537,49.64264678955078,-3.7346274852752686,11.18271541595459
1,219653,-32.94027328491211,3.566071033477783,-21.72352409362793,-15.774184226989746
1,219654,33.84501266479492,90.90037536621094,4.204992294311523,4.718809604644775
1,219657,61.27634048461914,97.2332992553711,19.791595458984375,34.00605773925781
1,219658,-2.0412561893463135,-23.931333541870117,-19.48067855834961,-11.50967788696289
1,219661,-40.79179382324219,-93.00691223144531,-9.410992622375488,-41.03646469116211
1,219662,-7.675873279571533,-128.69473266601562,46.38920974731445,31.907913208007812
1,219665,25.50632667541504,-79.8946533203125,-2.1574935913085938,20.177730560302734
1,219666,-12.995926856994629,76.71533203125,-45.876014709472656,-33.899436950683594
1,219669,-39.83833312988281,51.50178527832031,5.762914657592773,-12.310450553894043
1,219670,3.371284246444702,2.3899405002593994,-12.03377628326416,-6.2916436195373535
1,219673,40.840755462646484,14.286202430725098,11.144004821777344,10.352429389953613
1,219674,-6.181441783905029,-79.58444213867188,44.2410774230957,39.15243911743164
1,219677,-31.43703269958496,-29.004589080810547,-39.287349700927734,-16.448726654052734
1,219678,49.06551742553711,179.7254638671875,-4.3040666580200195,-49.624202728271484
1,219681,16.032724380493164,115.1449966430664,33.79374694824219,49.86019515991211
1,219682,-27.382654190063477,-127.81623077392578,-27.82249641418457,51.04935836791992
1,219685,24.431976318359375,-109.87716674804688,8.440024375915527,-34.93620300292969
1,219686,-1.0354729890823364,-164.84805297851562,3.073254346847534,-12.734869003295898
1,219689,-42.76685333251953,-196.01483154296875,-28.85386848449707,-7.849920749664307
1,219690,-61.3531608581543,214.14414978027344,12.388891220092773,-34.41566467285156
1,219693,19.019290924072266,475.60211181640625,20.490070343017578,-9.191045761108398
1,219694,83.2785873413086,185.74110412597656,16.532062530517578,4.900028228759766
1,219697,-23.515380859375,-340.98455810546875,-14.746208190917969,21.644737243652344
1,219698,-52.25511169433594,-354.7077941894531,-24.699462890625,15.066766738891602
1,219701,27.95061683654785,110.08381652832031,25.255023956298828,2.787524700164795
1,219702,39.5777702331543,196.2505340576172,-13.989548683166504,9.548081398010254
1,219705,-16.961626052856445,-31.23455238342285,-28.972063064575195,-29.306915283203125
1,219706,-32.83320236206055,-61.332664489746094,56.466331481933594,-11.255499839782715
1,219709,38.59828567504883,-55.487178802490234,-3.0214083194732666,28.038227081298828
1,219710,36.3714485168457,-207.69078063964844,-39.172245025634766,0.8075098991394043
1,219713,-76.42569732666016,10.41436767578125,35.477256774902344,7.161455154418945
1,219715,-49.46527862548828,329.4615783691406,-10.456271171569824,34.6132698059082
1,219717,57.76533508300781,117.6982650756836,-38.80830764770508,-14.604843139648438
1,219719,34.245208740234375,-14.134513854980469,21.317968368530273,-54.60177230834961
1,219721,-4.264676094055176,46.10316848754883,25.370664596557617,-4.416860103607178
1,219723,17.57923126220703,-84.13501739501953,-15.747186660766602,30.928773880004883
