Aktueller Finger,timestamp_ms,sensor_0,sensor_1,sensor_2,sensor_3
0,48661,2375.36328125,2355.625,2357.091796875,2378.9716796875
0,48663,2163.162841796875,2132.5087890625,2114.343994140625,2130.7763671875
0,48665,-2188.122314453125,-2168.635498046875,-2181.064453125,-2213.052734375
0,48667,-1352.4149169921875,-1315.4814453125,-1275.70458984375,-1296.0860595703125
0,48669,506.3479919433594,485.3728332519531,492.5107727050781,516.6656494140625
0,48671,-265.0406188964844,-283.4127197265625,-318.29962158203125,-297.3403015136719
0,48673,-249.964599609375,-212.4127197265625,-210.2154541015625,-214.70677185058594
0,48674,-290.0458679199219,-275.5592346191406,-255.5220489501953,-260.989013671875
0,48677,-422.1039733886719,-425.9374084472656,-418.0356140136719,-461.82525634765625
0,48678,-455.7611389160156,-455.43768310546875,-497.26519775390625,-502.5249938964844
0,48681,-408.51910400390625,-433.5514831542969,-442.1026916503906,-370.173583984375
0,48682,-260.800537109375,-239.22340393066406,-183.4124298095703,-208.04234313964844
0,48685,-29.73431968688965,-5.202630043029785,-33.77693176269531,-61.362274169921875
0,48686,169.48910522460938,140.65023803710938,138.29010009765625,147.74234008789062
0,48689,301.30352783203125,280.9247131347656,320.7709045410156,300.6806945800781
0,48690,283.7357177734375,291.1712341308594,264.9724426269531,280.35369873046875
0,48693,187.00302124023438,191.66099548339844,200.9383087158203,196.50140380859375
0,48694,79.21453857421875,56.52980041503906,69.9166259765625,65.40573120117188
0,48697,-110.53327941894531,-63.03064727783203,-109.2254638671875,-106.95548248291016
0,48698,-161.94239807128906,-127.62513732910156,-141.56907653808594,-132.32579040527344
0,48701,-114.51847076416016,-193.0525665283203,-132.87112426757812,-124.35313415527344
0,48702,-91.86848449707031,-98.6849594116211,-104.68144226074219,-104.0830078125
0,48705,23.050060272216797,47.56901168823242,15.05455493927002,10.56229305267334
0,48706,126.21651458740234,95.48407745361328,132.50050354003906,113.62451171875
0,48709,132.6668701171875,160.48687744140625,174.2646942138672,188.87454223632812
0,48710,164.07398986816406,169.0264434814453,141.42784118652344,163.50840759277344
0,48713,136.4706573486328,110.7179946899414,65.0637435913086,78.29846954345703
0,48715,-4.300816059112549,31.46145248413086,27.703227996826172,1.2572051286697388
0,48717,-80.94599914550781,-104.64373016357422,-47.063743591308594,-58.23870849609375
0,48719,-105.91326904296875,-140.36354064941406,-115.64860534667969,-121.5679931640625
0,48721,-125.45359802246094,-81.404296875,-103.02808380126953,-120.33446502685547
0,48723,-82.46333312988281,-70.74348449707031,-88.62293243408203,-51.635108947753906
0,48725,-5.28643798828125,-0.7736737728118896,-4.969295978546143,-7.182619094848633
0,48727,37.35078430175781,64.31433868408203,72.10245513916016,40.65812683105469
0,48730,99.41327667236328,92.20519256591797,55.5912971496582,92.55997467041016
0,48731,97.74539184570312,96.38038635253906,83.13602447509766,109.50577545166016
0,48732,35.240501403808594,31.99017333984375,84.37457275390625,43.347869873046875
0,48735,30.47311782836914,-13.918501853942871,-13.916919708251953,-26.86888313293457
0,48736,-46.63814163208008,-39.402957916259766,-53.172664642333984,-45.8785400390625
0,48739,-97.53414916992188,-75.43653869628906,-68.54523468017578,-57.878238677978516
0,48740,-52.5047607421875,-78.95552825927734,-77.32242584228516,-77.10797882080078
0,48743,-54.311546325683594,-33.10529708862305,-32.0224723815918,-51.525733947753906
0,48744,-25.521089553833008,1.9622511863708496,-24.851369857788086,18.159582138061523
0,48747,70.67064666748047,44.09323501586914,20.97137451171875,37.57105255126953
0,48748,96.81216430664062,59.91582489013672,103.65153503417969,47.25157165527344
0,48751,25.6610050201416,39.24476623535156,58.201942443847656,53.98509979248047
0,48752,-19.415857315063477,18.61511993408203,7.541665077209473,39.027591705322266
0,48755,18.770532608032227,3.0163938999176025,9.784717559814453,57.78728485107422
0,48756,14.393481254577637,-14.633659362792969,-30.881484985351562,-70.2694320678711
0,48759,-57.716487884521484,-56.72896194458008,-43.00236129760742,-116.57361602783203
0,48760,-47.612606048583984,-25.896621704101562,-35.10415267944336,-1.8251805305480957
0,48763,-17.417842864990234,-7.03650426864624,-10.448920249938965,-11.573131561279297
0,48764,-14.687158584594727,-20.984642028808594,-5.721018314361572,14.958793640136719
0,48767,28.322893142700195,28.509679794311523,9.52448558807373,5.826986312866211
0,48768,46.28769302368164,27.712636947631836,38.97715377807617,15.509064674377441
0,48771,35.95448684692383,21.886005401611328,27.18850326538086,46.78181457519531
0,48772,2.9213552474975586,31.007314682006836,27.758182525634766,7.724122524261475
0,48775,-7.29683780670166,-2.0823094844818115,-1.311519980430603,6.482724666595459
0,48776,2.173246383666992,-9.585955619812012,-33.95098114013672,-29.360313415527344
0,48780,-40.472679138183594,-34.39242935180664,-20.538238525390625,-13.507999420166016
0,48781,-35.82480239868164,-23.73682403564453,-21.808700561523438,23.426227569580078
0,48783,-11.989255905151367,-0.5639459490776062,-28.22219467163086,-40.6515007019043
0,48785,2.264031410217285,-25.19106674194336,9.77056884765625,-26.069950103759766
0,48787,29.520496368408203,6.208731174468994,14.04047679901123,49.51520538330078
0,48789,11.0989990234375,36.69227981567383,2.909196138381958,-9.504091262817383
0,48791,3.991485357284546,20.08967399597168,23.96755599975586,-14.030895233154297
0,48793,30.3110294342041,7.553701400756836,46.89431381225586,65.90116882324219
0,48795,7.105071067810059,-4.7315545082092285,7.775112152099609,-1.1558623313903809
0,48797,-26.51331901550293,-6.196689128875732,-34.47178268432617,-30.374197006225586
0,48799,-12.09632396697998,0.47948673367500305,-16.039323806762695,-1.7639163732528687
0,48801,-5.644662380218506,-23.65119171142578,-27.25514030456543,-17.541454315185547
0,48803,-13.516798973083496,-34.160247802734375,-15.22574520111084,7.706109046936035
0,48805,1.0444872379302979,21.29442596435547,11.844749450683594,-9.7509126663208
0,48807,2.839550733566284,34.395023345947266,11.367403984069824,-24.150959014892578
0,48809,-1.3002972602844238,-4.896510124206543,11.864416122436523,19.346525192260742
0,48811,29.048538208007812,2.897059440612793,23.01169776916504,34.91322708129883
0,48813,26.564374923706055,11.773253440856934,18.491823196411133,30.74439239501953
0,48815,-25.162609100341797,-0.5950027108192444,-14.938008308410645,-17.027111053466797
0,48817,-18.39767074584961,-5.906860828399658,-24.951467514038086,-39.67801284790039
0,48819,11.356583595275879,-18.24142074584961,-14.416419982910156,9.027730941772461
0,48821,-23.602807998657227,-24.686378479003906,12.319831848144531,-4.12133264541626
0,48823,-18.82017707824707,12.768030166625977,11.067389488220215,-19.494754791259766
0,48825,21.94918441772461,21.051944732666016,-8.273983001708984,12.209305763244629
0,48827,9.80378246307373,-4.497314453125,4.977245330810547,2.2784438133239746
0,48828,-14.451838493347168,-1.5135301351547241,2.8863935470581055,-9.300769805908203
0,48831,18.630922317504883,7.507632732391357,0.5056025981903076,11.437238693237305
0,48832,22.36691665649414,12.640639305114746,-4.601945877075195,7.028409957885742
0,48835,-3.9055421352386475,8.213027000427246,-17.457538604736328,-4.55535364151001
0,48836,5.767049789428711,-12.485017776489258,1.8531657457351685,-5.735420227050781
0,48839,-24.854793548583984,-22.026315689086914,13.137080192565918,2.168501377105713
0,48840,-7.159505844116211,6.021223545074463,-1.0742515325546265,-5.32106351852417
0,48843,21.175085067749023,1.985769510269165,-2.0988667011260986,6.142326831817627
0,48845,-13.280517578125,-14.47620677947998,-1.339411735534668,15.009504318237305
0,48847,-15.49256420135498,-7.400605201721191,-8.42713451385498,-19.617328643798828
0,48849,-3.8351669311523438,-12.574386596679688,-4.504281044006348,0.40654152631759644
0,48851,14.838946342468262,15.557236671447754,5.283975601196289,16.69825553894043
0,48853,21.401073455810547,12.784136772155762,8.908576011657715,13.353131294250488
0,48855,-14.851371765136719,0.6192900538444519,9.565576553344727,-19.322458267211914
0,48857,-18.16100311279297,7.579023361206055,3.602341413497925,-22.926410675048828
0,48859,7.2164411544799805,6.335165023803711,-8.610166549682617,42.7747802734375
0,48861,3.8700802326202393,10.648683547973633,-8.154449462890625,-13.664139747619629
0,48863,11.447468757629395,-18.261734008789062,-22.18929672241211,-47.95990753173828
0,48865,10.47879409790039,-12.487520217895508,8.988677024841309,43.249080657958984
0,48867,-33.756568908691406,-0.7660170793533325,37.13141632080078,20.602619171142578
0,48869,-2.1706924438476562,-0.3772321045398712,-6.954763412475586,-31.534456253051758
0,48871,31.351503372192383,13.873344421386719,-9.772464752197266,10.655381202697754
0,48873,-8.126790046691895,6.986478805541992,-7.574746608734131,12.492548942565918
0,48875,-2.7939274311065674,9.261160850524902,-1.678328037261963,-14.360945701599121
0,48877,3.2072832584381104,-0.25710606575012207,22.324138641357422,-2.415062665939331
0,48879,0.9172752499580383,-16.561988830566406,12.325077056884766,15.48979377746582
0,48881,-5.161850452423096,-5.616882801055908,-27.955854415893555,-25.89405059814453
0,48883,-9.484895706176758,6.007278919219971,-17.29444694519043,-11.859563827514648
0,48885,1.515997290611267,-1.3417538404464722,18.55057144165039,29.77471160888672
0,48887,-2.9947028160095215,-14.796244621276855,-15.578875541687012,-6.304696083068848
0,48889,-5.88237190246582,6.235903739929199,6.888821125030518,12.413766860961914
0,48891,16.0092830657959,20.51837158203125,26.83150291442871,2.9004054069519043
0,48893,14.915491104125977,-1.6735399961471558,-23.526201248168945,-18.583463668823242
0,48895,-18.661767959594727,-11.277195930480957,1.420094609260559,21.144771575927734
0,48897,-0.06335175782442093,-2.599973678588867,11.347932815551758,-10.6083984375
0,48899,13.355222702026367,10.750141143798828,-2.1665706634521484,-21.750478744506836
0,48901,-9.291101455688477,12.18930435180664,17.154653549194336,23.211885452270508
0,48903,-6.10177755355835,-15.96654987335205,-25.220558166503906,-9.658324241638184
0,48905,1.8505908250808716,-12.512871742248535,-19.360706329345703,-7.63226318359375
0,48907,-1.1424651145935059,6.510727405548096,29.727298736572266,13.774486541748047
0,48909,9.605879783630371,-0.7952533960342407,-4.458174228668213,-29.681230545043945
0,48911,11.011350631713867,18.940271377563477,-8.635695457458496,71.16510772705078
0,48913,-13.936108589172363,-3.0992634296417236,14.490941047668457,137.99636840820312
0,48914,-15.275266647338867,-22.90839385986328,5.251084804534912,-58.06991958618164
0,48917,10.46284008026123,0.1824290007352829,3.6698567867279053,-224.0958251953125
0,48918,4.7926926612854,-7.993401527404785,-14.406947135925293,-110.41770935058594
0,48921,8.493522644042969,-3.794710636138916,-13.696733474731445,43.41545486450195
0,48922,2.8809549808502197,-0.975903332233429,-6.902745246887207,66.3062973022461
0,48925,-40.72236633300781,-8.64438247680664,11.442245483398438,166.1909942626953
0,48927,6.90488338470459,24.17200469970703,24.364900588989258,69.61591339111328
0,48929,44.300392150878906,22.844511032104492,-13.222478866577148,-148.75790405273438
0,48931,-15.331456184387207,-10.884143829345703,-35.27395248413086,-40.0616569519043
0,48933,-8.430956840515137,9.694426536560059,6.362140655517578,90.76390075683594
0,48935,7.73030948638916,-4.384217739105225,43.407386779785156,12.929362297058105
0,48937,-26.950233459472656,-19.99703598022461,-19.50995445251465,-97.0550308227539
0,48939,8.403031349182129,28.809709548950195,-22.5726318359375,7.895866394042969
0,48941,19.932392120361328,4.1055755615234375,33.44731521606445,167.74061584472656
0,48943,-17.84353256225586,-26.080904006958008,22.326631546020508,58.9639778137207
0,48945,4.721533298492432,13.296988487243652,-17.486328125,-243.50204467773438
0,48947,17.892669677734375,-2.9567975997924805,-24.241788864135742,-222.67068481445312
0,48949,-9.069734573364258,-10.137896537780762,8.220124244689941,174.47108459472656
0,48951,-10.574832916259766,20.39702796936035,-4.605268478393555,113.6507568359375
0,48953,0.8532122373580933,-23.776092529296875,-14.248980522155762,15.641057968139648
0,48955,-2.752814292907715,-23.873388290405273,6.700841903686523,220.46420288085938
0,48957,2.3119916915893555,26.857229232788086,12.626587867736816,11.986796379089355
0,48959,15.373682975769043,9.21203327178955,4.920054912567139,-382.9125061035156
0,48961,-2.38966965675354,-7.798155307769775,-16.299163818359375,-227.78387451171875
0,48963,-21.090030670166016,-4.509401321411133,-21.78253746032715,228.0540313720703
0,48965,-4.791214942932129,-8.014528274536133,20.960552215576172,156.64170837402344
0,48967,15.717066764831543,3.4486615657806396,18.419921875,-176.4078369140625
0,48969,28.019214630126953,20.918916702270508,-6.105979919433594,26.619672775268555
0,48971,-0.47461041808128357,0.3127298951148987,17.456693649291992,281.2633972167969
0,48973,-25.667064666748047,-25.178659439086914,-8.410773277282715,-47.61273956298828
0,48975,-20.338542938232422,-6.48862886428833,-16.50421905517578,-151.27845764160156
0,48977,4.302220821380615,19.680227279663086,7.93057107925415,-9.652077674865723
0,48979,8.276103019714355,-0.9030888080596924,-7.988361358642578,-36.070335388183594
0,48981,-15.110700607299805,-12.073958396911621,0.6939831376075745,142.7435302734375
0,48983,22.49628257751465,33.99150466918945,17.74907684326172,217.20855712890625
0,48985,35.39936447143555,18.68395233154297,-2.7508111000061035,-85.15206146240234
0,48987,-0.6056038737297058,-28.80854034423828,2.99957275390625,-195.01397705078125
0,48989,-36.95828628540039,-5.570643424987793,6.44819450378418,-19.97991943359375
0,48991,-25.63953399658203,-8.258922576904297,-20.56283187866211,16.42793083190918
0,48993,31.356666564941406,6.131899833679199,3.023681879043579,-60.61886978149414
0,48995,18.747745513916016,34.58500671386719,19.56405258178711,-33.579376220703125
0,48997,-6.723983287811279,-24.288949966430664,2.579296112060547,76.99008178710938
0,48999,-8.041523933410645,-25.7916259765625,-19.533899307250977,25.876535415649414
0,49001,2.2757151126861572,26.1873836517334,-30.099035263061523,25.863813400268555
0,49003,3.362105131149292,-6.07433557510376,-3.0671677589416504,120.755126953125
0,49004,-32.749271392822266,-42.965450286865234,6.304521560668945,-63.91117858886719
0,49007,-14.38995361328125,-7.8725080490112305,17.78464698791504,-136.91709899902344
0,49008,19.282777786254883,24.76978302001953,9.814456939697266,-38.22687911987305
0,49011,12.736141204833984,15.675638198852539,-9.075546264648438,-15.428465843200684
0,49012,3.061918258666992,10.917399406433105,12.841309547424316,16.733745574951172
0,49015,-2.2517759799957275,7.227086067199707,-1.3196161985397339,18.1854190826416
0,49016,-0.25595882534980774,-8.887730598449707,-12.067451477050781,-21.760757446289062
0,49019,12.331290245056152,-4.748835563659668,12.343815803527832,-121.72113800048828
0,49020,-1.9543601274490356,-3.978874444961548,-1.3613923788070679,201.42921447753906
0,49022,-34.45812225341797,-9.940237998962402,-6.970692157745361,396.32513427734375
0,49025,13.07457160949707,19.9841365814209,9.013981819152832,-213.67218017578125
0,49026,36.88140869140625,27.362321853637695,-6.380044937133789,-162.36761474609375
0,49029,-24.97052764892578,-4.264623641967773,0.3555200397968292,66.5627212524414
0,49030,-21.09417724609375,-27.35015106201172,-4.7649359703063965,-318.1358337402344
0,49033,35.596412658691406,-6.134884357452393,-13.335611343383789,110.78398895263672
0,49034,15.97187328338623,5.593059062957764,30.996747970581055,341.4698486328125
0,49037,-36.280906677246094,-25.51926612854004,-4.860127925872803,-189.2183074951172
0,49038,-13.196355819702148,-13.76381778717041,-44.95497131347656,-63.65546417236328
0,49041,20.19645881652832,29.188161849975586,28.581636428833008,214.75485229492188
0,49042,12.628037452697754,35.88778305053711,43.0880012512207,257.4395751953125
0,49045,3.277773141860962,0.32535022497177124,-49.157073974609375,-364.3448791503906
0,49046,-7.0825653076171875,-10.581134796142578,-26.412038803100586,-730.0267944335938
0,49049,-3.8695664405822754,-6.768707275390625,54.98875427246094,301.90887451171875
0,49050,8.960817337036133,-36.330875396728516,3.483592987060547,593.4676513671875
0,49053,-32.89727020263672,-51.653968811035156,-39.911834716796875,-190.48367309570312
0,49054,-49.802764892578125,11.180908203125,4.875243186950684,-357.9091491699219
0,49057,53.04898452758789,62.62434005737305,38.96547317504883,369.6366882324219
0,49058,64.29268646240234,44.09920120239258,17.49056625366211,421.9425048828125
0,49061,-24.223608016967773,24.75917625427246,-25.44784164428711,-487.0356750488281
0,49062,-14.993410110473633,-13.202407836914062,-25.910903930664062,-653.2490844726562
0,49065,-16.311012268066406,-46.124847412109375,13.873178482055664,803.9362182617188
0,49066,-9.114371299743652,-16.212324142456055,13.71514892578125,1054.26171875
0,49069,33.443931579589844,23.578264236450195,-14.135665893554688,-972.74658203125
0,49070,0.45634686946868896,2.311037302017212,-6.403446197509766,-1003.5228881835938
0,49073,-12.123268127441406,-12.48029899597168,-19.46448516845703,76.18524932861328
0,49074,12.08709716796875,-9.042648315429688,-30.47947120666504,498.2135925292969
0,49077,-42.59514617919922,-46.276878356933594,3.350902557373047,1047.66162109375
0,49078,-31.819189071655273,-14.170130729675293,20.316909790039062,451.63946533203125
0,49081,83.55644226074219,70.25947570800781,53.342594146728516,-1536.4580078125
0,49082,14.888672828674316,-1.6951560974121094,5.302309513092041,-2129.653564453125
0,49085,-101.3829345703125,-53.87791061401367,-57.398826599121094,791.0293579101562
0,49086,-31.853668212890625,44.83176803588867,31.832916259765625,2464.14306640625
0,49089,73.04346466064453,40.63739776611328,55.82038116455078,943.1304321289062
0,49090,68.62555694580078,2.6014606952667236,-16.092864990234375,-642.422607421875
0,49093,-66.95797729492188,64.73650360107422,-40.134490966796875,-1838.9735107421875
0,49094,-75.78284454345703,-37.13856506347656,-24.534500122070312,-826.7413940429688
0,49097,3.1403086185455322,-301.3828125,-8.785673141479492,1659.00634765625
0,49098,16.946422576904297,-256.1976623535156,-5.8129401206970215,1040.0670166015625
0,49101,279.0340881347656,696.9607543945312,119.7120590209961,-753.1754150390625
0,49102,541.077880859375,651.476318359375,90.57532501220703,-385.48016357421875
0,49105,-402.1297607421875,-785.838134765625,-188.2245635986328,-580.6863403320312
0,49106,-922.8023071289062,-481.9644775390625,-115.88186645507812,-866.6064453125
0,49109,253.221435546875,268.9792785644531,75.49864196777344,1372.9947509765625
0,49110,366.1616516113281,38.45841979980469,-1.333037257194519,1425.9136962890625
0,49113,-133.29434204101562,31.20844078063965,15.003618240356445,-1311.068359375
0,49114,54.595848083496094,125.78125,81.81930541992188,-742.7825927734375
0,49117,68.3061752319336,84.02312469482422,4.610865116119385,667.7529296875
0,49118,1.730757474899292,-47.1047248840332,-27.139890670776367,78.70459747314453
0,49121,-75.88887023925781,-76.14713287353516,-25.321229934692383,-128.05325317382812
0,49122,-109.39718627929688,-41.53350830078125,-5.632180690765381,-80.46478271484375
0,49125,80.903564453125,-22.345849990844727,8.544821739196777,1086.191162109375
0,49126,137.22947692871094,32.84307098388672,-4.390108585357666,233.93760681152344
0,49129,38.336917877197266,70.49589538574219,49.94062805175781,-4150.119140625
0,49130,29.852699279785156,5.171343803405762,16.459779739379883,-930.5952758789062
0,49133,-86.79592895507812,-88.19781494140625,-88.33329772949219,5519.4755859375
0,49135,-114.42774200439453,-35.79191970825195,-57.45172119140625,937.3637084960938
0,49137,8.409096717834473,52.2490119934082,56.75926971435547,-2797.96044921875
0,49139,32.44816970825195,25.860502243041992,41.557769775390625,493.04241943359375
0,49141,-17.01641845703125,-8.035420417785645,-16.45359992980957,136.76397705078125
0,49143,-17.26517677307129,-17.83792495727539,22.469261169433594,-666.374755859375
0,49145,38.97638702392578,-35.29833221435547,-21.028263092041016,90.70626068115234
0,49147,45.505496978759766,2.426295757293701,-29.0799560546875,103.29219818115234
0,49149,34.58531951904297,77.05590057373047,58.848114013671875,771.7208251953125
0,49151,-8.527073860168457,14.328582763671875,-4.793150901794434,-282.9835205078125
0,49153,-20.72212791442871,-22.317472457885742,-22.480159759521484,-1326.6109619140625
0,49155,13.740089416503906,50.02542495727539,8.3223295211792,511.43499755859375
0,49157,-23.91551399230957,-2.381510019302368,-14.55234432220459,899.3997192382812
0,49159,-32.59473419189453,-33.819210052490234,30.29841423034668,-466.588623046875
0,49161,-17.133686065673828,-17.582563400268555,31.994661331176758,-22.46876335144043
0,49163,-13.377409934997559,-67.64148712158203,-20.870344161987305,-250.28466796875
0,49165,34.90724182128906,-16.890209197998047,3.110605239868164,-603.6372680664062
0,49167,2.4835879802703857,-10.562602043151855,-81.915283203125,332.5965270996094
0,49169,-33.93321990966797,-21.93745994567871,-96.22534942626953,559.813232421875
0,49171,57.15804672241211,135.09474182128906,158.7979736328125,682.7001342773438
0,49173,48.25792694091797,76.76228332519531,77.27145385742188,37.91411590576172
0,49175,-29.81794548034668,-61.51127624511719,-88.1748046875,-873.5274658203125
0,49177,-43.755287170410156,-48.18650436401367,-16.048749923706055,-714.5413208007812
0,49179,6.819686412811279,-16.4921932220459,11.35436725616455,-79.67652130126953
0,49181,-14.657698631286621,-23.912981033325195,-4.095979690551758,834.8858032226562
0,49183,-54.809959411621094,-22.89284324645996,-24.5391788482666,655.4268188476562
0,49185,55.695621490478516,76.50228118896484,17.73845100402832,-188.1653289794922
0,49187,11.413233757019043,-7.55082368850708,5.790587425231934,-375.3612060546875
0,49189,-37.67225646972656,-57.48055648803711,-26.182598114013672,-761.4302978515625
0,49191,65.14013671875,72.73770141601562,11.283844947814941,552.621337890625
0,49193,34.374637603759766,22.361539840698242,20.89794158935547,1087.48046875
0,49195,-7.736252307891846,0.7662838101387024,22.364238739013672,-131.1313934326172
0,49197,-19.3469295501709,8.082035064697266,-5.318265914916992,-362.8918151855469
0,49199,-43.757877349853516,-84.55791473388672,-30.8166446685791,-2493.5
0,49201,-12.187192916870117,-47.68183898925781,-3.1561715602874756,-1118.1923828125
0,49203,-56.632259368896484,-20.925018310546875,-22.4890193939209,3590.1904296875
0,49205,5.970869064331055,35.66135787963867,6.575712203979492,2083.630126953125
0,49207,133.6513671875,145.95745849609375,63.56936264038086,-1403.13427734375
0,49209,26.677730560302734,13.560986518859863,-2.765467882156372,-1157.9605712890625
0,49211,-61.384613037109375,-74.53662872314453,-16.230600357055664,-48.38984680175781
0,49213,-33.6052360534668,1.064792513847351,12.410801887512207,14.433820724487305
0,49215,14.251446723937988,19.462167739868164,-5.462234020233154,158.6243896484375
0,49217,18.74466896057129,-20.78215217590332,2.9876692295074463,354.1634216308594
0,49219,-39.143943786621094,-50.85084533691406,-36.30592346191406,-702.1130981445312
0,49221,-24.516403198242188,-20.223012924194336,-40.51006317138672,-687.2542724609375
0,49223,45.03330993652344,5.766017913818359,15.997275352478027,822.566162109375
0,49225,9.231819152832031,1.3819841146469116,33.65061569213867,540.3795776367188
0,49226,-17.92481803894043,7.587859153747559,17.4410400390625,-92.51714324951172
0,49229,1.0146102905273438,40.83234405517578,0.020743807777762413,-262.0816345214844
0,49230,-23.183746337890625,19.32109260559082,14.979870796203613,-560.9194946289062
0,49233,37.854068756103516,8.290610313415527,-6.839393615722656,208.10911560058594
0,49234,30.926727294921875,0.20709791779518127,-27.000274658203125,490.59661865234375
0,49237,-29.856321334838867,-10.851969718933105,-7.0080108642578125,-37.064064025878906
0,49238,61.72602844238281,4.653048038482666,1.1837263107299805,249.5257568359375
0,49241,-53.8394775390625,-35.36699676513672,12.950210571289062,138.15939331054688
0,49242,-110.86698150634766,49.80609130859375,36.49024963378906,-367.6056823730469
0,49245,134.0935516357422,7.022840976715088,-6.772112846374512,-496.7768859863281
0,49246,-12.23644733428955,-116.21143341064453,-50.70963668823242,-396.7389221191406
0,49249,-122.62110137939453,21.41141700744629,-9.373114585876465,778.2357177734375
0,49250,67.21815490722656,50.63162612915039,18.83060646057129,668.3720703125
0,49253,19.910919189453125,-41.37652587890625,10.733203887939453,-1102.412109375
0,49254,-26.668556213378906,-19.9210147857666,-7.973148822784424,-518.2284545898438
0,49257,10.186120986938477,24.594085693359375,-8.025741577148438,1125.71142578125
0,49258,-1.1631838083267212,6.054375171661377,-9.825636863708496,766.243896484375
0,49263,39.601871490478516,65.43164825439453,35.95555114746094,-335.2892761230469
0,49263,34.72040939331055,59.085838317871094,50.4166374206543,-553.3448486328125
0,49264,-33.196720123291016,-64.68153381347656,-56.43476486206055,-576.5257568359375
0,49267,-19.376399993896484,-49.5319938659668,-52.73606491088867,-538.2431640625
0,49268,-22.21033477783203,-68.08040618896484,-6.7151360511779785,497.9247741699219
0,49271,-16.47780990600586,-1.3748040199279785,25.871885299682617,851.7532958984375
0,49272,68.02977752685547,144.0695343017578,88.9277114868164,125.45220947265625
0,49275,18.504886627197266,8.78243637084961,-15.9133882522583,-360.2312927246094
0,49276,-47.42857360839844,-73.37544250488281,-71.58448028564453,-327.6695861816406
0,49279,-17.691530227661133,3.1783945560455322,13.39026165008545,103.15934753417969
0,49280,3.5954463481903076,15.800020217895508,20.69654655456543,61.885616302490234
0,49283,37.25968551635742,22.33536148071289,19.354259490966797,897.5255737304688
0,49284,0.7701822519302368,-1.7751634120941162,-4.6455488204956055,-248.57952880859375
0,49287,-4.634182929992676,-3.7995100021362305,-27.90006446838379,-1514.2535400390625
0,49288,-12.951257705688477,-67.07794189453125,-32.29723358154297,1129.27734375
0,49291,-57.90751266479492,-75.38844299316406,1.9155734777450562,533.2557983398438
0,49292,49.833168029785156,107.20902252197266,64.4552230834961,-1093.852294921875
0,49295,59.88668441772461,61.90980529785156,-6.895432949066162,-174.04953002929688
0,49296,-45.9683723449707,-67.30609130859375,-38.05860137939453,151.74334716796875
0,49299,-57.21070098876953,-22.98478126525879,-6.116239547729492,165.12200927734375
0,49300,3.097938299179077,-5.262064456939697,-10.067461967468262,151.9717254638672
0,49303,23.311416625976562,13.843558311462402,10.763364791870117,131.47085571289062
0,49304,-2.5946271419525146,28.266002655029297,29.798402786254883,48.845375061035156
0,49307,17.23638343811035,27.76521873474121,16.28275489807129,23.662059783935547
0,49308,17.84087562561035,20.517602920532227,-23.628591537475586,-38.8983154296875
0,49311,27.11260986328125,-4.4065117835998535,19.815065383911133,-207.7859649658203
0,49312,3.5884764194488525,-13.60955810546875,44.57346725463867,-155.21536254882812
0,49315,-61.09962463378906,-56.58600997924805,-62.21064758300781,121.08547973632812
0,49316,-29.140392303466797,-14.608403205871582,-43.908939361572266,105.08551788330078
0,49319,12.17769718170166,8.432618141174316,34.60258483886719,-22.200334548950195
0,49320,13.426189422607422,-16.551729202270508,5.613956928253174,97.44532775878906
0,49323,24.221988677978516,40.415767669677734,-5.467827320098877,104.44633483886719
0,49324,-2.8702075481414795,13.621773719787598,-27.303319931030273,-36.283138275146484
0,49327,7.7234110832214355,-1.1358658075332642,24.8764591217041,-31.83119773864746
0,49328,38.01814651489258,20.032699584960938,52.54828643798828,71.22847747802734
0,49331,-15.203959465026855,-3.8372161388397217,-26.273910522460938,19.85681915283203
0,49332,-39.7413215637207,-21.1524715423584,-23.87885856628418,-228.3621368408203
0,49335,-4.218517303466797,-2.9963860511779785,-20.74591064453125,159.9413604736328
0,49336,1.957982063293457,-0.5336244106292725,3.6941373348236084,-305.9892578125
0,49339,-0.02903052419424057,-36.71845626831055,30.67706871032715,-1019.2183837890625
0,49340,-19.49063491821289,-39.72616195678711,-10.595841407775879,750.2689819335938
0,49343,-9.612688064575195,29.0786075592041,-11.287839889526367,1347.9698486328125
0,49344,51.87726974487305,83.40725708007812,8.566555976867676,-207.23416137695312
0,49347,21.3444766998291,21.37993049621582,17.55521583557129,-686.228271484375
0,49348,-26.4166316986084,-28.41254997253418,11.993885040283203,-115.0750503540039
0,49351,-2.6476192474365234,-1.9693368673324585,-5.845061302185059,485.2023620605469
0,49352,15.602789878845215,31.423011779785156,-6.43813943862915,59.09613800048828
0,49355,19.553035736083984,-26.524885177612305,-18.43268394470215,-846.3631591796875
0,49356,-23.402097702026367,-78.98535919189453,-16.71547508239746,-423.4281005859375
0,49359,-64.16117858886719,-38.44522476196289,-8.063467979431152,685.0944213867188
0,49360,-14.329107284545898,6.068107604980469,8.754373550415039,725.6129760742188
0,49363,57.026756286621094,80.13404083251953,38.62788772583008,-170.0336151123047
0,49364,48.633087158203125,80.52120971679688,27.417909622192383,-409.75079345703125
0,49367,-29.957595825195312,-42.18383026123047,-6.231045246124268,-120.64598846435547
0,49368,-40.31789016723633,-64.3709487915039,-27.337522506713867,-28.00946044921875
0,49371,13.460287094116211,29.951818466186523,-4.869987964630127,83.48182678222656
0,49372,36.222084045410156,29.673093795776367,15.506433486938477,138.06045532226562
0,49375,-0.6879787445068359,-17.194820404052734,-3.9069573879241943,156.19065856933594
0,49376,-17.957672119140625,38.14989471435547,-6.369065761566162,486.69940185546875
0,49379,14.743656158447266,26.382890701293945,11.256227493286133,-5.790014266967773
0,49380,1.8182854652404785,-59.9818229675293,-9.536139488220215,-1979.404541015625
0,49383,-73.84640502929688,-166.94265747070312,-85.29136657714844,-495.7242126464844
0,49385,-57.58755111694336,-84.26828002929688,-45.588523864746094,2321.345458984375
0,49387,93.87205505371094,229.80838012695312,101.26487731933594,448.4954833984375
0,49389,79.52354431152344,127.88330841064453,67.17160034179688,-925.3214721679688
0,49391,-39.46067810058594,-122.16996765136719,-35.92971420288086,-94.12163543701172
0,49393,-19.09878921508789,-18.536157608032227,-11.879984855651855,36.42445373535156
0,49395,11.648200988769531,30.826086044311523,-4.323792457580566,42.99087142944336
0,49397,-11.553214073181152,-21.419328689575195,-28.28281021118164,241.92333984375
0,49399,8.462827682495117,34.000335693359375,37.57334899902344,128.52206420898438
0,49401,3.363734006881714,31.355844497680664,54.13753128051758,-390.0961608886719
0,49404,-14.963071823120117,-27.535884857177734,-37.06134796142578,-280.6466064453125
0,49405,3.8055002689361572,-29.83502960205078,-48.05113220214844,297.048095703125
0,49406,-14.800382614135742,-22.282489776611328,14.129075050354004,157.3645782470703
0,49409,-7.536282062530518,-6.996359348297119,29.78316879272461,-402.8765563964844
0,49410,2.813894271850586,18.558486938476562,-20.98906898498535,-184.48684692382812
0,49413,-0.4141154885292053,-9.39633846282959,-42.42026138305664,195.791015625
0,49414,9.914806365966797,-29.982173919677734,28.857973098754883,136.73500061035156
0,49417,-6.001947402954102,25.028217315673828,40.85206985473633,129.8885955810547
0,49418,-6.978089809417725,15.320364952087402,-17.999235153198242,96.16427612304688
0,49421,9.794960975646973,5.7957682609558105,-4.364960193634033,-4.134273052215576
0,49422,24.758943557739258,33.234153747558594,19.63932991027832,-73.41384887695312
0,49425,24.33047866821289,5.621793746948242,4.7361226081848145,-122.36453247070312
0,49426,-25.547780990600586,-21.643590927124023,-7.584733009338379,-90.17420196533203
0,49429,-39.68798065185547,-34.57036590576172,-22.037111282348633,-18.13637351989746
0,49430,3.6862573623657227,0.30944207310676575,-24.810401916503906,6.401623725891113
0,49433,18.756423950195312,22.019207000732422,1.2663629055023193,45.74733352661133
0,49434,5.636476039886475,-15.438741683959961,8.93770980834961,91.49571990966797
0,49437,-10.3875150680542,-15.613363265991211,-9.176265716552734,98.95108032226562
0,49438,9.107993125915527,21.167449951171875,27.508283615112305,43.090763092041016
0,49441,27.965618133544922,39.10196304321289,39.77946853637695,-17.6218318939209
0,49442,-18.249053955078125,-2.1929843425750732,-41.10714340209961,-59.9963264465332
0,49445,-14.613929748535156,-39.62237548828125,-29.891910552978516,-75.95206451416016
0,49446,19.329378128051758,8.387589454650879,29.3012752532959,-55.941612243652344
0,49449,-19.04438018798828,2.734074831008911,21.878677368164062,-22.81768035888672
0,49450,-23.075298309326172,-42.167015075683594,12.75101375579834,23.958335876464844
0,49453,-2.3094213008880615,-7.5308966636657715,-14.219281196594238,16.54769515991211
0,49454,7.121826648712158,46.93208312988281,-26.866090774536133,18.488670349121094
0,49457,38.212440490722656,57.93294906616211,-12.443093299865723,66.34037017822266
0,49458,83.65525817871094,-7.4139251708984375,9.668095588684082,55.53957748413086
0,49461,-40.36344528198242,-53.642860412597656,26.114892959594727,-15.915176391601562
0,49462,-148.16262817382812,-25.999555587768555,-12.844186782836914,-41.905181884765625
0,49465,26.149864196777344,1.4051355123519897,-24.876670837402344,-41.705406188964844
0,49466,63.377044677734375,37.18567657470703,12.97233772277832,-37.348812103271484
0,49469,-4.445427894592285,-3.0961458683013916,12.865336418151855,-7.811723232269287
0,49470,13.76207160949707,-67.39472198486328,-13.190942764282227,1.964367389678955
0,49473,48.041847229003906,54.093711853027344,-3.922569513320923,18.789941787719727
0,49474,-52.18561935424805,71.31535339355469,7.204901695251465,25.674808502197266
0,49477,-117.15069580078125,-40.990760803222656,-3.1709530353546143,32.54998016357422
0,49478,74.11849212646484,-42.171783447265625,7.353777885437012,32.39175033569336
0,49481,45.63267135620117,16.322290420532227,21.698713302612305,0.6716554760932922
0,49482,70.59152221679688,21.141088485717773,6.229892730712891,-20.04412841796875
0,49485,34.394710540771484,-56.12259292602539,-38.935890197753906,-53.694068908691406
0,49486,-186.18563842773438,2.429550886154175,-11.68333911895752,-41.013633728027344
0,49489,-19.633028030395508,77.95979309082031,29.291797637939453,13.506251335144043
0,49490,105.69720458984375,-13.658538818359375,-11.704584121704102,34.89415740966797
0,49493,9.671186447143555,-74.52421569824219,-4.884749412536621,17.972230911254883
0,49494,-34.83755874633789,3.5338351726531982,1.0243449211120605,-4.6022562980651855
0,49497,4.376249313354492,35.554080963134766,-4.419756889343262,8.656891822814941
0,49498,-10.958629608154297,-22.80268096923828,31.889936447143555,18.596012115478516
0,49501,-8.371478080749512,8.959848403930664,14.464083671569824,-3.132946014404297
0,49502,2.5794544219970703,75.08738708496094,-13.760171890258789,-1.9336669445037842
0,49505,12.965209007263184,0.2791641354560852,-24.396881103515625,-26.196733474731445
0,49506,64.3902359008789,-82.06016540527344,-4.844204425811768,-33.848060607910156
0,49509,4.138741493225098,9.999385833740234,28.486230850219727,29.305585861206055
0,49510,-40.10491943359375,41.3591194152832,2.8236799240112305,-0.593306303024292
0,49513,-30.952022552490234,-9.674304008483887,-35.426029205322266,-9.639307975769043
0,49514,0.8959020972251892,-0.3941763639450073,-0.34841248393058777,5.554208755493164
0,49517,-3.134058952331543,-21.619985580444336,44.9942741394043,2.374596357345581
0,49518,-3.944819211959839,-10.382397651672363,-24.536516189575195,26.80476951599121
0,49521,14.036799430847168,22.280363082885742,-27.79306411743164,-20.819963455200195
0,49522,-5.148582458496094,5.107180595397949,37.9527702331543,-7.112985134124756
0,49525,3.464712619781494,-10.543384552001953,-19.15952491760254,12.357406616210938
0,49526,5.155101299285889,6.488864421844482,-14.42998218536377,-22.330678939819336
0,49529,2.3498525619506836,3.78666090965271,17.393041610717773,8.583389282226562
0,49530,8.72502613067627,-8.911892890930176,-12.208083152770996,8.845052719116211
0,49533,-15.695710182189941,-10.291491508483887,15.944835662841797,-17.56266975402832
0,49534,1.1503565311431885,-15.07576847076416,-3.3430795669555664,-25.84954261779785
0,49537,8.387711524963379,4.189672470092773,-13.510416030883789,5.4551310539245605
0,49538,-14.742316246032715,8.041247367858887,16.31078338623047,46.038021087646484
0,49541,33.11054992675781,0.9517092108726501,-9.576759338378906,18.60655403137207
0,49542,-8.579809188842773,4.478763103485107,17.3665771484375,-19.476318359375
0,49545,-42.62346267700195,11.380374908447266,15.497936248779297,-20.603885650634766
0,49547,29.7544002532959,18.98345947265625,-23.845945358276367,5.971922874450684
0,49549,11.796758651733398,4.2752838134765625,10.434762954711914,10.772076606750488
0,49551,-25.024391174316406,-26.172016143798828,-1.1371128559112549,-8.681501388549805
0,49553,-9.616682052612305,-26.92201805114746,-29.478927612304688,-3.323258399963379
0,49555,9.274785995483398,-6.130766868591309,13.153310775756836,11.404440879821777
0,49558,17.846446990966797,21.651485443115234,10.29564380645752,7.91455078125
0,49560,-2.0772652626037598,29.87099266052246,-19.53880500793457,-0.9888695478439331
0,49561,-3.1408891677856445,-11.968649864196777,-2.026146173477173,-13.89427661895752
0,49563,13.795417785644531,-31.20806312561035,4.446117401123047,-2.403092861175537
0,49565,-3.9043126106262207,27.11797332763672,18.084070205688477,6.670914173126221
0,49567,-15.379371643066406,22.278682708740234,-1.1538066864013672,-18.406679153442383
0,49569,5.011631488800049,-36.287872314453125,-4.077070713043213,27.619964599609375
0,49571,23.720640182495117,6.180389404296875,30.812179565429688,41.900691986083984
0,49573,-16.249786376953125,14.0890474319458,-23.68393898010254,-48.267704010009766
0,49575,-32.78437805175781,-20.0301513671875,-34.182193756103516,-59.457035064697266
0,49577,22.186037063598633,-1.065930962562561,23.818281173706055,12.604208946228027
0,49579,16.910140991210938,8.39002513885498,20.985260009765625,38.201786041259766
0,49581,-22.519996643066406,4.348504543304443,-16.44078254699707,5.157186031341553
0,49583,-14.81235122680664,2.827646017074585,-46.515071868896484,-4.2694010734558105
0,49585,35.19760513305664,3.2659761905670166,24.17048454284668,5.142160892486572
0,49587,16.253215789794922,4.891505718231201,60.615814208984375,-10.883947372436523
0,49589,-39.670494079589844,-9.829435348510742,-27.624038696289062,-26.013059616088867
0,49591,49.09172058105469,-27.423221588134766,-18.4223575592041,22.916433334350586
0,49593,8.553360939025879,-4.451044082641602,6.725174903869629,37.06627655029297
0,49595,-91.8723373413086,29.858675003051758,-4.501522541046143,2.845761775970459
0,49597,9.267801284790039,9.918542861938477,7.471960544586182,14.16491985321045
0,49599,57.59300994873047,-0.7042879462242126,-0.5779056549072266,-29.17890167236328
0,49601,18.659629821777344,13.385157585144043,23.7531795501709,-41.69206237792969
0,49603,-37.604286193847656,-14.752525329589844,-0.6069754362106323,29.574609756469727
0,49605,-31.86936378479004,-14.711654663085938,-45.28179931640625,10.67337417602539
0,49607,12.781962394714355,1.089816689491272,1.1371597051620483,-28.02691650390625
0,49609,5.324394226074219,-6.7048563957214355,16.823226928710938,-3.8383615016937256
0,49611,-6.537412643432617,8.120445251464844,-7.564528465270996,-16.721071243286133
0,49613,1.8613951206207275,9.947962760925293,-2.234821081161499,-14.626261711120605
0,49615,24.762849807739258,-2.647614002227783,21.561830520629883,67.27449035644531
0,49617,9.26984977722168,-5.049335956573486,3.6158361434936523,48.68852233886719
0,49619,-26.02920913696289,-6.295007228851318,-24.192279815673828,-60.967613220214844
0,49621,2.718487501144409,-3.4027557373046875,19.38387680053711,-22.364294052124023
0,49623,16.746198654174805,1.1527448892593384,4.239193439483643,28.289222717285156
0,49625,-18.001131057739258,10.357808113098145,-33.009674072265625,-20.021657943725586
0,49627,3.550201654434204,4.544780254364014,8.996539115905762,8.507312774658203
0,49629,-2.1599690914154053,0.9972739219665527,10.819219589233398,18.712793350219727
0,49631,-4.337240695953369,5.537110328674316,-0.31387466192245483,5.274745464324951
0,49633,16.117536544799805,-17.49115562438965,12.961092948913574,-8.640787124633789
0,49635,-5.897072792053223,-7.111534118652344,-15.911835670471191,-50.492713928222656
0,49637,9.17271900177002,3.837822198867798,-12.956265449523926,18.135684967041016
0,49639,-1.8170616626739502,-0.1707639992237091,15.730443000793457,51.88713455200195
0,49641,-7.508734703063965,14.306341171264648,6.575161457061768,-14.379905700683594
0,49643,20.873933792114258,0.16712060570716858,8.740500450134277,-32.83470153808594
0,49645,-12.850587844848633,-8.067558288574219,-10.269983291625977,7.533327579498291
0,49647,-17.94976806640625,2.180776357650757,-21.372154235839844,27.19713592529297
0,49649,16.46565055847168,-9.106377601623535,24.748830795288086,-16.110698699951172
0,49651,-7.885732173919678,-8.327728271484375,-1.5406403541564941,-12.673762321472168
0,49653,-13.55560302734375,20.820911407470703,-30.669597625732422,15.109140396118164
0,49655,25.10313606262207,-7.321174621582031,5.4975690841674805,-18.439241409301758
0,49657,5.047074794769287,-20.88894271850586,13.187542915344238,-9.475788116455078
0,49659,-7.417514324188232,41.68661880493164,-2.4755125045776367,27.054594039916992
0,49661,12.896625518798828,22.75005340576172,7.942581653594971,19.00245475769043
0,49663,-42.530296325683594,-32.245025634765625,30.7605037689209,-9.516651153564453
0,49665,-15.795994758605957,-16.26876449584961,-15.73983383178711,-32.028221130371094
0,49667,43.55650329589844,-34.877044677734375,-39.8089599609375,4.639230728149414
0,49669,-11.006315231323242,-71.6426773071289,0.6983944773674011,36.684043884277344
0,49671,-31.275968551635742,43.21860885620117,7.487720012664795,-17.35068702697754
0,49673,-5.800068378448486,132.86917114257812,13.172598838806152,-39.34421920776367
0,49675,22.346952438354492,111.6718978881836,25.662981033325195,-0.7844771146774292
0,49677,-10.502180099487305,87.16901397705078,10.172924995422363,12.364498138427734
0,49679,126.17486572265625,-204.04183959960938,-23.461584091186523,26.04900550842285
0,49681,52.2032470703125,-240.86126708984375,-22.386255264282227,36.032474517822266
0,49683,-225.61402893066406,105.7905044555664,16.122072219848633,-6.710430145263672
0,49685,8.570192337036133,91.70286560058594,7.510139465332031,-29.617536544799805
0,49687,101.14140319824219,-19.68462562561035,-7.497838973999023,8.12614631652832
0,49689,-29.71399688720703,10.37535285949707,-12.760112762451172,1.6655977964401245
0,49691,-8.482125282287598,-20.750415802001953,-3.019500732421875,-50.67505645751953
0,49693,-13.801766395568848,-43.48916244506836,13.541136741638184,-26.114988327026367
0,49695,31.56926727294922,2.1627650260925293,3.183563470840454,52.29957580566406
0,49697,9.515730857849121,1.8449212312698364,-9.747520446777344,47.27680206298828
0,49699,-40.32560729980469,20.464704513549805,-15.075572967529297,-11.088440895080566
0,49701,-14.126240730285645,64.2713394165039,19.41596031188965,-26.661527633666992
0,49703,-3.257251739501953,6.990042686462402,-1.129576563835144,-34.406742095947266
0,49705,17.088054656982422,-1.1794562339782715,-12.598819732666016,-3.376586675643921
0,49707,43.83781051635742,26.5672607421875,33.25612258911133,44.95854568481445
0,49709,31.671293258666992,-18.765060424804688,-2.4809517860412598,18.203779220581055
0,49711,-22.235795974731445,-23.346649169921875,-5.009134769439697,15.713808059692383
0,49713,-30.447959899902344,-16.69838523864746,7.833032131195068,9.587967872619629
0,49714,-7.381762981414795,-37.72955322265625,-31.49756622314453,-56.46016311645508
0,49717,-8.508561134338379,-0.580490231513977,-7.890415668487549,-40.56427764892578
0,49718,6.511111259460449,29.66263771057129,31.04147720336914,28.554115295410156
0,49721,11.308738708496094,-2.5,13.043168067932129,34.05573272705078
0,49722,-8.936112403869629,-1.4661779403686523,-30.71357536315918,-13.743523597717285
0,49725,-11.27216911315918,20.342042922973633,-31.111011505126953,-21.970600128173828
0,49726,17.530271530151367,11.46690845489502,31.18147087097168,11.697514533996582
0,49730,7.851489543914795,6.036655902862549,33.09844970703125,14.47900676727295
0,49730,-7.933959007263184,-26.212112426757812,-29.487163543701172,1.2420076131820679
0,49733,13.263351440429688,-9.818320274353027,-5.328144550323486,2.5177440643310547
0,49734,-8.461267471313477,24.027023315429688,24.218536376953125,-14.654220581054688
0,49737,-20.286521911621094,-25.240495681762695,-17.55156135559082,-25.1472110748291
0,49738,5.505264759063721,-1.692541480064392,-9.670204162597656,3.0991971492767334
0,49741,4.28991174697876,23.171524047851562,16.02996253967285,35.523624420166016
0,49742,-0.272248774766922,-7.879249572753906,1.4301109313964844,29.106691360473633
0,49745,-12.733566284179688,11.315520286560059,-3.527301788330078,-44.32080841064453
0,49746,0.1842632293701172,-0.7619820237159729,-5.512948989868164,-41.92121124267578
0,49749,21.355344772338867,-13.513336181640625,-2.113097667694092,36.244937896728516
0,49750,5.813714981079102,8.392521858215332,13.178938865661621,43.706825256347656
0,49753,-0.19416052103042603,-9.32785415649414,9.10501766204834,6.1117472648620605
0,49754,-21.736587524414062,-21.078826904296875,-0.38046303391456604,-24.684940338134766
0,49757,-4.271587371826172,3.294079065322876,-10.289006233215332,-33.40041732788086
0,49758,14.081607818603516,8.323760986328125,-12.223027229309082,3.51033091545105
0,49761,-4.3904032707214355,5.877222537994385,1.4739049673080444,15.97081470489502
0,49762,16.178647994995117,8.400754928588867,-8.243378639221191,-9.038091659545898
0,49765,0.27498099207878113,7.087446212768555,3.682042121887207,6.751585483551025
0,49766,-20.930557250976562,-2.1460633277893066,8.667859077453613,5.64788818359375
0,49769,9.779202461242676,-14.010607719421387,3.889319658279419,-13.215798377990723
0,49770,15.930102348327637,-2.5005311965942383,31.376998901367188,12.735321998596191
0,49773,-21.65380859375,-5.48644495010376,-25.007308959960938,7.535824775695801
0,49774,0.5615049600601196,10.527944564819336,-29.296648025512695,-5.092048168182373
0,49777,14.990582466125488,-1.4908109903335571,4.328341484069824,2.6526870727539062
0,49778,-9.233415603637695,-28.974241256713867,-20.745878219604492,-17.626304626464844
0,49781,11.391942024230957,22.63636589050293,25.40705680847168,-6.191864490509033
0,49782,-18.190593719482422,20.516016006469727,30.82862091064453,11.347504615783691
0,49785,0.32142847776412964,12.246703147888184,1.1514601707458496,12.174111366271973
0,49786,25.147756576538086,15.598031997680664,-5.893982410430908,-1.3178510665893555
0,49789,-24.454484939575195,-27.285249710083008,-18.53482437133789,-4.952300071716309
0,49790,-2.7671332359313965,-15.374874114990234,-12.478721618652344,2.0028576850891113
0,49793,18.970172882080078,3.7457308769226074,-4.1458306312561035,20.63689613342285
0,49794,-27.184534072875977,-16.025596618652344,3.958061695098877,-18.727214813232422
0,49797,-21.40785026550293,0.22611351311206818,9.148115158081055,-45.63551330566406
0,49798,45.77727127075195,28.937946319580078,19.850936889648438,46.71095275878906
0,49801,12.129405975341797,2.6097798347473145,4.2677717208862305,22.45363426208496
0,49802,-30.516735076904297,-19.697227478027344,-10.06201171875,-19.663976669311523
0,49805,8.135845184326172,8.944028854370117,-4.68443489074707,-16.076875686645508
0,49806,14.6841459274292,-0.14819912612438202,0.9354616403579712,-32.09485626220703
0,49809,-11.944644927978516,-13.873361587524414,10.609476089477539,27.669309616088867
0,49810,-24.186885833740234,4.273859977722168,-24.50592041015625,4.772943496704102
0,49813,5.909867763519287,12.043872833251953,3.2387611865997314,-14.683494567871094
0,49814,33.572757720947266,18.452909469604492,47.9058837890625,46.19681167602539
0,49817,-3.177212953567505,-13.697790145874023,-41.248844146728516,3.0253727436065674
0,49818,-30.30735969543457,-19.690263748168945,-46.86281204223633,-28.414112091064453
0,49821,9.6857271194458,5.080495357513428,52.522178649902344,-18.32583236694336
0,49822,28.279905319213867,17.4263858795166,3.0206825733184814,12.64240837097168
0,49825,-2.2393953800201416,-10.030052185058594,-36.27475357055664,23.235700607299805
0,49826,-15.391861915588379,-34.10811233520508,12.249067306518555,-20.893905639648438
0,49829,-7.150594234466553,28.162250518798828,11.38570499420166,13.848456382751465
0,49830,2.6864547729492188,18.338703155517578,16.43553352355957,9.615937232971191
0,49833,1.4940956830978394,-11.725141525268555,-6.232285499572754,-24.96752166748047
0,49834,-9.540342330932617,5.438383102416992,-6.907042026519775,-15.937886238098145
0,49837,4.282695293426514,-26.860519409179688,9.30487060546875,3.3763718605041504
0,49838,13.137184143066406,-6.345723628997803,5.311221599578857,37.63404846191406
0,49841,-1.1101531982421875,28.272165298461914,11.168851852416992,-1.4303230047225952
0,49842,-3.883664846420288,-0.609527587890625,-27.0168399810791,-23.991044998168945
0,49845,-4.000713348388672,-11.579984664916992,-14.951264381408691,12.43252182006836
0,49846,-7.584460735321045,-2.233524799346924,21.92845344543457,2.151940107345581
0,49849,4.289867877960205,4.103636741638184,2.6951611042022705,-21.778430938720703
0,49850,17.521995544433594,1.9838085174560547,2.9376578330993652,5.345312118530273
0,49853,-9.097500801086426,-17.537967681884766,1.2249971628189087,19.84501075744629
0,49854,-11.461721420288086,13.829713821411133,-18.015300750732422,-22.276580810546875
0,49857,13.00795841217041,30.87873649597168,-1.9577689170837402,-3.6387948989868164
0,49858,-5.332888603210449,3.0967600345611572,2.5274863243103027,44.738590240478516
0,49861,-15.651337623596191,-4.464727878570557,5.229680061340332,9.875807762145996
0,49862,2.8805646896362305,-23.62588882446289,12.715542793273926,-51.89992904663086
0,49865,9.524497985839844,-1.106619954109192,-8.575191497802734,-20.793663024902344
0,49867,6.571852684020996,9.01109504699707,-15.945914268493652,34.04911804199219
0,49869,-0.7490648031234741,-13.980988502502441,-5.619387149810791,-21.420087814331055
0,49871,-11.26192855834961,6.910245418548584,-5.738635063171387,-27.488693237304688
0,49873,21.775224685668945,-0.4093821346759796,3.425917625427246,56.29667282104492
0,49875,2.7519371509552,-2.2446281909942627,50.89472579956055,26.25668716430664
0,49877,-40.59475326538086,8.744625091552734,2.8024489879608154,-42.95918655395508
0,49879,17.619604110717773,-8.410179138183594,-51.682395935058594,-9.213163375854492
0,49881,16.173269271850586,-4.588947772979736,25.65266227722168,33.32457733154297
0,49883,-19.234962463378906,0.2771216332912445,12.813755989074707,-0.38861700892448425
0,49885,18.772184371948242,12.518540382385254,-39.91558074951172,-24.767610549926758
0,49887,14.13858413696289,7.864233493804932,18.542295455932617,7.0484185218811035
0,49889,-10.459698677062988,-6.906919479370117,21.777591705322266,14.032946586608887
0,49891,-9.575905799865723,2.718475580215454,-16.288766860961914,2.073763370513916
0,49892,-17.9348201751709,-0.05439186096191406,-1.0655686855316162,-17.41098403930664
0,49895,-0.7809938192367554,-14.455816268920898,-9.127738952636719,-5.536627769470215
0,49896,21.66094398498535,-12.320215225219727,-16.101608276367188,8.4232816696167
0,49899,-0.3399219512939453,-8.815744400024414,8.947903633117676,-7.157509803771973
0,49900,-14.613600730895996,4.984530448913574,15.625811576843262,15.358027458190918
0,49903,11.795927047729492,33.33237838745117,5.338775157928467,-3.6622231006622314
0,49904,11.16264533996582,5.179049968719482,-7.047707557678223,-38.319427490234375
0,49907,-18.65013885498047,-22.26732635498047,-16.05893325805664,2.7646963596343994
0,49908,-4.0002617835998535,8.379096984863281,12.804058074951172,42.36812973022461
0,49911,20.202739715576172,12.500516891479492,12.881081581115723,10.15554428100586
0,49914,0.33452028036117554,-22.705101013183594,-14.20140552520752,-36.381046295166016
0,49915,-8.361895561218262,-6.804181098937988,19.684879302978516,-4.134960174560547
0,49917,-3.5060291290283203,39.297149658203125,10.140559196472168,18.66469955444336
0,49919,-10.262330055236816,5.761743068695068,-43.28035354614258,6.499626636505127
0,49921,6.2370734214782715,-55.901363372802734,-15.944209098815918,22.771886825561523
0,49923,-2.9062154293060303,-19.419078826904297,33.15421676635742,-5.923678874969482
0,49925,-9.550250053405762,40.220848083496094,8.222563743591309,-40.54184341430664
0,49927,22.163084030151367,19.843870162963867,-11.193203926086426,7.500510215759277
0,49929,-7.2173333168029785,-13.751704216003418,8.738247871398926,26.2780818939209
0,49931,-7.832338809967041,-10.098482131958008,5.8165998458862305,-22.354938507080078
0,49933,11.1669921875,3.187030076980591,-11.625787734985352,-6.25594425201416
0,49935,-9.6786527633667,16.276390075683594,-3.0682082176208496,-1.1110645532608032
0,49937,16.264556884765625,14.307991027832031,13.520390510559082,-0.008495379239320755
0,49939,-9.955738067626953,-30.27597427368164,-7.009796619415283,28.458703994750977
0,49941,-31.57534408569336,-16.830556869506836,-14.410298347473145,-11.694417953491211
0,49943,33.59000778198242,27.3004093170166,13.389265060424805,-16.044523239135742
0,49945,13.683104515075684,-18.180164337158203,10.74101448059082,10.431981086730957
0,49947,-30.714262008666992,-3.395475149154663,-14.22573184967041,-2.876438856124878
0,49949,14.132725715637207,39.628211975097656,6.2132792472839355,8.20322322845459
0,49951,14.068069458007812,-12.224385261535645,1.6620045900344849,21.1931209564209
0,49953,-12.582892417907715,-38.257232666015625,-1.9871240854263306,-5.163049221038818
0,49955,11.130064964294434,2.811331033706665,-13.47529125213623,-30.317249298095703
0,49957,4.233178615570068,35.599185943603516,-22.100168228149414,1.6221787929534912
0,49959,-6.447932243347168,3.3271048069000244,37.192344665527344,24.438861846923828
0,49961,6.372584342956543,-9.404747009277344,8.930987358093262,-18.120620727539062
0,49963,-15.955698013305664,11.771441459655762,-19.815034866333008,-13.264961242675781
0,49965,-5.503358840942383,-15.82369327545166,8.889607429504395,13.30554485321045
0,49967,15.261792182922363,-23.091604232788086,-14.905230522155762,1.6285333633422852
0,49969,-18.791765213012695,10.218857765197754,-1.8576598167419434,4.476560592651367
0,49971,-6.9040913581848145,28.222288131713867,34.291465759277344,10.929888725280762
0,49973,21.33001136779785,3.5143775939941406,-10.527734756469727,-10.0670166015625
0,49975,6.972016334533691,-28.550914764404297,-16.449953079223633,-20.63909149169922
0,49977,1.5073577165603638,2.2897439002990723,12.217659950256348,-7.22472620010376
0,49979,-17.54864501953125,-2.2091665267944336,-10.392034530639648,7.124268531799316
0,49981,-16.18022346496582,-9.015152931213379,11.08156967163086,30.456377029418945
0,49983,32.077003479003906,32.41452407836914,10.321404457092285,11.885486602783203
0,49985,3.244662284851074,-2.40909743309021,-32.39703369140625,-14.780950546264648
0,49987,-20.786113739013672,-24.414661407470703,4.525532245635986,-8.64895248413086
0,49989,23.934526443481445,12.547772407531738,25.123769760131836,-2.7302772998809814
0,49991,4.057568073272705,13.795528411865234,-13.629531860351562,9.174219131469727
0,49993,-35.865665435791016,-15.707218170166016,-6.2590460777282715,-7.305964469909668
0,49995,-11.048469543457031,-12.460062026977539,-3.0322442054748535,-6.471599102020264
0,49997,17.378173828125,15.273383140563965,-3.986924409866333,15.6975679397583
0,49999,20.02235221862793,6.801673412322998,3.581206798553467,4.342984676361084
0,50001,3.173279285430908,-12.228261947631836,-4.039503574371338,-20.41590118408203
0,50003,-23.656991958618164,-2.604220390319824,14.649524688720703,-14.470185279846191
0,50005,9.783035278320312,15.848747253417969,1.8317668437957764,2.6097376346588135
0,50007,17.438064575195312,10.823199272155762,-11.707992553710938,1.423539161682129
0,50009,-32.25318145751953,-23.13901138305664,11.439689636230469,20.39474868774414
0,50011,-3.5615992546081543,-14.798446655273438,15.018247604370117,9.443329811096191
0,50013,19.509920120239258,24.084156036376953,-19.049468994140625,-1.0401835441589355
0,50015,-3.9686031341552734,-2.3975212574005127,-13.551399230957031,-17.454845428466797
0,50017,8.782588958740234,-13.904939651489258,23.524850845336914,-17.96207618713379
0,50019,3.125619411468506,3.052436113357544,2.3086764812469482,20.67268943786621
0,50021,-5.429003715515137,-1.9122923612594604,-3.5479013919830322,0.9027309417724609
0,50023,-4.188636302947998,4.175451278686523,1.6902185678482056,14.926313400268555
0,50025,-14.775593757629395,-0.35006365180015564,-30.591365814208984,-0.35252493619918823
0,50027,1.4670734405517578,-10.846531867980957,-21.900014877319336,-36.04206085205078
0,50029,15.041202545166016,-1.175303339958191,24.104854583740234,15.170294761657715
0,50031,1.304548740386963,18.810068130493164,22.03380012512207,28.05852699279785
0,50033,1.367348074913025,8.475212097167969,9.406499862670898,-10.981730461120605
0,50035,-4.9690961837768555,-12.800552368164062,-3.236076593399048,-29.18707847595215
0,50037,-6.19766092300415,8.537174224853516,-22.81940269470215,-16.71820831298828
0,50039,17.622705459594727,10.741943359375,1.6536773443222046,28.794782638549805
0,50041,-8.844250679016113,-12.312397003173828,29.478662490844727,27.325965881347656
0,50043,-19.64760398864746,-5.7295355796813965,12.432022094726562,-13.875917434692383
0,50045,21.009248733520508,-2.167732000350952,-26.3294734954834,-4.365321636199951
0,50047,1.9341325759887695,-1.2057666778564453,-22.746774673461914,-12.991064071655273
0,50049,-19.276424407958984,-8.036759376525879,22.146320343017578,3.242457151412964
0,50051,16.317293167114258,11.448107719421387,22.631885528564453,31.54317283630371
0,50053,15.711970329284668,13.787924766540527,-26.061378479003906,0.9540198445320129
0,50055,-16.18777084350586,-25.948833465576172,-16.644180297851562,-27.94014549255371
0,50057,-0.08175014704465866,8.604963302612305,8.828110694885254,-5.597106456756592
0,50059,13.11793041229248,17.156902313232422,1.773686170578003,17.395109176635742
0,50061,-28.33851432800293,-21.721675872802734,-1.523079514503479,-16.938478469848633
0,50063,-9.851494789123535,-4.794375419616699,-11.896339416503906,-11.237910270690918
0,50065,28.76744842529297,18.70446014404297,16.619544982910156,16.197473526000977
0,50067,-4.225808620452881,21.275142669677734,11.98765754699707,-4.711491584777832
0,50069,-8.828062057495117,-12.593935012817383,-18.68777847290039,-0.43055275082588196
0,50071,-0.6177859902381897,-19.339609146118164,12.427872657775879,19.671472549438477
0,50073,4.035184860229492,12.502253532409668,1.530724287033081,1.335850477218628
0,50075,2.9285387992858887,1.5852162837982178,-7.692832946777344,-2.6010406017303467
0,50077,-11.636346817016602,-18.06641960144043,26.993656158447266,-7.758649826049805
0,50079,24.34612464904785,3.990086555480957,-14.198050498962402,-4.324282169342041
0,50081,8.15969181060791,20.864063262939453,-22.80377960205078,2.4374747276306152
0,50082,-29.626007080078125,-8.118678092956543,19.727453231811523,-30.73250389099121
0,50085,17.182952880859375,-9.34299087524414,1.1777217388153076,12.079509735107422
0,50086,21.753299713134766,8.81722640991211,-12.037147521972656,33.84373092651367
0,50089,-25.963298797607422,-13.56768798828125,-0.5574262142181396,-11.285453796386719
0,50090,-27.05483055114746,-16.920574188232422,2.202277660369873,4.1333160400390625
0,50093,21.094558715820312,9.497842788696289,4.5226240158081055,4.892902374267578
0,50094,10.903297424316406,21.761672973632812,-7.451807498931885,-1.990696907043457
0,50097,-21.53858184814453,14.683965682983398,-19.215301513671875,-18.05296516418457
0,50098,5.426340579986572,-29.044361114501953,19.281625747680664,-7.015794277191162
0,50101,8.145097732543945,-22.045316696166992,8.391139030456543,22.63919448852539
0,50102,12.408294677734375,19.9229736328125,-15.9480619430542,-6.027916431427002
0,50105,-2.6714136600494385,2.4714291095733643,16.216638565063477,-7.634823799133301
0,50106,-2.7125437259674072,2.68668270111084,5.8938889503479,14.040055274963379
0,50111,13.667732238769531,28.585094451904297,-0.5142572522163391,13.531657218933105
0,50111,-22.212244033813477,-8.730645179748535,5.020618438720703,-33.66405487060547
0,50112,-12.930780410766602,-25.396272659301758,-12.378623008728027,-19.33550262451172
0,50115,14.02173137664795,14.99647045135498,-2.5135765075683594,37.08033752441406
0,50116,5.700722694396973,0.8782894015312195,-2.116504192352295,-1.5625063180923462
0,50119,-11.264217376708984,-30.407115936279297,-10.579046249389648,-18.612396240234375
0,50120,-8.998434066772461,-1.9571244716644287,22.352697372436523,19.14008331298828
0,50123,15.783400535583496,48.34855651855469,7.3011274337768555,20.09282684326172
0,50124,1.5634797811508179,2.578050136566162,-19.940065383911133,-18.765111923217773
0,50127,-13.614556312561035,-55.417449951171875,6.729195594787598,-19.179454803466797
0,50128,17.57788848876953,9.783388137817383,-2.904968738555908,9.518868446350098
0,50131,-2.1506266593933105,43.8701171875,-10.021388053894043,-2.1158559322357178
0,50132,-17.918046951293945,-20.08181381225586,1.5935847759246826,1.398045301437378
0,50135,24.804367065429688,-7.890056133270264,15.166398048400879,-5.32267427444458
0,50136,1.1463526487350464,25.48673439025879,-6.682009220123291,-8.156245231628418
0,50139,-15.1267728805542,-14.918237686157227,-20.38225555419922,32.82167434692383
0,50140,1.9327325820922852,-7.335803985595703,34.536033630371094,-0.7175747752189636
0,50143,-11.895163536071777,7.789365768432617,11.679506301879883,-16.67619514465332
0,50144,-1.2094804048538208,-2.166651725769043,-29.01396942138672,-1.2754138708114624
0,50147,13.303858757019043,3.646754026412964,-11.0321683883667,-14.61357593536377
0,50148,3.7752959728240967,-11.386669158935547,-2.144463300704956,12.140338897705078
0,50151,-6.010136127471924,-4.465693950653076,2.1996243000030518,13.81726360321045
0,50152,9.581936836242676,9.551993370056152,29.067588806152344,7.895493507385254
0,50155,4.1365485191345215,10.343043327331543,17.72539520263672,-1.3330862522125244
0,50156,-13.681410789489746,14.471667289733887,-19.811521530151367,-23.83522605895996
0,50159,-18.054166793823242,-31.360654830932617,-5.678673267364502,-5.038680076599121
0,50160,12.357386589050293,-33.95354461669922,-11.395550727844238,14.694069862365723
0,50163,34.567420959472656,24.57173728942871,-17.778928756713867,5.154632091522217
0,50164,-18.574493408203125,6.627342224121094,5.379674434661865,-14.815594673156738
0,50167,-11.676748275756836,-16.412057876586914,18.92963409423828,2.3783180713653564
0,50168,3.312221050262451,23.730545043945312,2.581111431121826,24.223987579345703
0,50171,-19.7635555267334,2.9838685989379883,-20.314393997192383,-12.688034057617188
0,50172,4.248648643493652,-24.449975967407227,6.256627082824707,-2.4184658527374268
0,50175,25.545137405395508,19.922250747680664,19.975990295410156,9.927794456481934
0,50176,1.1086255311965942,20.4315242767334,-2.099090814590454,-29.663583755493164
0,50179,-16.694387435913086,9.327483177185059,-8.73939323425293,-2.63314151763916
0,50180,7.99293851852417,0.2387167066335678,-1.3092223405838013,27.02342414855957
0,50183,1.1163780689239502,-22.856422424316406,-2.3687355518341064,9.781578063964844
0,50184,-4.450292587280273,-3.367155075073242,3.5023818016052246,-21.84013557434082
0,50187,11.058699607849121,-2.9006574153900146,-1.290322184562683,-20.403350830078125
0,50188,-7.189312934875488,-7.928474426269531,-10.206098556518555,19.53183364868164
0,50191,-3.6245429515838623,4.889541149139404,4.610601425170898,3.3634860515594482
0,50192,19.71548843383789,-3.928218364715576,2.5132088661193848,-18.59897232055664
0,50195,-7.6679792404174805,-4.813976287841797,-5.749143600463867,11.843676567077637
0,50196,-23.362796783447266,-0.5933893918991089,6.361631870269775,24.70767593383789
0,50199,11.799967765808105,-7.060809135437012,9.579670906066895,5.440883636474609
0,50200,9.442730903625488,6.0939412117004395,-7.141596794128418,-26.691621780395508
0,50203,-18.023195266723633,17.345497131347656,-5.883237361907959,-3.3689863681793213
0,50204,-7.693864822387695,6.718716144561768,6.410211086273193,34.79431915283203
0,50207,6.144857883453369,3.801492691040039,19.09173583984375,-17.486406326293945
0,50208,14.493715286254883,4.807084560394287,2.0677332878112793,-35.03879928588867
0,50211,15.360461235046387,7.788923740386963,-33.494712829589844,21.92892074584961
0,50212,-7.1038994789123535,-22.692140579223633,-2.5317437648773193,32.2200927734375
0,50215,-20.982376098632812,-31.33233642578125,14.215076446533203,-30.498292922973633
0,50216,8.57528305053711,29.597564697265625,-1.12241530418396,-31.61060333251953
0,50219,12.03836441040039,26.6120662689209,18.968969345092773,37.558956146240234
0,50220,-13.497243881225586,-21.82944679260254,6.123659133911133,13.571463584899902
0,50223,-4.236980438232422,-29.998701095581055,-14.309633255004883,-4.216261386871338
0,50224,7.510237216949463,12.067476272583008,-7.527382850646973,-7.313852787017822
0,50227,7.375104904174805,29.697071075439453,0.04041591286659241,-33.01945114135742
0,50228,-16.692216873168945,-21.651586532592773,-5.055705547332764,27.26841163635254
0,50231,-6.706336498260498,-14.409256935119629,-10.147903442382812,24.130510330200195
0,50232,26.40088653564453,24.690073013305664,26.345224380493164,-10.83521556854248
0,50235,-1.8539329767227173,-9.903847694396973,8.708386421203613,-3.829571008682251
0,50236,-13.595097541809082,-17.204547882080078,-32.2768669128418,-18.727991104125977
0,50239,-7.308631420135498,30.666990280151367,2.533730983734131,6.495842456817627
0,50240,1.314774990081787,-1.6046440601348877,13.130087852478027,19.537254333496094
0,50243,17.078306198120117,-8.934082984924316,3.0342302322387695,-6.370945453643799
0,50244,-11.545801162719727,9.732508659362793,1.8657788038253784,-19.130033493041992
0,50247,10.424677848815918,-21.596668243408203,-9.225375175476074,8.473968505859375
0,50248,5.209254264831543,11.305126190185547,-6.141468524932861,-10.16305923461914
0,50251,-34.77192687988281,11.558303833007812,5.074592590332031,-19.80264663696289
0,50252,16.62563705444336,-28.831981658935547,-7.614749431610107,33.89289474487305
0,50255,17.307334899902344,9.141753196716309,-5.639169216156006,13.910791397094727
0,50256,-19.18387794494629,21.81420135498047,24.076231002807617,-28.13251495361328
0,50259,7.305458068847656,-17.02478790283203,-4.776059627532959,-12.284287452697754
0,50260,14.272111892700195,6.13119649887085,-17.424802780151367,9.476247787475586
0,50263,2.5082969665527344,22.40506935119629,14.61573600769043,7.070827484130859
0,50264,-15.103900909423828,-10.97136402130127,-0.7333252429962158,16.42695426940918
0,50267,-16.872291564941406,-8.613031387329102,-7.4012227058410645,9.301554679870605
0,50268,11.630549430847168,-14.139189720153809,5.7405686378479,-5.946060657501221
0,50271,20.483089447021484,4.095859527587891,18.747652053833008,-15.783008575439453
0,50272,9.561469078063965,28.4144229888916,15.189260482788086,-11.586817741394043
0,50275,-26.034587860107422,-27.058155059814453,-42.27825927734375,28.44428253173828
0,50276,-8.804902076721191,-10.533580780029297,-32.66441345214844,10.08013916015625
0,50279,1.6111854314804077,22.468204498291016,31.874916076660156,-26.980396270751953
0,50280,-5.306130409240723,-15.50140380859375,20.513851165771484,-0.5181958079338074
0,50283,22.815383911132812,-6.739048480987549,1.8738484382629395,5.96696662902832
0,50284,-2.5949547290802,1.989197850227356,-3.1194865703582764,-6.592520713806152
0,50287,-12.891560554504395,4.192001819610596,-2.2178311347961426,10.034507751464844
0,50288,-4.172338962554932,23.110139846801758,3.480334520339966,9.251173973083496
0,50291,1.751735806465149,-13.155818939208984,-25.412370681762695,-9.384305000305176
0,50292,15.042293548583984,-13.508709907531738,8.24606704711914,4.935903072357178
0,50295,-10.891691207885742,3.5002639293670654,22.976682662963867,2.2249503135681152
0,50296,-17.630874633789062,1.257208228111267,-29.895410537719727,-40.12525177001953
0,50299,26.22513771057129,34.06945037841797,1.021104335784912,12.988170623779297
0,50300,10.06659984588623,-18.67645263671875,21.025596618652344,41.154273986816406
0,50303,-14.07517147064209,-32.1401481628418,-6.303211212158203,-28.02906608581543
0,50304,18.801660537719727,24.029888153076172,-2.036267042160034,-10.00720500946045
0,50307,-8.818921089172363,2.6495440006256104,-10.361160278320312,12.226097106933594
0,50309,-14.539636611938477,-9.333773612976074,-9.024154663085938,-10.881205558776855
0,50311,0.3778596818447113,4.638027667999268,29.996206283569336,7.678319931030273
0,50313,-9.182828903198242,4.881464004516602,11.574432373046875,3.684645414352417
0,50315,16.65548324584961,2.5248446464538574,-22.760709762573242,-19.013246536254883
0,50317,9.631508827209473,-12.727783203125,-5.448720455169678,1.8765655755996704
1,50320,-7.989229679107666,1.620957612991333,1.9895364046096802,22.194982528686523
1,50321,-9.722554206848145,16.65445327758789,10.97749137878418,5.718617916107178
1,50322,5.127150535583496,-21.286529541015625,-4.988164901733398,-9.684085845947266
1,50325,11.276203155517578,2.0909204483032227,-20.646615982055664,-7.4827704429626465
1,50326,-7.746335029602051,27.03274154663086,24.034793853759766,0.45084500312805176
1,50329,-8.913604736328125,-14.748936653137207,7.6303019523620605,-5.781213760375977
1,50330,-1.8935667276382446,4.797730445861816,-22.723661422729492,-2.823742389678955
1,50333,11.433366775512695,8.179398536682129,16.305667877197266,10.422819137573242
1,50334,2.331859827041626,-36.807315826416016,-19.823076248168945,0.07756733149290085
1,50337,-18.255470275878906,11.820409774780273,-16.0115909576416,12.351480484008789
1,50338,-2.365677833557129,29.176233291625977,43.458255767822266,8.18286418914795
1,50593,8.093993186950684,-34.28373718261719,-10.70205307006836,-2.2887351512908936
1,50594,5.636117935180664,-9.344035148620605,-20.138654708862305,-7.385948657989502
1,50597,9.172666549682617,37.35986328125,12.411581039428711,-46.643043518066406
1,50598,-15.486287117004395,-0.10492057353258133,14.861431121826172,12.741429328918457
1,50601,3.2876315116882324,-18.302959442138672,-2.0190999507904053,53.56690216064453
1,50602,13.707853317260742,9.361161231994629,-19.123455047607422,-24.238445281982422
1,50605,-21.03714370727539,-25.04974937438965,7.302658557891846,-2.1883432865142822
1,50606,2.3754093647003174,-18.11726951599121,-16.229509353637695,23.78361701965332
1,50609,20.83603858947754,53.25425338745117,12.487164497375488,-15.947464942932129
1,52005,-11.875425338745117,9.43862247467041,39.556427001953125,-9.814373970031738
1,52006,-7.7647786140441895,-28.10645866394043,-18.291748046875,-4.66189432144165
1,52009,19.60216522216797,3.0927534103393555,-7.276061058044434,-10.895376205444336
1,52010,-10.748445510864258,2.295703172683716,-1.5523176193237305,2.8848328590393066
1,52013,-5.65895938873291,-10.028118133544922,-31.282543182373047,-13.958037376403809
1,52014,8.398272514343262,-12.599422454833984,0.6934650540351868,2.4436757564544678
1,52017,-13.319307327270508,16.0933895111084,39.29222106933594,40.17597198486328
1,52018,4.046637535095215,22.17352294921875,3.298067331314087,-9.178717613220215
1,52021,12.248486518859863,-13.135028839111328,-23.79044532775879,-16.18433952331543
1,52022,-12.096726417541504,-22.74500846862793,8.011371612548828,16.47218894958496
1,52025,-5.576442241668701,7.43844747543335,9.206306457519531,13.810606956481934
1,52026,15.562427520751953,23.82538604736328,-11.25623607635498,-0.6249943971633911
1,52029,-2.4235658645629883,2.204289197921753,4.959207534790039,-16.02222442626953
1,52030,1.5092623233795166,-11.861845970153809,-10.09963321685791,-12.219789505004883
1,52033,7.117053031921387,-12.321550369262695,-11.521903038024902,-3.8362982273101807
1,52034,-10.230931282043457,4.268235683441162,22.939910888671875,2.448747396469116
1,52037,3.8201372623443604,3.1092212200164795,-2.8197202682495117,14.823297500610352
1,52038,-0.4630783796310425,-2.8452038764953613,-4.089569091796875,6.148972034454346
1,52041,-19.357030868530273,12.210456848144531,18.114219665527344,-20.582679748535156
1,52042,10.373555183410645,-15.858169555664062,-21.578645706176758,-0.8839932084083557
1,52045,24.11404800415039,-9.984485626220703,-11.1196928024292,11.260807991027832
1,52047,-14.68959903717041,13.79343032836914,15.22034740447998,7.413514137268066
1,52049,-20.659481048583984,6.995977401733398,-13.847067832946777,11.660998344421387
1,52051,11.853206634521484,1.981131672859192,17.080442428588867,-18.56418800354004
1,52053,1.9485543966293335,-8.996859550476074,26.00650978088379,-10.506760597229004
1,52055,-8.100518226623535,2.061568260192871,-21.09163475036621,8.42497730255127
1,52057,16.58443832397461,5.416750907897949,-17.293622970581055,13.098504066467285
1,52059,-9.667773246765137,-6.258177280426025,4.786596775054932,0.8778073191642761
1,52060,4.433772563934326,13.92476749420166,7.98723840713501,-21.673768997192383
1,52063,14.209750175476074,4.6584930419921875,-1.4966336488723755,4.198527812957764
1,52064,-38.264827728271484,-23.382854461669922,-2.0279011726379395,7.175283908843994
1,52067,-3.2137136459350586,5.068602561950684,14.137542724609375,1.5001929998397827
1,52068,27.037776947021484,-9.219596862792969,-17.118896484375,9.469855308532715
1,52071,8.043524742126465,-12.891566276550293,-35.64310073852539,-25.430522918701172
1,52072,-1.5844351053237915,20.1905517578125,23.0929012298584,-18.334840774536133
1,52075,-9.930105209350586,-0.612160861492157,31.790428161621094,34.419525146484375
1,52076,-0.7508369088172913,-2.502084255218506,-6.026300430297852,-5.218017101287842
1,52079,-2.7261133193969727,20.598079681396484,-6.6094889640808105,-0.19889867305755615
1,52080,8.845355987548828,9.514453887939453,4.914645671844482,15.100288391113281
1,52083,27.01068115234375,-17.239830017089844,1.0968691110610962,-33.60858154296875
1,52084,-13.113619804382324,-12.11797046661377,0.529723048210144,3.2548844814300537
1,52087,-30.195480346679688,-8.103961944580078,-5.925556659698486,19.035802841186523
1,52088,2.15535306930542,13.110733032226562,-23.115598678588867,9.240055084228516
1,52091,14.483920097351074,32.38889694213867,4.693089485168457,-17.764799118041992
1,52092,-8.964593887329102,-25.323753356933594,3.1747844219207764,-28.687715530395508
1,52095,-12.914179801940918,-31.84395408630371,-0.33786481618881226,32.14048385620117
1,52096,14.75377368927002,26.70240020751953,23.6448917388916,38.64134979248047
1,52099,9.681816101074219,5.842120170593262,-3.826021194458008,-4.831818580627441
1,52100,-0.8716052770614624,-21.684959411621094,-12.943144798278809,-30.940845489501953
1,52103,-8.200477600097656,19.127405166625977,9.016426086425781,-8.836101531982422
1,52105,-17.80019760131836,1.3132177591323853,5.769973278045654,13.784195899963379
1,52107,11.875362396240234,-21.598329544067383,-0.30716681480407715,-6.940600872039795
1,52109,32.56864547729492,22.059833526611328,9.968637466430664,-5.344749927520752
1,52111,5.9169206619262695,19.492389678955078,-5.701602458953857,15.483860969543457
1,52113,-21.566770553588867,-9.935263633728027,-9.884113311767578,-8.73127555847168
1,52115,-24.672760009765625,-15.612123489379883,-6.890779972076416,-14.935169219970703
1,52117,4.091004848480225,-9.405304908752441,-4.5609002113342285,7.312045097351074
1,52119,18.99700164794922,-0.0382685549557209,3.530780076980591,-11.368297576904297
1,52121,-2.3080856800079346,4.067209720611572,3.345757246017456,17.200565338134766
1,52123,-12.1012544631958,7.00715446472168,-19.57516860961914,16.240570068359375
1,52125,4.942518711090088,8.338282585144043,-5.614990711212158,-34.69850540161133
1,52127,-1.0854154825210571,-19.114978790283203,23.072532653808594,12.372176170349121
1,52129,-3.1485607624053955,-8.095014572143555,-19.370840072631836,24.35427474975586
1,52130,13.692914009094238,23.50300407409668,6.900115489959717,-22.801485061645508
1,52133,1.1634563207626343,0.25340014696121216,34.97860336303711,1.5162755250930786
1,52135,-8.305856704711914,-1.1282455921173096,-13.39493179321289,10.378731727600098
1,52137,-2.315178632736206,-4.985146999359131,-6.3137102127075195,2.6339101791381836
1,52138,-0.3067014515399933,-4.642864227294922,19.96977424621582,-2.717531204223633
1,52141,-11.53911018371582,5.057036876678467,-13.990650177001953,-25.79247283935547
1,52142,-1.6063945293426514,-8.499473571777344,-15.826704025268555,21.92227554321289
1,52145,25.633445739746094,-3.1759660243988037,13.240753173828125,19.297822952270508
1,52146,5.654473781585693,5.422610759735107,-4.37774658203125,-15.006477355957031
1,52149,-32.10466766357422,1.638085126876831,-3.9164879322052,-3.0855977535247803
1,52150,4.400082111358643,-9.878230094909668,13.673839569091797,-17.893863677978516
1,52153,35.79585266113281,2.798373222351074,5.4628520011901855,20.03121566772461
1,52154,-19.206707000732422,17.857126235961914,-14.379802703857422,26.66239356994629
1,52157,-23.099794387817383,13.306727409362793,-9.779584884643555,-36.53312683105469
1,52158,35.2574462890625,-13.122954368591309,-0.0041609955951571465,-2.152616262435913
1,52161,0.07470746338367462,-20.318771362304688,7.074751377105713,39.51906967163086
1,52162,-20.46353530883789,19.27532196044922,1.1533236503601074,-26.190031051635742
1,52165,14.913431167602539,1.8859009742736816,-2.3918700218200684,-40.86681365966797
1,52166,-10.871832847595215,-18.331504821777344,7.68108606338501,35.237640380859375
1,52169,-1.0483283996582031,23.434513092041016,29.147409439086914,17.502771377563477
1,52170,2.229515552520752,8.18380355834961,-1.4405722618103027,-33.900691986083984
1,52173,-14.052369117736816,-25.644729614257812,-55.45159912109375,10.597518920898438
1,52174,19.340328216552734,4.066002368927002,-6.441271781921387,2.7672362327575684
1,52177,15.158232688903809,7.583543300628662,23.725299835205078,-7.785382270812988
1,52178,0.09441246092319489,-4.1883955001831055,9.377699851989746,24.42835235595703
1,52181,-39.78352355957031,-28.600040435791016,-8.292991638183594,-25.268596649169922
1,52182,-55.90549850463867,-51.119720458984375,-7.915465354919434,-29.778644561767578
1,52185,27.456438064575195,89.82288360595703,7.407819747924805,34.29958724975586
1,52186,81.03459167480469,100.01692199707031,25.94223403930664,52.85758972167969
1,52189,17.803016662597656,-116.40424346923828,-9.117294311523438,-8.358779907226562
1,52190,-60.72213363647461,-61.81904220581055,-47.17744064331055,-59.7878303527832
1,52193,-10.282242774963379,79.75750732421875,22.311229705810547,-37.30413818359375
1,52194,19.80320167541504,-6.455338954925537,16.08989715576172,6.389533519744873
1,52197,-2.4891676902770996,-45.88449478149414,-23.665485382080078,38.007789611816406
1,52198,51.86583709716797,40.927974700927734,52.90299987792969,45.74414825439453
1,52201,11.361336708068848,50.174598693847656,11.666592597961426,8.422359466552734
1,52202,-49.77827072143555,-5.378497123718262,-73.5202407836914,-41.84903335571289
1,52205,-38.27138137817383,-64.1329116821289,8.449430465698242,-9.164563179016113
1,52206,-42.166534423828125,-91.4598617553711,17.57590675354004,10.03195571899414
1,52209,37.83332061767578,146.8663330078125,10.973967552185059,0.05897807329893112
1,52210,35.3592529296875,185.07949829101562,26.10036277770996,13.840935707092285
1,52213,-10.534904479980469,-299.1760559082031,-33.60227966308594,-5.0028181076049805
1,52216,31.708717346191406,-155.7373046875,2.856304883956909,-15.923778533935547
1,52217,-21.46452522277832,283.0451965332031,42.49637222290039,19.18532371520996
1,52218,-30.469213485717773,35.28559875488281,-17.749311447143555,11.98611831665039
1,52221,46.27131271362305,-79.9529800415039,-60.03440475463867,-40.314430236816406
1,52222,38.40403366088867,40.32577133178711,-7.895782947540283,-14.375330924987793
1,52225,-9.276355743408203,15.09681510925293,40.11495590209961,41.25101089477539
1,52226,-41.872642517089844,-38.930667877197266,4.7294921875,16.020355224609375
1,52229,-65.57382202148438,-174.57870483398438,-21.028690338134766,-15.450469017028809
1,52230,-48.592323303222656,-130.96310424804688,-14.41826057434082,-1.2759692668914795
1,52233,43.08955001831055,340.64019775390625,-3.232365131378174,-22.643489837646484
1,52234,65.3221435546875,280.6311340332031,18.907697677612305,2.045753240585327
1,52237,44.65389633178711,-410.9291687011719,29.848804473876953,56.18746566772461
1,52238,41.73759460449219,-209.83299255371094,17.400541305541992,4.403969764709473
1,52241,-78.95710754394531,309.491943359375,2.133953094482422,-49.341712951660156
1,52242,-77.56898498535156,42.63081359863281,-9.894672393798828,-49.15937042236328
1,52245,60.07208251953125,-65.66646575927734,-33.364051818847656,-3.6590194702148438
1,52246,23.069847106933594,159.65711975097656,-19.55243492126465,34.4965934753418
1,52249,-3.565890312194824,-35.14583206176758,34.748050689697266,19.839845657348633
1,52250,8.859541893005371,-254.08372497558594,21.636661529541016,18.556251525878906
1,52253,-23.75353240966797,-26.755281448364258,-25.74838638305664,-6.1554856300354
1,52254,28.871335983276367,128.20819091796875,-30.419212341308594,-28.87748146057129
1,52257,9.60123062133789,64.56378936767578,13.62939453125,15.158957481384277
1,52258,-53.98752975463867,22.282751083374023,10.173931121826172,7.830752372741699
1,52261,-47.145057678222656,-73.55575561523438,-0.8282777667045593,-25.22937774658203
1,52262,-22.170360565185547,-55.22074508666992,8.29895305633545,-15.335816383361816
1,52265,85.04109954833984,75.26130676269531,-3.045318603515625,27.461475372314453
1,52266,112.16158294677734,-29.81744956970215,40.4542350769043,71.87889099121094
1,52269,-39.69741439819336,-31.308691024780273,-18.796405792236328,-29.69195556640625
1,52270,-57.41337585449219,228.45945739746094,-50.562774658203125,-70.06387329101562
1,52273,15.680645942687988,-88.67467498779297,28.113628387451172,28.044525146484375
1,52274,-28.522409439086914,-305.8079833984375,17.210783004760742,20.753347396850586
1,52277,-62.551231384277344,7.553889274597168,-9.837855339050293,-21.393733978271484
1,52278,-2.033590793609619,12.091161727905273,-19.135061264038086,-2.795091152191162
1,52281,37.527462005615234,289.11944580078125,5.355173587799072,2.585209369659424
1,52282,29.34954833984375,324.21484375,17.818063735961914,1.688122272491455
1,52285,89.47721099853516,-319.22784423828125,13.99661922454834,24.708099365234375
1,52286,26.281051635742188,-268.360595703125,-0.21436893939971924,0.7560164332389832
1,52289,-141.78347778320312,89.66757202148438,-34.25740051269531,-21.91838264465332
1,52290,-98.06293487548828,-57.2512321472168,-14.117964744567871,-27.45363998413086
1,52293,82.57758331298828,134.85031127929688,12.386201858520508,-5.11405611038208
1,52294,109.6080551147461,335.43072509765625,23.77166175842285,35.32481384277344
1,52297,-25.972150802612305,-135.078369140625,14.762496948242188,29.93874740600586
1,52298,-37.871490478515625,-271.7882385253906,4.78542947769165,7.628625392913818
1,52302,-20.845705032348633,30.837928771972656,-24.501840591430664,-39.35603332519531
1,52303,-76.62493133544922,114.864990234375,-48.152015686035156,-29.713912963867188
1,52304,6.061616897583008,-66.75564575195312,-4.744966506958008,11.601856231689453
1,52307,96.33419799804688,-106.85795593261719,35.15163040161133,13.203845024108887
1,52308,64.40684509277344,34.80200958251953,34.569358825683594,26.498497009277344
1,52311,-24.26053810119629,-33.92787170410156,3.676831007003784,-22.783021926879883
1,52312,-52.34725570678711,15.334299087524414,-19.56486701965332,-31.312978744506836
1,52315,-12.872893333435059,82.13552856445312,-20.218563079833984,20.796892166137695
1,52316,-19.950971603393555,-117.78752899169922,-10.749361991882324,7.422115802764893
1,52319,-13.640039443969727,173.90623474121094,9.665974617004395,15.480761528015137
1,52320,8.578520774841309,199.921875,2.0139000415802,13.275765419006348
1,52323,42.42613220214844,-172.79347229003906,-3.3228704929351807,-39.66930389404297
1,52324,77.86133575439453,98.36277770996094,31.79326629638672,-11.560012817382812
1,52327,44.56279754638672,-206.1032257080078,25.828691482543945,56.55811309814453
1,52328,-32.89238357543945,-316.4273986816406,-4.59747314453125,-9.282028198242188
1,52331,-57.28897476196289,245.66493225097656,-18.736356735229492,-53.89794921875
1,52332,-63.87150192260742,215.23155212402344,-46.63095474243164,20.746604919433594
1,52335,-104.48247528076172,-31.290592193603516,-4.052245140075684,37.115264892578125
1,52336,-15.416007041931152,-134.13121032714844,27.895584106445312,-14.180367469787598
1,52339,119.91046905517578,252.58009338378906,-3.265479564666748,-24.11465835571289
1,52340,211.209716796875,14.57797622680664,18.94197654724121,14.585646629333496
1,52343,13.485876083374023,-678.3370971679688,-6.3646063804626465,21.279651641845703
1,52344,-308.77032470703125,127.72930908203125,-33.31251525878906,-16.57366943359375
1,52347,-167.08938598632812,454.4437561035156,4.601233005523682,-16.380393981933594
1,52348,54.89048385620117,246.44386291503906,21.344253540039062,-4.87677001953125
1,52351,318.61248779296875,239.1397247314453,27.84008026123047,22.96672248840332
1,52352,289.81878662109375,-630.3196411132812,25.13653564453125,33.100276947021484
1,52355,-292.696533203125,-713.7855224609375,-46.10693359375,-34.80947494506836
1,52356,-288.6538391113281,-145.7814483642578,-60.73583984375,-20.95651626586914
1,52359,78.37615203857422,979.7738037109375,31.170957565307617,8.701722145080566
1,52360,107.73751068115234,1081.1163330078125,38.66741943359375,4.975296974182129
1,52363,137.9494171142578,-910.3236083984375,21.60394287109375,28.293066024780273
1,52364,30.438749313354492,-790.9930419921875,6.0959649085998535,-7.913978576660156
1,52367,-168.49691772460938,360.2652587890625,-49.74497985839844,-39.855525970458984
1,52368,-113.0033187866211,-30.19842529296875,-39.22336959838867,-23.151214599609375
1,52371,29.873546600341797,100.57371520996094,20.243349075317383,10.201560974121094
1,52372,71.06387329101562,350.6025390625,35.387901306152344,36.578250885009766
1,52375,203.79942321777344,150.8741455078125,28.76400375366211,23.2654972076416
1,52376,154.21559143066406,-64.0278091430664,22.920757293701172,18.63262939453125
1,52379,-372.3413391113281,-581.1934204101562,-46.95452117919922,-33.65743637084961
1,52380,-359.2141418457031,-556.2107543945312,-69.89381408691406,-71.99810028076172
1,52383,158.3424835205078,628.6467895507812,39.00346755981445,21.226896286010742
1,52384,298.5346984863281,853.1758422851562,43.26658630371094,62.53499221801758
1,52387,129.22862243652344,-576.8193969726562,-34.2176399230957,11.425413131713867
1,52388,-138.3949432373047,-467.45721435546875,4.39125394821167,-19.018341064453125
1,52391,-121.87857818603516,430.5516357421875,14.059075355529785,-22.222694396972656
1,52392,52.755123138427734,117.5941162109375,-11.450615882873535,-14.012955665588379
1,52395,37.91022872924805,-164.56275939941406,-7.264718532562256,-6.23915433883667
1,52397,16.047182083129883,-63.49128723144531,-13.82126235961914,14.287837982177734
1,52399,30.776594161987305,20.585634231567383,30.79669761657715,20.000782012939453
1,52401,-23.493728637695312,-17.767335891723633,12.17066478729248,-12.335103034973145
1,52404,-27.625080108642578,-30.924001693725586,-32.12229537963867,19.956600189208984
1,52405,4.164059162139893,-1.1095068454742432,1.5981706380844116,9.961352348327637
1,52406,-10.597702026367188,13.91610050201416,1.0528428554534912,-20.78459358215332
1,52409,-15.91006088256836,47.54153060913086,-5.398216724395752,24.426555633544922
1,52410,-36.50968933105469,62.15015411376953,7.283875465393066,6.084866046905518
1,52413,-12.801193237304688,284.3937683105469,25.846464157104492,-26.722925186157227
1,52414,46.209171295166016,-100.07222747802734,19.648700714111328,-13.927495956420898
1,52417,-5.8468546867370605,-800.6409912109375,-41.806297302246094,-7.988473892211914
1,52418,-75.83280944824219,-125.16255187988281,-43.51354217529297,-17.277490615844727
1,52421,29.94024085998535,919.087646484375,27.645292282104492,41.97273635864258
1,52422,139.9938201904297,379.0439758300781,45.55104064941406,32.32637023925781
1,52425,21.16225242614746,-731.5897827148438,0.05367693677544594,-56.52403259277344
1,52426,-112.73632049560547,-223.396728515625,-29.93191909790039,-2.8722076416015625
1,52429,-39.99523162841797,410.7693786621094,-15.641880989074707,36.013877868652344
1,52430,46.38945388793945,25.427019119262695,1.9727845191955566,-30.262863159179688
1,52433,23.294530868530273,6.669478416442871,13.578750610351562,-28.20779800415039
1,52434,0.055811457335948944,41.99298858642578,22.577058792114258,35.95132827758789
1,52437,4.249870777130127,-140.9697265625,-1.3015179634094238,19.166141510009766
1,52438,14.373383522033691,-63.06624984741211,-16.069557189941406,-19.68937110900879
1,52441,7.869206428527832,63.9537239074707,0.0025774193927645683,7.791685104370117
1,52442,-17.47882652282715,-0.43833449482917786,-1.2152057886123657,-6.191507339477539
1,52445,-23.895448684692383,-66.12628173828125,6.419890403747559,-7.642899990081787
1,52446,-11.465269088745117,8.522015571594238,7.64115047454834,14.975010871887207
1,52449,0.5639378428459167,18.728727340698242,-0.46514415740966797,10.514909744262695
1,52450,-15.39139175415039,-19.68767738342285,-25.598575592041016,-7.621133327484131
1,52453,-10.527617454528809,34.454315185546875,-36.0164909362793,-5.976958751678467
1,52454,24.312639236450195,78.20889282226562,20.058807373046875,19.48041534423828
1,52457,25.005422592163086,-12.335112571716309,40.086456298828125,-13.035562515258789
1,52458,-1.3720762729644775,-51.63185501098633,0.9537191390991211,-17.55714988708496
1,52461,-21.318700790405273,55.9258918762207,6.913471698760986,-2.253927707672119
1,52462,28.377429962158203,92.19239044189453,8.567617416381836,-30.502534866333008
1,52465,4.910897731781006,-15.022857666015625,-34.044334411621094,8.085067749023438
1,52466,-72.18640899658203,-361.46697998046875,-18.071826934814453,52.98236083984375
1,52469,10.868106842041016,-262.8237609863281,9.39120101928711,-12.851709365844727
1,52470,39.405582427978516,540.7979736328125,22.557418823242188,-31.979284286499023
1,52473,4.372170448303223,395.1610107421875,1.6713348627090454,34.90969467163086
1,52474,1.7221260070800781,-378.98779296875,-8.115041732788086,32.9438362121582
1,52477,-6.933803558349609,-204.22177124023438,16.628887176513672,-24.009796142578125
1,52478,44.14246368408203,254.0034637451172,-4.755007743835449,-31.364349365234375
1,52481,-8.858692169189453,-57.0494499206543,-16.805612564086914,17.340373992919922
1,52482,-77.17668151855469,-596.7872314453125,-9.268729209899902,15.803050994873047
1,52485,-11.669134140014648,179.9977569580078,-0.6061276197433472,-27.727859497070312
1,52486,68.54647827148438,757.8619995117188,21.08491325378418,8.12109375
1,52489,46.88732147216797,49.16236877441406,7.636023044586182,21.862361907958984
1,52490,-55.747901916503906,-249.05455017089844,-23.495012283325195,-23.078413009643555
1,52493,-72.56293487548828,-244.6908721923828,10.410428047180176,-9.862384796142578
1,52494,-11.89964771270752,-41.55952072143555,11.097027778625488,8.536412239074707
1,52497,84.43321990966797,-99.23899841308594,-37.083919525146484,-11.911091804504395
1,52498,74.5748519897461,-222.16195678710938,-4.437915802001953,-2.0648109912872314
1,52501,-50.351993560791016,593.9732666015625,21.991905212402344,9.317227363586426
1,52502,-3.3283658027648926,328.443603515625,2.1045613288879395,20.30146026611328
1,52505,2.1558680534362793,-595.1275634765625,9.032319068908691,10.347795486450195
1,52506,-48.602901458740234,-120.78070068359375,17.384584426879883,-24.578155517578125
1,52509,-19.980545043945312,196.4395294189453,7.874660015106201,-8.561392784118652
1,52511,-57.36399459838867,119.88256072998047,-13.578031539916992,-11.79878044128418
1,52513,74.29904174804688,10.432329177856445,-24.164722442626953,0.618179202079773
1,52515,95.37224578857422,-131.84922790527344,8.620430946350098,44.42296600341797
1,52517,-77.74658966064453,121.99150085449219,6.5564494132995605,8.642483711242676
1,52519,-26.713790893554688,45.878929138183594,-25.67040252685547,-47.08231735229492
1,52521,36.12428283691406,-102.7994613647461,18.155689239501953,-13.370614051818848
1,52522,115.18931579589844,-57.13827896118164,21.150285720825195,19.020021438598633
1,52525,89.32608032226562,-332.4516906738281,-56.29637145996094,8.299869537353516
1,52526,-184.0595245361328,-269.0461730957031,-21.60814094543457,29.39788818359375
1,52529,-231.34754943847656,471.31719970703125,44.299102783203125,11.12504768371582
1,52530,-73.26376342773438,470.5204162597656,-6.8689141273498535,-44.48393630981445
1,52533,245.18299865722656,-334.56329345703125,9.542771339416504,-2.126027822494507
1,52534,231.95343017578125,-301.0571594238281,45.44535827636719,24.162240982055664
1,52537,-211.8833465576172,290.43524169921875,-2.7082338333129883,-15.26169490814209
1,52538,-112.38555908203125,299.660888671875,-22.282821655273438,-12.825276374816895
1,52541,148.09388732910156,-101.53953552246094,-24.193492889404297,-10.813169479370117
1,52542,10.248283386230469,-202.4703369140625,-4.620447158813477,17.449657440185547
1,52545,-59.235626220703125,85.86153411865234,14.71515941619873,4.7670183181762695
1,52546,33.780189514160156,126.73579406738281,4.862166404724121,-30.761423110961914
1,52549,61.09571075439453,-155.44517517089844,9.771513938903809,17.188779830932617
1,52550,48.583736419677734,-151.27720642089844,12.82839298248291,37.06566619873047
1,52553,-27.430828094482422,77.7547607421875,-29.334436416625977,-14.158164024353027
1,52554,-90.07069396972656,15.52221393585205,-22.051515579223633,-41.431026458740234
1,52557,-36.66666793823242,-41.53689193725586,28.2633056640625,25.341447830200195
1,52558,-2.7405285835266113,31.113006591796875,21.756898880004883,34.008548736572266
1,52561,-15.973029136657715,13.88004207611084,-14.441990852355957,-36.74678421020508
1,52562,10.318923950195312,14.215620994567871,-28.13445472717285,-2.8564181327819824
1,52565,42.63308334350586,47.4232292175293,17.22088623046875,23.396759033203125
1,52566,10.107279777526855,3.8928821086883545,4.1742424964904785,-9.083294868469238
1,52569,1.5809286832809448,-71.13257598876953,3.4816133975982666,-12.108463287353516
1,52570,8.046672821044922,-52.3949089050293,23.24526596069336,-9.140167236328125
1,52573,-1.737630844116211,22.748432159423828,-34.349273681640625,8.178751945495605
1,52574,5.207960605621338,45.492271423339844,-4.952505111694336,21.790855407714844
1,52577,-10.093358993530273,10.137463569641113,14.358881950378418,24.662248611450195
1,52578,-24.775218963623047,-23.37592315673828,-24.829561233520508,-3.103332996368408
1,52581,-1.0319559574127197,-6.874781131744385,11.752013206481934,-23.58134651184082
1,52582,10.428272247314453,26.67058753967285,33.68214797973633,-24.601808547973633
1,52585,-14.371834754943848,52.03609848022461,-14.856481552124023,-7.539908409118652
1,52586,6.956035137176514,9.101205825805664,-14.560935974121094,37.18440246582031
1,52589,28.497716903686523,-130.66415405273438,9.96056842803955,-16.93722915649414
1,52590,16.773502349853516,-41.88920593261719,-1.430611252784729,-36.58311080932617
1,52593,-13.673068046569824,193.38160705566406,-4.503210544586182,38.64628982543945
1,52594,-22.64849090576172,39.9767951965332,-10.387418746948242,24.39531707763672
1,52597,4.106227397918701,-218.6177520751953,7.267841815948486,-2.675901174545288
1,52598,-13.572507858276367,-39.84231948852539,17.520729064941406,-10.18651008605957
1,52601,-0.1383611261844635,175.45883178710938,-26.265623092651367,-26.48894500732422
1,52602,16.045581817626953,16.197744369506836,-15.672357559204102,10.993677139282227
1,52605,-3.87265682220459,-73.05802154541016,37.59846115112305,26.85091781616211
1,52606,2.4608261585235596,49.147281646728516,6.128021717071533,-17.920433044433594
1,52609,24.061552047729492,3.616459608078003,-19.640520095825195,-13.422850608825684
1,52610,27.686370849609375,-52.327003479003906,2.640648126602173,3.8747856616973877
1,52613,-50.28529357910156,-100.90003204345703,-8.08811092376709,-8.338338851928711
1,52614,-72.23263549804688,-70.23439025878906,8.423041343688965,6.580389022827148
1,52617,12.494146347045898,236.56251525878906,10.251474380493164,15.364916801452637
1,52618,65.12409210205078,117.41968536376953,-19.852401733398438,-7.92283821105957
1,52621,32.34524917602539,-205.83250427246094,20.58106231689453,15.497542381286621
1,52622,-50.83651351928711,-30.316604614257812,10.15126895904541,3.5740041732788086
1,52625,-5.097668647766113,92.61654663085938,-33.56693649291992,-57.24692916870117
1,52626,32.48127365112305,2.260934352874756,6.55594539642334,28.079404830932617
1,52629,-13.940096855163574,-22.09248161315918,9.721794128417969,43.42402267456055
1,52630,-1.873518705368042,-25.439470291137695,-2.250500202178955,-46.2786750793457
1,52633,-7.697949409484863,69.91312408447266,9.0330228805542,-7.434579849243164
1,52634,-0.9458496570587158,111.3558349609375,-2.371478319168091,21.177343368530273
1,52637,31.38749122619629,-117.40509033203125,-24.610166549682617,-10.997281074523926
1,52638,11.627388954162598,-231.0536346435547,4.479012489318848,-2.529093027114868
1,52641,-53.474884033203125,-137.59617614746094,29.405048370361328,5.412232875823975
1,52642,-26.24130630493164,146.8837890625,-19.789710998535156,6.707086086273193
1,52645,44.990257263183594,372.32940673828125,0.9066334366798401,16.251392364501953
1,52646,41.97190856933594,130.3946075439453,17.011810302734375,20.595081329345703
1,52649,-13.96948528289795,-265.77398681640625,-17.41392707824707,-9.859522819519043
1,52650,-63.591163635253906,-263.7196350097656,-5.11695671081543,-32.954532623291016
1,52654,1.2555509805679321,227.5506134033203,14.765067100524902,-3.9832329750061035
1,52655,48.85291290283203,181.6358184814453,5.155798435211182,12.291604042053223
1,52656,12.785185813903809,-254.52328491210938,-8.8806791305542,9.39340591430664
1,52659,-24.153539657592773,-52.03940963745117,8.130293846130371,6.244034767150879
1,52660,-25.365463256835938,155.9355926513672,-2.4252288341522217,-24.197874069213867
1,52663,3.0476531982421875,-27.341480255126953,0.4692455530166626,-20.69567108154297
1,52664,12.535438537597656,-78.0817642211914,0.8832495808601379,16.85161590576172
1,52667,-1.6206148862838745,30.87181854248047,-28.329055786132812,-1.613816738128662
1,52668,-7.752005577087402,36.88031005859375,11.725305557250977,8.156082153320312
1,52671,14.151631355285645,-123.1549072265625,17.979835510253906,-4.517484664916992
1,52672,22.6644287109375,-86.702880859375,-5.5921101570129395,-10.851455688476562
1,52675,10.170585632324219,215.8694610595703,-0.07029080390930176,24.761043548583984
1,52676,-16.097244262695312,174.54579162597656,-26.68089485168457,1.0174241065979004
1,52679,-26.658510208129883,-130.84768676757812,-7.4771952629089355,-2.403846263885498
1,52680,0.9740744233131409,-132.6424560546875,16.552570343017578,0.24261055886745453
1,52683,7.33760929107666,29.756378173828125,1.0831987857818604,-9.457526206970215
1,52684,8.832807540893555,45.121681213378906,8.06949234008789,8.434897422790527
1,52687,5.10223388671875,-8.787154197692871,5.1877760887146,9.657976150512695
1,52688,-26.417692184448242,-34.880001068115234,-13.653728485107422,-14.114686965942383
1,52691,-4.55740213394165,0.878724217414856,-2.4883244037628174,-9.151511192321777
1,52692,29.149837493896484,36.03437805175781,27.95613670349121,11.178651809692383
1,52695,0.9677494764328003,11.688121795654297,4.3721489906311035,7.911966800689697
1,52696,-12.705243110656738,2.0041773319244385,-20.431421279907227,-15.433167457580566
1,52699,11.40997314453125,12.16400146484375,10.087087631225586,-16.432153701782227
1,52700,-7.787513256072998,-1.4070641994476318,25.438138961791992,15.70693302154541
1,52703,-7.097227573394775,-23.80132484436035,-13.544976234436035,15.053812026977539
1,52704,26.318593978881836,-18.662857055664062,-30.834850311279297,-23.46059799194336
1,52707,-22.36865234375,-8.629861831665039,8.25036334991455,19.436317443847656
1,52708,-24.450162887573242,1.240053653717041,16.787321090698242,43.49263381958008
1,52711,40.255859375,20.27556610107422,-19.17082405090332,-44.80841827392578
1,52712,10.617324829101562,18.160572052001953,-11.686734199523926,-21.223657608032227
1,52715,-22.972230911254883,-10.40176773071289,11.73974323272705,38.302703857421875
1,52716,-0.39926981925964355,-11.200422286987305,-19.733213424682617,-0.0034236758947372437
1,52719,-7.473949909210205,6.112973690032959,-4.4565653800964355,-34.899898529052734
1,52720,-12.05400562286377,-9.538738250732422,41.27262496948242,-9.860027313232422
1,52723,15.949172019958496,-3.760765552520752,13.778312683105469,41.192073822021484
1,52724,-1.0056962966918945,2.627281904220581,-20.80925750732422,5.877049446105957
1,52727,-9.455856323242188,2.683789014816284,-6.200064659118652,-40.87095260620117
1,52728,22.474384307861328,25.51920509338379,10.429422378540039,10.281352996826172
1,52731,-7.585352897644043,-6.067218780517578,-19.3879337310791,11.050207138061523
1,52732,-13.687676429748535,-34.064857482910156,-7.828765869140625,-7.357335090637207
1,52735,23.464282989501953,-3.250114917755127,26.730070114135742,17.931331634521484
1,52736,-1.9757877588272095,22.62717056274414,-3.975809335708618,-8.078573226928711
1,52739,-8.617891311645508,8.859620094299316,-7.723355770111084,-6.31020450592041
1,52740,-2.6839280128479004,-2.7485005855560303,8.150528907775879,-3.016662836074829
1,52743,-13.056480407714844,7.341940402984619,-6.905196189880371,4.310815811157227
1,52744,13.950815200805664,0.14397260546684265,-0.5723598003387451,18.254602432250977
1,52747,13.419707298278809,-3.8975906372070312,5.963617324829102,-3.475250482559204
1,52748,-13.627074241638184,-12.625514030456543,-21.318735122680664,1.7953290939331055
1,52751,-11.206245422363281,-7.537158966064453,0.0009440071880817413,-57.973655700683594
1,52752,15.043079376220703,17.651613235473633,32.481040954589844,-21.305530548095703
1,52755,7.042436122894287,7.521966457366943,15.956915855407715,97.18230438232422
1,52756,-2.4284439086914062,-25.781679153442383,-4.408523082733154,7.147335052490234
1,52759,12.96276569366455,1.5426007509231567,-12.169281959533691,-43.179996490478516
1,52760,-14.463590621948242,33.50006103515625,-22.2636775970459,-2.0513436794281006
1,52763,-14.79906940460205,-20.496965408325195,-15.303454399108887,-3.003218412399292
1,52764,28.426025390625,-35.60969161987305,7.5196404457092285,23.980335235595703
1,52767,-13.92198657989502,-3.2973899841308594,-21.965381622314453,-27.18878936767578
1,52768,-81.9072265625,25.932146072387695,6.768158435821533,-49.88461685180664
1,52771,72.59404754638672,39.583534240722656,70.37177276611328,45.0483512878418
1,52772,130.5286865234375,0.17273710668087006,20.54003143310547,46.32277297973633
1,52775,-75.80297088623047,-26.17843246459961,-45.90312194824219,7.3689069747924805
1,52776,-105.22209167480469,-24.206722259521484,-47.73301696777344,-16.97906494140625
1,52779,-1.563027262687683,6.234428405761719,18.087793350219727,-36.51002502441406
1,52780,38.50798416137695,10.147058486938477,27.24134635925293,2.6090097427368164
1,52783,26.539569854736328,-9.718083381652832,-27.176706314086914,5.70991849899292
1,52784,-7.707875728607178,17.92158317565918,10.09227466583252,-5.897816181182861
1,52787,-26.601364135742188,19.588973999023438,20.596384048461914,8.98498249053955
1,52788,3.8322792053222656,-2.9391958713531494,-3.5363855361938477,18.784271240234375
1,52791,6.732649803161621,-29.71483612060547,-10.530740737915039,0.9737627506256104
1,52792,6.639355659484863,-22.73287010192871,-32.882965087890625,-17.21381187438965
1,52795,36.384300231933594,38.25015640258789,5.502422332763672,-0.5607396960258484
1,52797,-1.5946195125579834,11.114129066467285,36.06829071044922,-11.845804214477539
1,52800,-38.39403533935547,-19.207693099975586,3.3592801094055176,-17.11435317993164
1,52801,-6.510354995727539,21.938623428344727,-12.665464401245117,-2.4427194595336914
1,52803,38.21895217895508,1.4928114414215088,24.842487335205078,48.33500289916992
1,52805,-6.528948783874512,-20.660919189453125,-1.4544340372085571,35.96111297607422
1,52807,-24.300031661987305,-6.002594470977783,-30.654216766357422,-45.56589126586914
1,52809,24.39853286743164,-1.139878749847412,16.157522201538086,-16.16790199279785
1,52811,-28.633991241455078,-7.336721897125244,-16.761611938476562,-8.689950942993164
1,52813,-34.83147048950195,-12.7999267578125,-28.700977325439453,8.794675827026367
1,52815,46.481536865234375,20.295488357543945,27.505422592163086,38.79570007324219
1,52817,15.02485466003418,24.378721237182617,8.27929401397705,-35.92136001586914
1,52819,-24.325702667236328,-14.579371452331543,-6.830556869506836,-19.972150802612305
1,52821,14.187240600585938,-11.776884078979492,4.500008583068848,37.083648681640625
1,52823,21.982654571533203,2.9469735622406006,-12.331347465515137,9.127703666687012
1,52825,2.9607207775115967,15.976239204406738,19.52291488647461,-0.035730693489313126
1,52827,-16.519752502441406,2.464081287384033,19.37474250793457,-16.351293563842773
1,52829,-29.955326080322266,-8.678500175476074,-12.319694519042969,-14.491886138916016
1,52831,2.831641674041748,-3.509539842605591,3.3297226428985596,17.79264259338379
1,52833,28.90765380859375,-6.125238418579102,-18.388301849365234,-0.5088722705841064
1,52835,-8.20004940032959,4.736764907836914,-10.364459037780762,-3.657413959503174
1,52837,-8.498479843139648,7.505772590637207,18.22492027282715,-3.629539966583252
1,52839,9.48325252532959,7.57848596572876,2.314697027206421,-11.896769523620605
1,52841,-16.89877700805664,-25.5710506439209,-12.398935317993164,1.1508833169937134
1,52843,-0.21436607837677002,-24.50875473022461,-11.717066764831543,10.102682113647461
1,52845,17.710895538330078,16.288414001464844,14.618650436401367,23.445728302001953
1,52847,10.580180168151855,25.742876052856445,13.970976829528809,-9.26993465423584
1,52849,3.2207260131835938,4.62512731552124,1.4698103666305542,-41.51095962524414
1,52851,-25.259090423583984,-15.464028358459473,-12.221747398376465,2.437906265258789
1,52853,-12.976200103759766,16.223487854003906,-13.058710098266602,38.3165168762207
1,52855,13.483882904052734,5.2141432762146,29.465024948120117,23.61219024658203
1,52857,0.5239218473434448,-16.65237808227539,6.417791843414307,-0.7670595049858093
1,52859,4.435338497161865,11.862959861755371,-20.495229721069336,-24.92369270324707
1,52861,10.905756950378418,-9.20167350769043,1.9765844345092773,-24.756303787231445
1,52863,5.478158473968506,-10.754432678222656,-12.31227970123291,-4.190810203552246
1,52865,8.958361625671387,28.413280487060547,-9.190723419189453,5.443457126617432
1,52867,-20.34408187866211,-28.024364471435547,-9.005422592163086,-28.571664810180664
1,52869,-41.4738883972168,-35.8134880065918,-21.715974807739258,-13.791461944580078
1,52871,10.247796058654785,37.57548522949219,41.58470916748047,55.695457458496094
1,52873,35.83803939819336,22.59107208251953,32.36320114135742,38.66898727416992
1,52875,2.9906728267669678,-8.312810897827148,-28.083620071411133,2.5746066570281982
1,52877,-5.901979446411133,-12.208786964416504,18.21478843688965,-21.24584197998047
1,52879,-16.76522445678711,5.242434024810791,7.702908992767334,-39.81153869628906
1,52881,-5.583255767822266,3.775599479675293,-25.595823287963867,-1.3626550436019897
1,52883,24.809410095214844,0.06298624724149704,8.833954811096191,37.941104888916016
1,52885,4.153680801391602,-5.749342918395996,18.538694381713867,30.52095603942871
1,52887,-8.513463020324707,-11.281111717224121,-11.9035005569458,-8.89676570892334
1,52889,8.76402759552002,27.05496597290039,-27.18187141418457,-41.90404510498047
1,52891,6.637810230255127,3.266063690185547,12.202829360961914,-9.158550262451172
1,52893,-10.876383781433105,-32.57965087890625,-1.1737738847732544,7.926217555999756
1,52895,-20.32017707824707,-9.320503234863281,-15.451361656188965,4.621464729309082
1,52897,-3.9520726203918457,7.125218868255615,7.330388069152832,-1.2267237901687622
1,52899,8.516818046569824,1.3271766901016235,-12.27933120727539,-17.907638549804688
1,52901,6.1552605628967285,17.614255905151367,4.411023139953613,6.10140323638916
1,52903,17.328609466552734,10.675370216369629,25.005596160888672,8.874749183654785
1,52905,-10.960257530212402,-13.991218566894531,-1.4214812517166138,0.7403232455253601
1,52907,-22.22290802001953,3.0206007957458496,-4.819051742553711,9.098469734191895
1,52909,9.36014461517334,-7.82887601852417,19.8404541015625,12.449524879455566
1,52910,6.529400825500488,-3.7749500274658203,-20.815340042114258,-10.890900611877441
1,52913,-1.3601365089416504,15.82707691192627,-35.381858825683594,-30.701677322387695
1,52914,8.544191360473633,-4.513012409210205,43.966583251953125,16.273984909057617
1,52917,4.149755001068115,-7.073713779449463,27.693418502807617,25.200855255126953
1,52918,-10.208028793334961,12.812894821166992,-31.089754104614258,-27.523338317871094
1,52921,7.131570816040039,4.176784515380859,-9.48952865600586,3.773094892501831
1,52922,0.06488959491252899,-23.640277862548828,-2.2708959579467773,32.491249084472656
1,52925,-12.875791549682617,-0.5640339255332947,20.883068084716797,-4.29640531539917
1,52926,7.095763683319092,28.147857666015625,9.632442474365234,-20.777868270874023
1,52929,-2.1926050186157227,2.2050271034240723,-35.277793884277344,-1.9319831132888794
1,52930,3.2661240100860596,-10.732075691223145,7.531094074249268,4.580494403839111
1,52933,16.337875366210938,-7.8443169593811035,7.292899131774902,-20.14326286315918
1,52934,-13.591139793395996,-14.07304859161377,-38.201934814453125,-2.994685173034668
1,52937,-14.991560935974121,4.750161647796631,3.2278122901916504,8.514262199401855
1,52938,6.3836164474487305,11.705681800842285,67.77928161621094,-7.082390308380127
1,52941,-0.9050155282020569,-5.6090850830078125,0.7075722813606262,19.692596435546875
1,52942,-4.951384544372559,-0.9478411078453064,-77.50738525390625,15.050949096679688
1,52945,-6.60387659072876,5.304046630859375,19.521888732910156,-21.25778579711914
1,52946,-2.4931633472442627,-21.24781036376953,60.08147048950195,4.878484725952148
1,52949,24.26687240600586,0.694573700428009,-29.826772689819336,7.1096906661987305
1,52950,10.406639099121094,34.89681625366211,-29.896472930908203,-8.751900672912598
1,52953,-8.29492473602295,-11.178576469421387,4.6642632484436035,17.0701961517334
1,52954,-7.275508403778076,-20.880800247192383,4.803689002990723,-5.094687461853027
1,52957,-21.421184539794922,13.287734031677246,9.066643714904785,-30.94773292541504
1,52958,14.490411758422852,6.882822513580322,3.939753532409668,-8.808242797851562
1,52961,22.901647567749023,5.8668012619018555,6.812315940856934,32.12525939941406
1,52963,-21.66114044189453,16.213298797607422,3.6768925189971924,15.402750968933105
1,52965,-15.408151626586914,2.9494740962982178,-11.690411567687988,-24.031322479248047
1,52967,17.382457733154297,-18.091493606567383,-4.071117877960205,23.787500381469727
1,52969,11.558981895446777,-29.34787368774414,0.687465488910675,7.60609769821167
1,52971,-16.704513549804688,-10.25271224975586,4.035151958465576,-44.55974197387695
1,52973,3.7013580799102783,4.884705543518066,2.4814724922180176,5.3784637451171875
1,52975,17.277015686035156,27.101314544677734,-3.455091953277588,26.678499221801758
1,52977,-10.414525032043457,15.317445755004883,8.332560539245605,-13.078648567199707
1,52979,-4.555336952209473,-31.523513793945312,-10.219383239746094,-11.662202835083008
1,52981,6.0483293533325195,10.828475952148438,-8.839957237243652,24.5241641998291
1,52983,-7.7913594245910645,27.11885643005371,13.155106544494629,17.735036849975586
1,52985,12.054208755493164,-31.221559524536133,-12.274208068847656,-28.395727157592773
1,52987,14.491023063659668,-11.189948081970215,8.060749053955078,-20.481523513793945
1,52989,-15.838883399963379,27.067054748535156,25.58901023864746,14.63058853149414
1,52991,-3.270904302597046,3.153917074203491,-23.661239624023438,-3.757828712463379
1,52993,-7.950948715209961,-3.090061902999878,-4.786739349365234,9.597641944885254
1,52995,-23.769737243652344,-5.499696254730225,24.7627010345459,21.241212844848633
1,52997,19.34542465209961,-21.540264129638672,-31.60881233215332,-20.22974967956543
1,52999,25.6846866607666,-2.146428108215332,-25.27400779724121,2.5721099376678467
1,53001,-11.377285957336426,23.761484146118164,45.58116149902344,-0.7271550893783569
1,53003,-9.244255065917969,18.052804946899414,3.6730294227600098,-16.777868270874023
1,53005,-1.0916166305541992,-17.084596633911133,-30.57980728149414,21.576671600341797
1,53007,5.102267742156982,-26.56215476989746,18.337526321411133,-16.188552856445312
1,53009,2.4177064895629883,13.464789390563965,15.607007026672363,-26.518640518188477
1,53011,-2.7373838424682617,19.435039520263672,-13.595519065856934,17.755016326904297
1,53013,5.130125045776367,-16.456003189086914,-14.73351764678955,5.786789417266846
1,53015,-4.757685661315918,5.8357834815979,22.60620880126953,27.81576919555664
1,53017,-6.274595737457275,35.757625579833984,14.831623077392578,32.618019104003906
1,53019,11.16739559173584,-28.166181564331055,-39.43416976928711,-39.82354736328125
1,53021,9.241632461547852,-38.53487777709961,-20.533296585083008,-49.33026123046875
1,53023,-21.221446990966797,12.543412208557129,8.787468910217285,-4.629127502441406
1,53025,-10.694864273071289,8.987040519714355,29.414762496948242,12.079035758972168
1,53027,11.604225158691406,1.2131884098052979,24.236221313476562,35.15991973876953
1,53029,-5.3681135177612305,28.618282318115234,-13.320863723754883,35.99876403808594
1,53031,14.040050506591797,-0.18242838978767395,-17.69272804260254,-27.311965942382812
1,53033,4.051499366760254,-29.650754928588867,-6.131688594818115,-14.693460464477539
1,53035,-11.07374095916748,17.68674087524414,18.65947151184082,13.077207565307617
1,53037,11.526439666748047,-12.900851249694824,2.5171115398406982,-27.63067626953125
1,53039,-5.835642337799072,-5.580892562866211,-2.979269504547119,18.088285446166992
1,53041,-4.105660915374756,22.050479888916016,5.707387447357178,43.64613342285156
1,53043,9.021566390991211,-27.686355590820312,-7.687234401702881,-26.028759002685547
1,53045,-2.1548349857330322,10.584718704223633,-3.6767828464508057,-22.551530838012695
1,53047,-10.013463973999023,21.328384399414062,-17.976146697998047,16.345359802246094
1,53049,-10.864863395690918,-28.163368225097656,-22.73655891418457,-38.7861442565918
1,53051,4.321360111236572,4.924741744995117,25.268661499023438,-23.658723831176758
1,53053,17.1776065826416,10.789283752441406,35.426944732666016,68.73150634765625
1,53055,9.365796089172363,-25.963665008544922,-20.88961410522461,7.977678298950195
1,53057,-12.071188926696777,17.74827766418457,2.196565628051758,-51.52449035644531
1,53059,-15.764370918273926,37.316532135009766,24.97976303100586,7.656527519226074
1,53061,17.486337661743164,-28.635448455810547,-30.17800521850586,23.08893394470215
1,53063,26.60654067993164,-24.21053123474121,-20.988018035888672,-14.465690612792969
1,53065,-26.91429901123047,24.68351173400879,21.12639808654785,8.226807594299316
1,53067,-20.40688705444336,13.155138969421387,16.384815216064453,49.27055358886719
1,53069,33.041263580322266,-11.497028350830078,-9.694485664367676,-22.85603904724121
1,53071,-6.1144537925720215,-28.089025497436523,-34.917503356933594,-74.4866714477539
1,53073,-30.90420913696289,4.322749614715576,5.316501140594482,31.387256622314453
1,53075,13.732295036315918,35.66965103149414,35.95979309082031,54.19881057739258
1,53077,5.698166370391846,-11.491827011108398,-4.959903240203857,-25.365013122558594
1,53079,-3.724201202392578,-10.036911010742188,-10.205425262451172,-25.611711502075195
1,53081,9.89322566986084,5.674887180328369,-2.446892261505127,-0.3480380177497864
1,53083,-3.050861120223999,4.8242692947387695,-8.252025604248047,0.36858436465263367
1,53085,-6.089104175567627,6.647624492645264,18.372098922729492,0.9117648005485535
1,53087,-9.671347618103027,-30.167959213256836,13.539655685424805,37.163631439208984
1,53089,6.10605525970459,2.976710081100464,-21.12303924560547,-2.3165652751922607
1,53091,6.855242729187012,24.25678825378418,1.7415019273757935,-34.921207427978516
1,53093,-3.4169206619262695,-3.410513401031494,12.597580909729004,7.642920017242432
1,53095,1.6370108127593994,-12.968337059020996,-5.768974304199219,6.460720539093018
1,53096,5.354928493499756,-9.732429504394531,-10.461165428161621,-10.389242172241211
1,53099,12.424285888671875,14.857234001159668,-2.5619654655456543,-21.463226318359375
1,53100,-6.843106746673584,-4.905324935913086,9.502731323242188,11.598004341125488
1,53103,-10.927801132202148,-12.862911224365234,-13.861903190612793,25.8496036529541
1,53104,2.731290102005005,8.647826194763184,-2.5483622550964355,-6.572525978088379
1,53107,-1.5417637825012207,-2.7248404026031494,23.5966796875,-1.2894774675369263
1,53108,-15.73205280303955,6.190267086029053,-2.9089033603668213,9.720991134643555
1,53111,4.0878071784973145,6.133642196655273,-5.018925189971924,-18.418874740600586
1,53112,26.157516479492188,-8.659937858581543,-7.488714218139648,8.528947830200195
1,53115,-7.220526218414307,10.093283653259277,0.7796604037284851,23.67253303527832
1,53116,-14.459223747253418,13.433845520019531,22.930349349975586,-19.34928321838379
1,53119,15.425840377807617,2.456865072250366,-13.80705451965332,-12.180920600891113
1,53120,6.054434299468994,-2.7125937938690186,-13.060578346252441,1.0743603706359863
1,53123,-12.100257873535156,-23.57982063293457,9.943105697631836,12.240978240966797
1,53124,15.287590980529785,-1.7833123207092285,-12.45702838897705,14.833488464355469
1,53127,5.032284736633301,25.886913299560547,11.392492294311523,-7.293827533721924
1,53128,-20.619890213012695,-5.298868656158447,16.118253707885742,-1.8722989559173584
1,53131,0.8894119262695312,-10.297691345214844,-12.02138900756836,-1.9471380710601807
1,53132,-4.832901954650879,-1.3932735919952393,14.008011817932129,-9.767054557800293
1,53135,-0.6062270998954773,-6.9622802734375,-4.72761869430542,-4.70510721206665
1,53138,0.5599641799926758,-8.201776504516602,-30.606271743774414,-0.45908671617507935
1,53139,-9.680060386657715,14.738006591796875,0.12954263389110565,9.29749584197998
1,53140,-4.3456220626831055,8.860614776611328,24.03411865234375,0.08195874840021133
