Aktueller Finger,timestamp_ms,sensor_0,sensor_1,sensor_2,sensor_3
0,1489859,34.52592086791992,11.376503944396973,0.34383848309516907,50.05875778198242
0,1489861,-15.940339088439941,-21.44881248474121,-12.767498016357422,67.07587432861328
0,1489863,-33.389915466308594,-3.7636191844940186,3.2634949684143066,-32.926368713378906
0,1489865,24.681869506835938,34.15481948852539,-0.549435019493103,-4.15657377243042
0,1489867,20.80229949951172,-1.800276756286621,-0.5194039344787598,22.623764038085938
0,1489869,-29.00218391418457,-42.0411262512207,-3.6331279277801514,-37.65072250366211
0,1489871,2.861469030380249,-13.945666313171387,-27.679378509521484,0.6209338307380676
0,1489881,26.926651000976562,39.63429641723633,5.255246162414551,47.593955993652344
0,1489881,-13.10858154296875,13.416817665100098,31.112838745117188,4.2798991203308105
0,1489881,-9.721229553222656,-21.8664493560791,-4.849522590637207,-18.991701126098633
0,1489881,28.29642105102539,-1.684874176979065,-9.632669448852539,-9.428762435913086
0,1489881,-0.2537653148174286,-14.110956192016602,1.04673171043396,1.7113271951675415
0,1489883,-35.26436233520508,16.13832664489746,47.02896499633789,-12.024009704589844
0,1489885,19.821552276611328,21.250232696533203,5.268990993499756,-54.90414810180664
0,1489887,9.423426628112793,-32.17900466918945,-73.181396484375,0.48111510276794434
0,1489889,-20.51426124572754,-2.3534326553344727,10.808090209960938,64.39797973632812
0,1489891,8.136346817016602,25.871620178222656,37.08122634887695,23.843717575073242
0,1489893,-11.997090339660645,-3.5522515773773193,-15.273927688598633,-10.082551002502441
0,1489895,5.376450538635254,-11.75146198272705,-4.31136417388916,-15.67772102355957
0,1489897,15.003942489624023,-4.631032943725586,-12.384007453918457,-56.03195571899414
0,1489899,-17.202775955200195,-9.94872760772705,-19.358383178710938,-20.21844482421875
0,1489901,6.324354648590088,22.649925231933594,11.287768363952637,87.50651550292969
0,1489903,17.81932258605957,32.4300651550293,31.76704978942871,33.40776824951172
0,1489926,-7.772493362426758,-20.110729217529297,16.446687698364258,-58.303401947021484
0,1489926,-12.796345710754395,-34.44145584106445,-22.666452407836914,0.6520312428474426
0,1489926,1.3616161346435547,14.18209171295166,-8.46601390838623,26.3317813873291
0,1489926,14.802976608276367,28.903928756713867,11.926200866699219,-26.777999877929688
0,1489927,13.395639419555664,-5.645365238189697,7.4878315925598145,-20.649009704589844
0,1489927,-23.544540405273438,-10.23565673828125,4.399013519287109,18.832313537597656
0,1489927,-20.529754638671875,3.4870386123657227,-20.86429214477539,25.129581451416016
0,1489927,22.50164222717285,-15.850634574890137,-16.868722915649414,-11.981562614440918
0,1489927,1.0685806274414062,-25.542076110839844,9.28522777557373,-13.446256637573242
0,1489928,-16.08582878112793,21.810565948486328,-4.8442511558532715,32.25633239746094
0,1489928,-4.887450218200684,17.878366470336914,-4.153153419494629,-0.37126249074935913
0,1489929,-0.7061179876327515,-19.274044036865234,4.217310905456543,-25.77053451538086
0,1489929,5.1561760902404785,-8.424450874328613,-36.63470458984375,-2.0383291244506836
0,1489930,4.4501800537109375,24.498899459838867,19.917509078979492,-29.083694458007812
0,1489933,18.193479537963867,22.5485782623291,63.26433563232422,-7.225788593292236
0,1489934,2.6958959102630615,-28.267406463623047,-3.727123737335205,42.29145812988281
0,1489937,-12.883891105651855,-8.95701789855957,-12.873212814331055,15.940756797790527
0,1489938,-2.9116809368133545,22.136014938354492,-12.229933738708496,8.05119514465332
0,1489941,-1.6585829257965088,-16.286996841430664,1.8700594902038574,5.058398723602295
0,1489943,23.930036544799805,-12.119511604309082,15.005827903747559,-14.342494010925293
0,1489945,-4.224810600280762,20.94442367553711,-10.291899681091309,-7.594315052032471
0,1489947,-30.700054168701172,-0.9499713182449341,-6.737933158874512,-16.01028060913086
0,1489949,26.90969467163086,-3.9547057151794434,-9.897604942321777,-10.56033706665039
0,1489951,15.574007034301758,23.41666030883789,-0.26306259632110596,10.042017936706543
0,1489953,-24.955059051513672,-15.255311965942383,-2.5055899620056152,-2.440572500228882
0,1490067,-15.714871406555176,0.251708060503006,-2.4623379707336426,15.543066024780273
0,1490068,12.185977935791016,35.21347427368164,55.55156326293945,23.4155330657959
0,1490068,22.586584091186523,-34.627166748046875,-29.496734619140625,-42.40620422363281
0,1490068,0.884628176689148,-32.117774963378906,-24.31493377685547,-2.8113763332366943
0,1490068,-21.85877227783203,34.690399169921875,33.005775451660156,25.950393676757812
0,1490068,-7.118704319000244,24.301000595092773,6.598899841308594,-7.97642183303833
0,1490068,3.865607500076294,-24.63053321838379,-14.850713729858398,-4.648767948150635
0,1490069,-2.2978382110595703,-25.070554733276367,-6.192197799682617,3.686626434326172
0,1490069,6.172636985778809,28.789901733398438,5.607655048370361,-6.9993791580200195
0,1490069,6.692172050476074,1.0219311714172363,-22.909587860107422,-16.851564407348633
0,1490069,-13.982207298278809,-41.23301315307617,-5.059650421142578,14.67264175415039
0,1490069,1.4231621026992798,18.073766708374023,23.437515258789062,14.640726089477539
0,1490069,0.8718951940536499,25.484088897705078,2.5565946102142334,-9.457809448242188
0,1490070,-2.1511688232421875,-24.274578094482422,19.274608612060547,-0.37636488676071167
0,1490070,14.75790786743164,8.055885314941406,-9.371696472167969,-2.5301735401153564
0,1490070,1.3229924440383911,24.19867706298828,-14.117151260375977,8.731651306152344
0,1490070,-9.323355674743652,-17.828983306884766,11.990067481994629,23.138835906982422
0,1490070,-13.52853775024414,-20.491727828979492,7.626358985900879,-14.482552528381348
0,1490070,11.031123161315918,13.636735916137695,12.187684059143066,-25.270320892333984
0,1490071,15.786409378051758,6.223291873931885,-25.3890438079834,-5.561399459838867
0,1490071,-19.53546142578125,-7.255409240722656,-27.13978385925293,-2.6079466342926025
0,1490071,-23.172212600708008,23.1090087890625,19.222755432128906,9.083355903625488
0,1490071,7.061299800872803,-5.95699405670166,14.037875175476074,-11.515881538391113
0,1490071,31.605247497558594,-17.064350128173828,-1.506321668624878,-5.7767109870910645
0,1490073,15.260875701904297,23.006736755371094,5.513123989105225,28.942228317260742
0,1490073,-7.095095157623291,14.342521667480469,-0.33798664808273315,13.309337615966797
0,1490073,-17.909748077392578,-12.307188987731934,-7.81111478805542,-11.797966957092285
0,1490074,0.9270978569984436,3.009660243988037,17.137405395507812,-4.210606575012207
0,1490077,15.849040031433105,7.2895307540893555,1.6915489435195923,7.538677215576172
0,1490078,-12.310625076293945,-31.009981155395508,-22.5128116607666,11.753399848937988
0,1490081,-16.630268096923828,-10.640612602233887,25.23264503479004,-5.9388628005981445
0,1490082,4.746806621551514,19.259963989257812,-3.752927541732788,-12.275328636169434
0,1490085,3.5617339611053467,9.206582069396973,-42.79848098754883,20.441078186035156
0,1490086,16.744047164916992,-10.374547958374023,8.16511344909668,5.8289875984191895
0,1490089,10.074538230895996,-29.66196060180664,34.34431838989258,-48.21259689331055
0,1490090,-26.958599090576172,3.2576987743377686,14.19486141204834,-40.802818298339844
0,1490093,4.012900352478027,17.825145721435547,-58.526145935058594,40.80620574951172
0,1490094,-0.29072001576423645,-15.433072090148926,-43.78452682495117,41.20446014404297
0,1490097,-11.191520690917969,6.429133415222168,59.424034118652344,0.8323988914489746
0,1490099,22.633573532104492,32.842342376708984,53.66897201538086,-0.8864737749099731
0,1490157,6.404558181762695,5.464828014373779,-2.1308867931365967,-18.791048049926758
0,1490157,-4.02958345413208,-3.211507797241211,-42.30287551879883,-17.463924407958984
0,1490157,-18.68231201171875,-2.826465606689453,3.8057377338409424,20.25293731689453
0,1490157,-8.341622352600098,-21.105113983154297,43.2737922668457,17.726348876953125
0,1490158,16.34859275817871,-5.881823539733887,-29.500308990478516,-31.871856689453125
0,1490158,-28.199745178222656,0.6669168472290039,-23.7554874420166,9.077157020568848
0,1490158,-10.611862182617188,2.4722390174865723,19.557592391967773,33.20275115966797
0,1490158,43.928714752197266,19.24883460998535,-9.877023696899414,-36.51768112182617
0,1490158,4.320946216583252,-24.30571937561035,-19.662776947021484,-9.083495140075684
0,1490158,-15.263805389404297,-10.538135528564453,5.16928768157959,14.422226905822754
0,1490159,6.118630409240723,33.28805923461914,19.16986656188965,-24.338830947875977
0,1490159,6.851646423339844,-2.973196268081665,-2.9910435676574707,10.766121864318848
0,1490159,1.608936071395874,-21.258485794067383,-20.183866500854492,4.955419540405273
0,1490159,0.47940775752067566,6.370584964752197,8.8074312210083,-5.748404026031494
0,1490159,0.2140411138534546,13.854696273803711,15.172411918640137,26.98040008544922
0,1490159,-13.575211524963379,1.235481858253479,-0.5657265186309814,-13.956786155700684
0,1490160,-7.391994476318359,-11.927827835083008,2.425849199295044,-12.102642059326172
0,1490160,-3.171236276626587,-3.244098424911499,-9.174321174621582,22.256093978881836
0,1490160,-1.8514245748519897,-1.5393253564834595,-24.007728576660156,-12.730472564697266
0,1490160,10.185235023498535,-11.876484870910645,17.714092254638672,-9.82180404663086
0,1490160,-5.26024055480957,5.890934944152832,28.2858829498291,9.105605125427246
0,1490160,-14.769432067871094,-1.8433204889297485,-10.213020324707031,0.7702381014823914
0,1490161,17.32319450378418,1.0356858968734741,-10.554708480834961,-11.813206672668457
0,1490161,11.891995429992676,22.1967716217041,-12.33120059967041,-0.02436373382806778
0,1490161,-9.617023468017578,32.469303131103516,-7.2670159339904785,15.487700462341309
0,1490161,23.77088737487793,-12.587964057922363,-5.9568986892700195,5.145979881286621
0,1490161,-8.347371101379395,-38.26197814941406,12.45902156829834,24.519306182861328
0,1490162,-28.100048065185547,-4.219188690185547,7.068990230560303,-8.880749702453613
0,1490162,27.988779067993164,17.963132858276367,-6.638688087463379,-29.061420440673828
0,1490163,13.479801177978516,-0.4410656988620758,26.334352493286133,17.16457176208496
0,1490163,-23.987226486206055,-5.455349922180176,5.13086462020874,-2.3248260021209717
0,1490163,3.354283332824707,27.348054885864258,-21.680051803588867,-18.32455062866211
0,1490165,20.77128028869629,-1.791050910949707,-1.2095931768417358,16.14037322998047
0,1490167,5.43822717666626,7.52591609954834,34.42355728149414,21.72060775756836
0,1490169,-25.933534622192383,-19.477014541625977,9.027000427246094,-6.749730587005615
0,1490171,-29.445541381835938,-46.03688430786133,-34.84716033935547,-17.59758758544922
0,1490173,15.302379608154297,22.321138381958008,-28.90808868408203,-27.436092376708984
0,1490175,19.225086212158203,16.712745666503906,2.78041934967041,3.611558437347412
0,1490177,5.514983654022217,12.15174388885498,23.648574829101562,30.19038200378418
0,1490179,-33.438045501708984,4.670182228088379,5.428157806396484,-29.341161727905273
0,1490181,-18.055879592895508,-15.50148868560791,9.515315055847168,-5.185739994049072
0,1490183,61.64717102050781,2.7640485763549805,-11.190659523010254,49.03248977661133
0,1490185,3.6358282566070557,-11.595661163330078,-27.364898681640625,1.7498536109924316
0,1490186,-47.477516174316406,-23.86772918701172,24.04819107055664,-22.410938262939453
0,1490250,7.085808277130127,-3.6491613388061523,-14.94555377960205,-52.224002838134766
0,1490251,-1.5547438859939575,-3.0645148754119873,-42.66736602783203,-44.47807312011719
0,1490251,-8.70264720916748,3.5960073471069336,48.389915466308594,40.12744140625
0,1490251,16.157258987426758,34.38288497924805,47.544586181640625,38.775508880615234
0,1490251,21.390918731689453,-2.806727886199951,-38.57243347167969,7.204239368438721
0,1490251,-4.872875213623047,-21.140771865844727,-24.49180793762207,6.946291923522949
0,1490251,-24.365615844726562,22.205760955810547,27.399131774902344,19.396387100219727
0,1490252,19.60880470275879,8.442203521728516,-0.0379248671233654,2.282374143600464
0,1490252,-9.474821090698242,-0.343171089887619,-9.98044204711914,1.6249483823776245
0,1490252,-24.502777099609375,3.512157678604126,18.815624237060547,29.44964599609375
0,1490252,44.32490539550781,-4.861915588378906,20.71732521057129,-0.05671880021691322
0,1490252,16.129236221313477,17.413284301757812,-11.6903657913208,-19.216365814208984
0,1490252,-15.198691368103027,11.56993293762207,-9.068805694580078,-8.791951179504395
0,1490253,-2.131788492202759,-18.270084381103516,10.021463394165039,25.58164405822754
0,1490253,-3.3600027561187744,-11.45467758178711,-6.530002117156982,-5.232745170593262
0,1490253,22.755538940429688,2.8065171241760254,-1.9032467603683472,-50.63025665283203
0,1490253,-11.490399360656738,-4.081637382507324,-7.711481094360352,0.5896437168121338
0,1490253,-47.01481246948242,-6.797330379486084,-22.712371826171875,7.229196071624756
0,1490253,23.5682430267334,0.4769262373447418,-5.318610191345215,-13.919279098510742
0,1490254,32.39155960083008,3.4916000366210938,-7.38041353225708,7.391058444976807
0,1490254,-25.3924617767334,3.4093048572540283,-10.310072898864746,-2.076402187347412
0,1490254,-61.38506317138672,-12.503138542175293,28.79654884338379,-15.555842399597168
0,1490254,6.09530782699585,-1.8684931993484497,24.157058715820312,0.8009257316589355
0,1490254,91.19139099121094,49.27094268798828,-7.513352870941162,5.219703197479248
0,1490254,-25.255596160888672,-16.85128402709961,-8.806194305419922,16.647300720214844
0,1490255,-51.059661865234375,-92.20931243896484,6.510049819946289,1.8819257020950317
0,1490255,45.872718811035156,31.663637161254883,-7.102176189422607,-25.723899841308594
0,1490255,7.340311050415039,62.27500915527344,-24.949604034423828,6.121950149536133
0,1490255,-27.54640007019043,-25.37070655822754,23.11680030822754,22.62077522277832
0,1490255,-4.7080278396606445,-8.922555923461914,5.987105369567871,16.742212295532227
0,1490256,17.97871208190918,12.199849128723145,-33.32129669189453,-13.938199996948242
0,1490256,14.364967346191406,-1.5512176752090454,24.674571990966797,-31.93259620666504
0,1490257,-31.043867111206055,-17.102684020996094,29.795066833496094,26.5311336517334
0,1490257,-3.7479283809661865,-1.3253438472747803,-20.608509063720703,34.92622375488281
0,1490257,34.86371994018555,15.596078872680664,-16.86322021484375,-22.82037353515625
0,1490259,-15.208165168762207,-3.1300594806671143,6.466086387634277,-33.05351638793945
0,1490261,-4.996720790863037,-14.176796913146973,29.50514793395996,29.559226989746094
0,1490263,30.3765926361084,2.5149950981140137,4.54806661605835,17.026508331298828
0,1490265,-31.097780227661133,23.066831588745117,-10.828177452087402,-29.04295539855957
0,1490267,-18.091400146484375,-6.37586784362793,17.49424934387207,-10.207345008850098
0,1490269,32.60658264160156,-12.623132705688477,-21.8551025390625,-3.3630855083465576
0,1490271,-8.017401695251465,24.540861129760742,-16.889739990234375,10.608915328979492
0,1490274,-7.926962852478027,4.01151180267334,16.92974281311035,32.391971588134766
0,1490275,-6.1938982009887695,-22.32911491394043,-13.817838668823242,7.862250804901123
0,1490276,0.35245150327682495,-17.79637908935547,7.226407527923584,-51.30148696899414
0,1490344,9.650541305541992,17.83983612060547,7.54326057434082,2.047531843185425
0,1490344,-18.751609802246094,20.35578155517578,-31.776161193847656,39.731964111328125
0,1490345,3.7965598106384277,-13.331683158874512,-1.2955387830734253,-28.700355529785156
0,1490345,12.822355270385742,-14.665179252624512,9.660253524780273,17.984594345092773
0,1490345,-2.284181833267212,20.256288528442383,-1.0396928787231445,31.8216609954834
0,1490345,4.22393274307251,31.2471923828125,12.340926170349121,-40.004478454589844
0,1490345,19.269453048706055,-34.50392150878906,14.517965316772461,-14.00676441192627
0,1490345,12.242501258850098,-11.256024360656738,-8.243288040161133,9.764726638793945
0,1490346,-35.698238372802734,40.514522552490234,-15.227479934692383,-2.8096776008605957
0,1490346,-20.693763732910156,-4.333444595336914,0.45044660568237305,-8.049442291259766
0,1490346,33.67204666137695,-20.909902572631836,6.634062767028809,-19.39592170715332
0,1490346,7.693921089172363,-7.517405033111572,6.592647552490234,2.30781888961792
0,1490346,-19.02006721496582,1.5777199268341064,2.271660566329956,11.11976432800293
0,1490347,12.595154762268066,-1.6763964891433716,2.07635760307312,-9.27176284790039
0,1490347,7.8445143699646,2.9400339126586914,0.9969008564949036,-9.130494117736816
0,1490347,-3.8978006839752197,8.854762077331543,3.916356086730957,6.066718101501465
0,1490347,-5.957363128662109,-7.405426502227783,0.745724081993103,19.69371795654297
0,1490347,-19.259082794189453,1.8011610507965088,-3.8827223777770996,7.2189555168151855
0,1490347,12.343048095703125,-0.28093767166137695,-10.19597339630127,-7.6276326179504395
0,1490347,10.192173957824707,-1.047796607017517,2.168609619140625,4.767251014709473
0,1490348,-8.18848705291748,11.403813362121582,15.832351684570312,12.711321830749512
0,1490348,0.6236767768859863,-2.485215902328491,0.7161290049552917,-4.819406986236572
0,1490348,3.1976516246795654,-1.8837958574295044,-7.509037494659424,-15.842734336853027
0,1490348,0.6134557723999023,-2.4426395893096924,-8.542845726013184,1.2178934812545776
0,1490348,-8.379042625427246,-26.29071044921875,-19.194108963012695,9.271368980407715
0,1490349,1.4655203819274902,-7.458521842956543,-2.932647943496704,-8.804267883300781
0,1490349,2.3306403160095215,10.784186363220215,15.66528034210205,0.6896523833274841
0,1490349,-4.679975509643555,12.627296447753906,4.188806056976318,9.461997032165527
0,1490349,7.2145819664001465,11.480853080749512,-0.6598983407020569,-5.580905437469482
0,1490349,-6.90948486328125,-28.143598556518555,-11.249202728271484,4.777663707733154
0,1490349,-29.8258056640625,-19.70579719543457,-0.13038884103298187,-0.014360599219799042
0,1490350,6.374239444732666,12.3716459274292,11.70830249786377,2.7440903186798096
0,1490350,9.877573013305664,-5.383708953857422,-9.96727466583252,-1.4980019330978394
0,1490350,-16.89234161376953,-4.066459655761719,-10.696295738220215,-8.053747177124023
0,1490351,4.078802585601807,6.391776084899902,6.863639831542969,11.424790382385254
0,1490351,7.137339115142822,-10.94285774230957,3.4468867778778076,-4.934986591339111
0,1490352,6.570502758026123,9.729145050048828,13.955700874328613,5.178694248199463
0,1490353,25.137340545654297,26.800649642944336,3.330435276031494,16.524736404418945
0,1490354,-7.7997894287109375,9.06438159942627,-13.308053016662598,-1.409783959388733
0,1490357,-21.964153289794922,23.251937866210938,-12.99260139465332,-13.062259674072266
0,1490358,6.212030410766602,-8.198904991149902,-5.860413074493408,-34.916221618652344
0,1490361,11.63914966583252,-82.78030395507812,15.469804763793945,9.352362632751465
0,1490362,29.05694007873535,-11.97459888458252,1.5443164110183716,17.863422393798828
0,1490365,18.686443328857422,107.78057098388672,16.198680877685547,-44.35491180419922
0,1490366,-0.5520113706588745,31.600032806396484,22.387977600097656,61.325016021728516
0,1490369,-33.65398406982422,-68.5050277709961,-8.382235527038574,103.05586242675781
0,1490370,-53.71873092651367,-37.30382537841797,-1.207808494567871,-46.47949981689453
0,1490373,55.06784439086914,36.96430206298828,-13.179181098937988,-139.73098754882812
0,1490374,39.07005310058594,23.92313575744629,-44.623939514160156,-65.11477661132812
0,1490377,-68.5167007446289,-17.711946487426758,15.531500816345215,150.84681701660156
0,1490378,24.603418350219727,39.17094802856445,47.70505142211914,84.35738372802734
0,1490455,31.690128326416016,13.849799156188965,-4.375583171844482,-121.94237518310547
0,1490455,-54.15721893310547,-39.58169937133789,-17.9490909576416,-35.79613494873047
0,1490455,-23.162269592285156,-17.27103042602539,-12.234350204467773,32.74672317504883
0,1490455,9.383739471435547,-3.0552773475646973,3.3470382690429688,-17.465717315673828
0,1490455,20.0439395904541,-1.1799300909042358,-4.0232834815979,-11.758011817932129
0,1490456,5.21835994720459,-17.8218994140625,-16.732067108154297,-14.642072677612305
0,1490456,-10.900988578796387,-12.837010383605957,19.450864791870117,-19.388925552368164
0,1490456,7.005417346954346,15.468086242675781,18.014389038085938,14.00603199005127
0,1490456,11.404593467712402,12.279877662658691,0.1663990616798401,26.144479751586914
0,1490456,-12.389323234558105,2.8212764263153076,-5.190709590911865,-21.65013313293457
0,1490457,-13.028409957885742,-10.305692672729492,-11.115768432617188,-15.581490516662598
0,1490457,-9.613554000854492,-17.145217895507812,5.771420955657959,64.85604858398438
0,1490457,-0.9033242464065552,22.56931495666504,-0.5779478549957275,31.31154441833496
0,1490457,18.633264541625977,27.99886131286621,4.236015796661377,-22.105344772338867
0,1490457,10.650646209716797,-14.636855125427246,12.06722354888916,19.008153915405273
0,1490457,6.094964504241943,-10.196218490600586,-14.634278297424316,27.152563095092773
0,1490458,-3.275266647338867,-3.085270404815674,2.0819530487060547,30.074241638183594
0,1490458,9.869718551635742,-1.8294368982315063,14.177956581115723,28.913841247558594
0,1490458,22.798946380615234,15.631763458251953,-5.225629806518555,-1.0858302116394043
0,1490458,-22.339881896972656,4.198512077331543,0.2804291546344757,20.576509475708008
0,1490458,-9.812490463256836,-0.3824923634529114,-13.222708702087402,-11.152585983276367
0,1490458,21.461206436157227,-11.58066463470459,0.46338918805122375,-35.931331634521484
0,1490459,-14.630865097045898,-5.918571949005127,9.017060279846191,-8.492193222045898
0,1490459,0.12752729654312134,24.356290817260742,-5.884223937988281,-23.258346557617188
0,1490459,6.467862606048584,3.1320419311523438,-10.41373062133789,-19.843135833740234
0,1490459,-20.708648681640625,-20.429872512817383,-11.997881889343262,-23.312517166137695
0,1490459,5.261777400970459,8.788919448852539,7.172369956970215,-4.461833477020264
0,1490460,5.0171098709106445,-9.035543441772461,-0.7548311948776245,12.11745548248291
0,1490460,-7.146758556365967,-29.987768173217773,-5.576204776763916,-21.755617141723633
0,1490460,-14.284642219543457,10.307123184204102,3.5311405658721924,-7.66579008102417
0,1490460,-1.46998929977417,18.6939754486084,1.8150407075881958,-6.36314058303833
0,1490460,15.902124404907227,-3.744846820831299,-0.8835553526878357,-11.506597518920898
0,1490460,-16.060348510742188,-5.512146472930908,11.606996536254883,37.51663589477539
0,1490461,10.826074600219727,21.731874465942383,-0.46535760164260864,10.175108909606934
0,1490461,23.649822235107422,-1.5629010200500488,-15.625142097473145,-19.73392677307129
0,1490461,-21.871273040771484,-11.136017799377441,11.120680809020996,5.795254230499268
0,1490461,-12.845855712890625,4.618966579437256,11.560018539428711,12.152637481689453
0,1490461,10.803305625915527,-14.626344680786133,-5.315685272216797,10.377086639404297
0,1490463,20.561973571777344,33.50542068481445,2.6485354900360107,-34.615257263183594
0,1490463,18.083768844604492,30.998628616333008,-1.2098371982574463,-37.91441345214844
0,1490463,-15.1220703125,-52.723106384277344,-4.560856342315674,17.65492820739746
0,1490463,-19.64059066772461,-24.77068519592285,-4.581230640411377,10.196746826171875
0,1490464,12.625863075256348,35.10336685180664,-18.315011978149414,2.0895018577575684
0,1490467,-5.430610656738281,18.852130889892578,-6.715415000915527,29.715322494506836
0,1490468,-23.339454650878906,-18.806896209716797,18.216310501098633,38.51300048828125
0,1490471,7.523645877838135,-32.537330627441406,26.521780014038086,8.205615997314453
0,1490472,9.078269958496094,-12.659185409545898,13.443873405456543,-15.356679916381836
0,1490475,34.518470764160156,46.7398796081543,5.226832389831543,13.857705116271973
0,1490476,23.043128967285156,31.58133888244629,-14.51908016204834,-62.27760314941406
0,1490479,-64.05358123779297,-61.82634735107422,7.4077677726745605,-88.27225494384766
0,1490480,-21.108959197998047,-0.4631809890270233,8.002345085144043,92.94488525390625
0,1490483,24.281328201293945,36.619361877441406,-57.84713363647461,90.6644287109375
0,1490484,-8.739940643310547,-44.67013168334961,-1.1967434883117676,-54.74826431274414
0,1490487,10.038309097290039,-1.336180567741394,33.783504486083984,-34.40141677856445
0,1490488,17.411176681518555,38.8083381652832,-0.3319709300994873,22.469106674194336
0,1490491,9.24669361114502,16.116609573364258,1.1710294485092163,8.450956344604492
0,1490493,-3.218687057495117,22.868560791015625,2.6256539821624756,45.10081481933594
0,1490495,-38.91297149658203,-39.84407043457031,-13.068924903869629,-34.57880401611328
0,1490497,-45.59895706176758,-93.74464416503906,-59.51911544799805,-219.93568420410156
0,1490584,46.579830169677734,39.70365905761719,19.330276489257812,58.36467361450195
0,1490585,65.36495971679688,88.72527313232422,71.3464126586914,260.5318298339844
0,1490585,-30.124059677124023,-28.08942413330078,-16.34491729736328,-78.64659881591797
0,1490585,-8.455678939819336,-13.865553855895996,-25.99289321899414,-128.5368194580078
0,1490585,16.154132843017578,3.1883127689361572,0.4348243772983551,9.76611042022705
0,1490585,-30.284528732299805,-26.09315299987793,-3.5153322219848633,-2.9650521278381348
0,1490585,-21.771764755249023,-1.9116880893707275,2.112306833267212,19.781661987304688
0,1490586,26.807519912719727,5.629581451416016,-12.39860725402832,9.091536521911621
0,1490586,11.304779052734375,5.8997297286987305,-7.703742027282715,17.07002067565918
0,1490586,-31.387237548828125,11.87685489654541,19.343692779541016,47.05622100830078
0,1490586,2.402761697769165,13.852051734924316,-6.194987773895264,8.322532653808594
0,1490586,19.6633358001709,-19.34976577758789,-2.456531286239624,-11.692574501037598
0,1490586,-11.449721336364746,-23.513330459594727,31.697887420654297,23.80714988708496
0,1490587,-5.8567938804626465,24.712282180786133,4.8669562339782715,2.5251080989837646
0,1490587,19.271194458007812,1.1598963737487793,-21.477445602416992,-29.005592346191406
0,1490587,-2.80247163772583,-19.241079330444336,7.965671062469482,-2.1284396648406982
0,1490587,-19.821491241455078,14.562554359436035,27.25679588317871,7.864303112030029
0,1490587,18.687721252441406,6.281080722808838,-4.5572028160095215,3.3842577934265137
0,1490588,8.023104667663574,3.369344472885132,-25.27167510986328,-7.370932579040527
0,1490588,-20.983863830566406,12.888383865356445,-8.460116386413574,-11.586798667907715
0,1490588,10.365089416503906,-24.582775115966797,-6.2515435218811035,-6.9076032638549805
0,1490588,20.907211303710938,-19.882652282714844,-4.869787216186523,-15.2445650100708
0,1490588,-18.52715301513672,29.9799747467041,18.410587310791016,-12.969364166259766
0,1490588,-21.332612991333008,-6.65310001373291,20.982839584350586,18.289813995361328
0,1490589,26.498769760131836,-21.551332473754883,-15.228287696838379,14.744229316711426
0,1490589,21.951602935791016,28.872230529785156,-18.930458068847656,-7.13718318939209
0,1490589,-11.90634536743164,-5.101465225219727,24.31267547607422,23.339101791381836
0,1490589,-21.322755813598633,-16.66284942626953,18.811275482177734,25.162023544311523
0,1490589,-4.9561567306518555,25.070039749145508,-11.145355224609375,-2.4741554260253906
0,1490589,16.70283317565918,-5.01357364654541,-15.33456802368164,-15.962434768676758
0,1490590,0.7133741974830627,-21.691078186035156,-4.953171730041504,8.366127967834473
0,1490590,-5.174567699432373,13.442688941955566,5.348467826843262,27.703927993774414
0,1490590,2.1192426681518555,2.039565324783325,6.365598201751709,-16.244022369384766
0,1490590,-16.74288558959961,-20.57275390625,-13.114699363708496,-21.077558517456055
0,1490590,-15.905865669250488,6.06679630279541,-8.129189491271973,-3.067837953567505
0,1490591,29.955095291137695,26.09147834777832,10.439224243164062,-18.39546012878418
0,1490591,23.616870880126953,13.152913093566895,-15.759424209594727,-3.416563034057617
0,1490591,-35.84519958496094,-0.5774195194244385,7.717800140380859,33.17601776123047
0,1490591,11.96045207977295,-1.3688348531723022,21.82396697998047,33.48207092285156
0,1490591,43.87759017944336,2.958738327026367,14.660161972045898,-21.106037139892578
0,1490591,-19.625255584716797,14.13335132598877,18.748029708862305,-48.075218200683594
0,1490592,-1.7474042177200317,17.045085906982422,-23.528980255126953,-11.891641616821289
0,1490592,8.743791580200195,15.160237312316895,-7.090618133544922,-5.29840087890625
0,1490592,-9.175554275512695,-13.242144584655762,4.176919460296631,-14.391153335571289
0,1490593,22.085554122924805,6.914745330810547,19.03852081298828,8.26147174835205
0,1490593,-2.0725607872009277,32.132503509521484,48.78983688354492,11.906481742858887
0,1490594,-22.457805633544922,-35.21171188354492,-10.895652770996094,-13.850454330444336
0,1490594,10.497883796691895,-35.42549133300781,-28.689411163330078,-19.243099212646484
0,1490595,-21.229520797729492,8.547666549682617,14.03126335144043,-3.971005916595459
0,1490596,-30.624378204345703,4.592878818511963,4.5396599769592285,-2.6256587505340576
0,1490599,-12.605490684509277,-94.37715148925781,-65.02471923828125,-114.58592987060547
0,1490600,-38.4791374206543,-112.52946472167969,-45.27669906616211,-50.82754898071289
0,1490603,64.40316009521484,147.078125,50.69499588012695,300.89373779296875
0,1490604,79.97021484375,133.69989013671875,31.28277587890625,151.62205505371094
0,1490607,-91.62428283691406,-128.1665802001953,-22.521623611450195,-257.0439453125
0,1490608,-49.949607849121094,-46.13343811035156,-40.20610809326172,-72.6270980834961
0,1490611,38.60038375854492,16.542892456054688,-49.75919723510742,152.59829711914062
0,1490612,20.806467056274414,-23.689361572265625,0.7271637916564941,26.433090209960938
0,1490615,45.21422576904297,59.472984313964844,42.16962432861328,-30.977094650268555
0,1490616,-9.849662780761719,21.030202865600586,15.318796157836914,-111.04745483398438
0,1490619,-29.35740852355957,-21.792095184326172,27.49852752685547,-86.67874908447266
0,1490620,45.856788635253906,28.658958435058594,38.356876373291016,119.68425750732422
0,1490623,-15.259684562683105,0.31030261516571045,-31.227291107177734,113.9428939819336
0,1490624,-79.8602523803711,9.101846694946289,-9.793825149536133,-0.9529473185539246
0,1490627,-1.6084256172180176,11.430436134338379,21.149351119995117,-104.44528198242188
0,1490628,43.312686920166016,-34.09177017211914,-31.33095359802246,-25.245615005493164
0,1490728,48.356605529785156,-12.927610397338867,-17.124794006347656,49.843963623046875
0,1490728,36.814815521240234,-6.335623264312744,19.398548126220703,-14.175336837768555
0,1490728,-40.55105972290039,14.630325317382812,21.180437088012695,54.69502639770508
0,1490729,-27.458641052246094,32.04532241821289,-1.620645523071289,43.015777587890625
0,1490729,28.178516387939453,-24.24142837524414,-35.199317932128906,-25.4959716796875
0,1490729,-10.41954231262207,-24.568378448486328,-11.299941062927246,-18.711936950683594
0,1490729,-20.439477920532227,6.084468364715576,33.44591522216797,-32.91305923461914
0,1490729,0.4105226993560791,-5.528171062469482,14.318001747131348,-34.467411041259766
0,1490729,7.593677043914795,-5.613261699676514,-26.645105361938477,-27.35150146484375
0,1490730,0.17401188611984253,0.9219638109207153,-34.81691360473633,-16.076385498046875
0,1490730,-24.898012161254883,12.462373733520508,25.147075653076172,20.31378936767578
0,1490730,-36.09442138671875,-1.6214748620986938,45.464149475097656,44.0880126953125
0,1490730,-2.487504243850708,6.68247127532959,-24.66373634338379,25.143260955810547
0,1490730,25.151649475097656,21.461713790893555,-30.350406646728516,12.266860961914062
0,1490731,-9.62436294555664,-7.172159671783447,15.40938949584961,20.491397857666016
0,1490731,12.048238754272461,-8.699687957763672,11.6968355178833,-28.433286666870117
0,1490731,25.907506942749023,-8.199254989624023,-20.25417137145996,-19.56361198425293
0,1490731,-23.80515480041504,-8.400720596313477,-8.742566108703613,17.172760009765625
0,1490731,7.1059160232543945,10.447031021118164,24.856441497802734,-39.02345275878906
0,1490731,17.392934799194336,0.19481517374515533,2.429927110671997,-34.92607498168945
0,1490732,-27.24657440185547,0.4188202917575836,-1.4866362810134888,10.60167407989502
0,1490732,1.2206605672836304,24.3017520904541,23.773900985717773,4.664984226226807
0,1490732,29.17514419555664,12.839085578918457,2.1553380489349365,6.385544776916504
0,1490732,11.428411483764648,5.634374141693115,-4.579562664031982,8.439117431640625
0,1490732,12.645143508911133,4.441385746002197,9.32120132446289,-16.051319122314453
0,1490732,2.8765087127685547,11.91031551361084,7.5063581466674805,-5.012239933013916
0,1490733,-1.9765117168426514,-0.8388801217079163,-0.9372906684875488,8.670284271240234
0,1490733,13.295388221740723,-9.761687278747559,0.5737266540527344,-6.454245090484619
0,1490733,3.8409371376037598,22.149301528930664,14.165148735046387,-0.1785852462053299
0,1490733,4.7778520584106445,-2.770895004272461,-4.820605754852295,11.07731819152832
0,1490733,4.979277610778809,-8.071232795715332,-23.592571258544922,13.772857666015625
0,1490733,-15.52892780303955,-3.0339322090148926,2.4606072902679443,32.86623001098633
0,1490734,-19.701255798339844,-27.31386947631836,0.5830675363540649,24.34449577331543
0,1490734,-13.42149543762207,-11.45510196685791,-10.870647430419922,-18.87032127380371
0,1490734,-0.2022322416305542,9.836759567260742,-8.025360107421875,-11.958818435668945
0,1490734,-2.135331869125366,-21.255922317504883,-17.813962936401367,23.22519874572754
0,1490734,-17.411632537841797,-44.115692138671875,8.365867614746094,-1.576707363128662
0,1490734,13.29236125946045,-1.2175825834274292,18.45429801940918,-24.739273071289062
0,1490735,7.994175434112549,12.292573928833008,-16.833045959472656,3.9865851402282715
0,1490735,-43.34918975830078,-16.091733932495117,-8.017670631408691,4.776423454284668
0,1490735,-15.71388053894043,-12.890933990478516,18.509546279907227,-19.44622802734375
0,1490735,22.79813575744629,-6.678224563598633,-1.6046323776245117,-12.185626029968262
0,1490735,12.33889102935791,-10.742743492126465,-16.991167068481445,10.406750679016113
0,1490735,-14.850301742553711,17.24895477294922,-2.4163496494293213,-2.0802690982818604
0,1490736,-0.7899702191352844,34.921653747558594,-16.259143829345703,-16.711044311523438
0,1490736,25.150638580322266,5.218688011169434,-12.638052940368652,-6.225517749786377
0,1490736,-10.5662841796875,-28.772607803344727,27.109413146972656,-4.22273063659668
0,1490736,5.382205486297607,-8.84441089630127,9.002469062805176,-27.395572662353516
0,1490736,3.0932023525238037,23.902400970458984,-28.318927764892578,-2.0458993911743164
0,1490738,-3.750690460205078,42.9325065612793,21.540800094604492,85.99105834960938
0,1490738,45.54286575317383,5.862491607666016,44.476375579833984,56.492122650146484
0,1490738,-13.831666946411133,-23.524425506591797,-21.20516014099121,-48.77530288696289
0,1490738,-31.372371673583984,15.130999565124512,-5.1808857917785645,-35.87332534790039
0,1490738,35.88926315307617,12.132562637329102,25.473384857177734,10.958281517028809
0,1490740,22.939897537231445,22.309316635131836,-15.250327110290527,10.7393159866333
0,1490741,-23.26285743713379,25.946922302246094,-30.54969596862793,97.73616790771484
0,1490742,-17.58847427368164,41.433135986328125,10.189240455627441,31.27745246887207
0,1490745,-6.239473342895508,-59.121761322021484,0.8258565068244934,-441.89837646484375
0,1490746,-2.9028937816619873,-124.2613754272461,-8.010083198547363,-90.8183822631836
0,1490749,10.841477394104004,60.009254455566406,13.900031089782715,582.7714233398438
0,1490750,-10.001276969909668,90.95968627929688,-24.359046936035156,5.629818916320801
0,1490753,-0.047208379954099655,-3.5942583084106445,1.372633457183838,-307.2742614746094
0,1490754,-12.917119979858398,-52.17770004272461,31.019922256469727,42.26679992675781
0,1490757,-21.109519958496094,-64.61569213867188,-0.9081651568412781,33.49486541748047
0,1490758,26.44756507873535,0.6894126534461975,14.99911117553711,-3.7087767124176025
0,1490761,17.57469940185547,55.728515625,34.48969650268555,40.79673767089844
0,1490762,3.782909393310547,-2.201927900314331,-19.85506820678711,44.508880615234375
0,1490765,1.1515709161758423,-35.59758377075195,-81.85649871826172,5.99558162689209
0,1490766,-23.42775535583496,7.963168144226074,-18.60093116760254,-85.61820220947266
0,1490769,15.457728385925293,18.665830612182617,52.57568359375,5.343008518218994
0,1490770,18.198556900024414,0.6601970195770264,10.814908981323242,12.61086654663086
0,1490773,-10.774588584899902,16.776647567749023,22.549976348876953,-41.6859245300293
0,1490775,-29.84636116027832,-20.284425735473633,-7.6581621170043945,18.468894958496094
0,1490777,1.2636902332305908,-3.2864389419555664,-15.423863410949707,26.79113006591797
0,1490888,50.17937088012695,69.26969909667969,27.737876892089844,59.7532844543457
0,1490889,-53.054866790771484,-52.036922454833984,-38.93330764770508,-22.11062240600586
0,1490889,-36.53711700439453,-49.240665435791016,11.472782135009766,-20.704505920410156
0,1490889,39.85045623779297,38.39631652832031,45.30523681640625,29.655189514160156
0,1490889,16.243207931518555,-3.3419017791748047,-22.706687927246094,-10.339174270629883
0,1490889,-0.4586547911167145,-11.191191673278809,-20.50141716003418,9.487898826599121
0,1490889,-14.833854675292969,5.835112571716309,1.5419360399246216,-2.8015260696411133
0,1490890,10.040506362915039,-0.32239699363708496,-13.197894096374512,-28.68073844909668
0,1490890,10.699347496032715,2.9866280555725098,-29.8507137298584,-6.333612442016602
0,1490890,-6.50272274017334,1.6550477743148804,15.302623748779297,-0.40053048729896545
0,1490890,10.787518501281738,-0.02376158908009529,29.019386291503906,-41.379886627197266
0,1490890,14.781893730163574,-0.861126720905304,-9.450057029724121,-16.983766555786133
0,1490890,7.784761905670166,-4.313337326049805,-5.474636554718018,37.475196838378906
0,1490891,1.8010761737823486,13.230749130249023,8.165602684020996,-8.032715797424316
0,1490891,-5.065552234649658,6.197977066040039,8.498645782470703,-41.536048889160156
0,1490891,-15.107515335083008,-11.389506340026855,2.9862594604492188,10.248045921325684
0,1490891,-6.589110851287842,-7.763545989990234,-19.600204467773438,7.816929340362549
0,1490891,0.1742941290140152,13.052218437194824,-12.25950813293457,-11.481145858764648
0,1490892,-17.193845748901367,12.238500595092773,21.41534996032715,1.7569353580474854
0,1490892,3.2402291297912598,-14.274619102478027,-5.7746992111206055,2.624354124069214
0,1490892,3.220947265625,-7.661043167114258,-28.479238510131836,35.08415985107422
0,1490892,-23.56842613220215,16.6168212890625,26.12779426574707,48.81619644165039
0,1490892,4.307888984680176,-3.3933510780334473,29.768774032592773,6.80636739730835
0,1490892,0.0013238440733402967,-23.66582489013672,-18.147003173828125,-24.894107818603516
0,1490893,-8.619847297668457,6.189509391784668,7.248079776763916,7.209649085998535
0,1490893,22.850618362426758,24.548383712768555,23.846160888671875,0.7803396582603455
0,1490893,9.2920503616333,-4.30462121963501,-9.119024276733398,-27.049461364746094
0,1490893,0.695025622844696,-26.937950134277344,-23.49481773376465,13.501858711242676
0,1490893,2.1847238540649414,-22.089656829833984,-18.280147552490234,8.13492488861084
0,1490893,-11.979192733764648,5.183165550231934,5.137718200683594,-12.450545310974121
0,1490894,2.6321771144866943,23.01675796508789,14.255212783813477,6.843372344970703
0,1490894,23.659854888916016,6.276026248931885,24.084293365478516,-4.572203636169434
0,1490894,13.785959243774414,8.571327209472656,11.900360107421875,-7.2631330490112305
0,1490894,-19.040403366088867,5.57667875289917,-19.08894920349121,18.248682022094727
0,1490894,-10.023815155029297,7.647953033447266,-9.220687866210938,-11.39880084991455
0,1490894,16.713075637817383,7.805367469787598,17.369770050048828,-7.536426544189453
0,1490895,6.951572895050049,-7.203800678253174,18.013940811157227,28.198984146118164
0,1490895,-0.2192712426185608,1.549047827720642,-19.14557456970215,-0.9090758562088013
0,1490895,-16.663530349731445,-18.474327087402344,-12.817798614501953,1.8817310333251953
0,1490895,-5.296279430389404,-6.5699849128723145,23.22248649597168,7.081541061401367
0,1490895,18.272022247314453,19.63616180419922,0.9187849760055542,-20.00916290283203
0,1490895,-14.873780250549316,0.5601460337638855,-9.523598670959473,3.085008144378662
0,1490896,-19.418001174926758,-15.183359146118164,-4.082629203796387,22.81180763244629
0,1490896,23.509902954101562,-14.029317855834961,-28.834753036499023,-17.39411735534668
0,1490896,-0.020663268864154816,-3.7969419956207275,-13.54503345489502,-17.435867309570312
0,1490896,-29.213842391967773,0.7793803215026855,-2.1072440147399902,12.848257064819336
0,1490896,2.201925039291382,7.921309947967529,-7.5274481773376465,14.250391960144043
0,1490896,22.977928161621094,6.62615966796875,2.8271965980529785,-16.438745498657227
0,1490897,20.85009765625,3.439577102661133,-15.884922981262207,-20.883899688720703
0,1490897,-13.32701587677002,-13.69309139251709,3.5261824131011963,33.507144927978516
0,1490897,-20.9433536529541,8.28493595123291,26.2712345123291,-8.802708625793457
0,1490897,20.405393600463867,32.3616828918457,-10.666430473327637,-41.70071792602539
0,1490897,10.80443286895752,11.305462837219238,-12.019744873046875,26.550155639648438
0,1490898,-24.516080856323242,4.625992774963379,18.755855560302734,-2.8752124309539795
0,1490898,-18.14491844177246,-13.252923011779785,8.506972312927246,-23.781200408935547
0,1490898,9.425168991088867,-3.535331964492798,-6.7390642166137695,17.433507919311523
0,1490899,-14.920708656311035,2.359452247619629,-23.41655731201172,-43.260536193847656
0,1490899,-39.934627532958984,2.610893487930298,-36.582069396972656,-42.57502365112305
0,1490900,14.352956771850586,5.424072265625,21.443754196166992,43.00421905517578
0,1490900,18.986391067504883,-13.227070808410645,44.63666534423828,15.18664836883545
0,1490900,-11.943681716918945,-6.565218925476074,-8.353569984436035,-24.517484664916992
0,1490901,10.625242233276367,-5.993800640106201,6.03102445602417,24.780807495117188
0,1490902,17.2969913482666,-41.075618743896484,63.720462799072266,16.642620086669922
0,1490905,48.978302001953125,-16.99640655517578,39.95656204223633,3.486388921737671
0,1490906,53.468875885009766,0.9087291359901428,-36.11909866333008,94.1887435913086
0,1490909,-28.70541763305664,-13.743395805358887,-13.802578926086426,24.563861846923828
0,1490911,-53.12626647949219,51.459327697753906,20.258798599243164,-112.20587921142578
0,1490913,-41.84149169921875,31.744583129882812,-30.14461326599121,4.919744968414307
0,1490915,5.765262603759766,-30.136058807373047,-33.96046447753906,30.925090789794922
0,1490917,28.039199829101562,-3.3616421222686768,-12.980001449584961,-36.9793815612793
0,1490919,-10.827101707458496,25.794273376464844,31.863590240478516,33.221778869628906
0,1490921,14.774069786071777,-42.47101974487305,16.52164649963379,11.778029441833496
0,1490923,17.91912269592285,-32.15880584716797,-82.93571472167969,-40.929954528808594
0,1490925,-12.397665977478027,94.07819366455078,-18.70530128479004,-78.59160614013672
0,1490927,-27.700239181518555,20.146236419677734,59.21864318847656,0.6626760959625244
0,1490929,-19.311376571655273,-60.64753723144531,16.124004364013672,132.89894104003906
0,1490931,41.5521240234375,-16.724510192871094,10.176996231079102,-8.697410583496094
0,1490933,49.89952087402344,8.970876693725586,12.171675682067871,-67.89073181152344
0,1490935,-4.234568119049072,41.70771408081055,20.85927391052246,54.446964263916016
0,1490937,-44.969329833984375,12.965886116027832,-22.63161277770996,52.040706634521484
0,1490939,-20.209806442260742,-24.375045776367188,-57.26139831542969,-61.300392150878906
0,1491062,9.32734489440918,-9.997307777404785,28.75063133239746,-94.07838439941406
0,1491062,-24.0521297454834,-12.86693286895752,21.07822608947754,52.571258544921875
0,1491062,-4.880200386047363,-7.451460361480713,-25.41533851623535,43.88075256347656
0,1491062,30.622129440307617,4.4225640296936035,2.2173445224761963,-40.16840362548828
0,1491062,11.4835205078125,3.4434092044830322,16.439918518066406,20.444746017456055
0,1491062,3.6711719036102295,12.476349830627441,3.490328311920166,15.045449256896973
0,1491063,6.876311779022217,-3.414170265197754,-13.994020462036133,-21.90132713317871
0,1491063,-5.5262227058410645,-23.89698028564453,-1.7901430130004883,9.256880760192871
0,1491063,-11.444530487060547,-10.681761741638184,8.13362979888916,14.33005428314209
0,1491063,6.641585350036621,5.099440097808838,1.6388505697250366,-5.450292110443115
0,1491063,16.764896392822266,16.188379287719727,-17.763671875,-16.868297576904297
0,1491064,-24.910852432250977,-0.7545719146728516,-28.071430206298828,-0.06977073848247528
0,1491064,-20.113542556762695,-2.354820489883423,5.97559928894043,26.37405776977539
0,1491064,27.97905731201172,23.130739212036133,30.54750633239746,-19.99605941772461
0,1491064,8.603216171264648,23.20890235900879,-2.240264415740967,-22.65813636779785
0,1491064,1.9567800760269165,-22.275182723999023,-12.464162826538086,2.917454719543457
0,1491064,1.8015222549438477,-43.43526077270508,17.76310920715332,-8.472339630126953
0,1491065,-0.7350772619247437,5.538969039916992,4.835326194763184,11.965452194213867
0,1491065,10.5634126663208,11.934136390686035,-16.220705032348633,1.496803641319275
0,1491065,-12.038551330566406,11.439363479614258,-11.481720924377441,-2.914086103439331
0,1491065,-2.1606979370117188,5.286872863769531,-6.840476989746094,31.620731353759766
0,1491065,-1.571720838546753,-12.94564437866211,11.463285446166992,13.270868301391602
0,1491065,-28.249473571777344,9.074645042419434,23.59075164794922,-19.40740966796875
0,1491066,1.8046320676803589,13.616927146911621,-14.135976791381836,-15.288819313049316
0,1491066,12.090826034545898,0.6349505186080933,-28.216527938842773,-1.1779606342315674
0,1491066,-6.639771461486816,-18.863384246826172,12.456195831298828,-11.931136131286621
0,1491066,11.04372787475586,-10.38212776184082,7.124179363250732,-23.97410774230957
0,1491066,-10.104254722595215,14.133726119995117,-0.4400464594364166,22.89995002746582
0,1491066,-30.010494232177734,5.15104866027832,8.1342191696167,20.718225479125977
0,1491067,21.688352584838867,-7.608024597167969,-1.4388493299484253,-10.820730209350586
0,1491067,7.835159778594971,-6.881350994110107,9.930106163024902,10.039702415466309
0,1491067,-11.940629005432129,8.470769882202148,9.189876556396484,-1.8169991970062256
0,1491067,23.784648895263672,16.27484703063965,-14.713850975036621,-0.8357125520706177
0,1491067,1.6619230508804321,0.2994981110095978,-4.967681407928467,4.900262355804443
0,1491067,1.3905158042907715,-4.143296241760254,0.04739595577120781,-7.569663047790527
0,1491068,-4.547577857971191,-2.0186564922332764,-2.3492143154144287,4.692761421203613
0,1491068,-22.80298614501953,13.740017890930176,18.794254302978516,5.777575969696045
0,1491068,24.40795135498047,10.614622116088867,-10.382102012634277,-2.792269229888916
0,1491068,28.087072372436523,-23.538301467895508,-3.9369547367095947,7.845048427581787
0,1491068,-4.48921537399292,-0.9810114502906799,40.31123733520508,8.670002937316895
0,1491069,-10.897455215454102,27.40672492980957,-11.537236213684082,-33.24886703491211
0,1491069,11.882913589477539,-8.019999504089355,-41.5383186340332,-19.258602142333984
0,1491069,2.877753973007202,-15.873358726501465,19.28643798828125,22.129425048828125
0,1491069,-39.52040100097656,-3.6586289405822754,11.1773681640625,-11.001974105834961
0,1491069,3.634761333465576,13.868151664733887,-26.31709861755371,-22.076919555664062
0,1491069,14.741801261901855,16.35455322265625,6.210071563720703,17.823862075805664
0,1491070,-36.52804183959961,-23.117956161499023,22.634279251098633,16.406078338623047
0,1491070,25.87358856201172,-1.5516968965530396,0.6218997836112976,-16.256038665771484
0,1491070,45.87403106689453,-4.714615821838379,-33.90095138549805,14.597736358642578
0,1491070,-51.48323440551758,-20.586658477783203,-2.4955554008483887,34.660438537597656
0,1491070,-18.025360107421875,15.35602855682373,46.7467041015625,-3.6657614707946777
0,1491070,42.66162109375,1.7672903537750244,-8.449686050415039,-15.113171577453613
0,1491071,-18.37281608581543,-25.98020362854004,-38.02379608154297,4.586994171142578
0,1491071,-23.9727783203125,-3.1743290424346924,17.89059829711914,20.27173614501953
0,1491071,24.23552703857422,31.01481819152832,6.212977886199951,1.4043710231781006
0,1491071,4.570987224578857,3.9756600856781006,-25.583528518676758,-7.661157131195068
0,1491071,-21.51055335998535,-42.191184997558594,21.029582977294922,4.086607456207275
0,1491071,1.032309889793396,-8.303837776184082,13.005430221557617,-7.903863430023193
0,1491072,-8.20065689086914,30.25353240966797,-24.149688720703125,-10.390915870666504
0,1491072,-17.183055877685547,-0.09022106975317001,4.234166622161865,4.6576056480407715
0,1491072,20.68549919128418,4.690777778625488,14.708725929260254,-8.778776168823242
0,1491073,-4.513832092285156,19.812358856201172,-7.399888515472412,14.593735694885254
0,1491073,-21.172828674316406,-0.28208446502685547,14.905978202819824,35.188961029052734
0,1491073,39.08128356933594,5.785221099853516,6.713857173919678,-22.518301010131836
0,1491074,20.599332809448242,-0.5362679958343506,-15.946688652038574,-34.43488693237305
0,1491074,-11.766827583312988,-6.155773162841797,23.225374221801758,0.819179117679596
0,1491074,18.22303581237793,3.1614503860473633,14.858707427978516,12.380227088928223
0,1491075,26.181598663330078,-6.675159454345703,-11.94610595703125,20.084449768066406
0,1491077,-2.1497585773468018,-6.113745212554932,-20.054183959960938,-31.206064224243164
0,1491079,-41.65481948852539,9.91406536102295,-20.844932556152344,-102.92491149902344
0,1491081,-16.839967727661133,-1.639176368713379,-9.842958450317383,-12.53139877319336
0,1491083,26.862634658813477,-15.578295707702637,-18.476295471191406,87.84495544433594
0,1491085,-28.553998947143555,5.347123622894287,-13.977989196777344,27.385303497314453
0,1491087,-28.085445404052734,8.295721054077148,24.850582122802734,0.5317152738571167
0,1491089,41.41070556640625,-23.337732315063477,24.573762893676758,22.554454803466797
0,1491091,-7.203574180603027,-34.74992752075195,-19.293397903442383,-28.97688102722168
0,1491093,-11.820490837097168,4.326297283172607,-7.728219985961914,-16.774717330932617
0,1491095,40.370174407958984,40.26129913330078,44.61130142211914,24.017934799194336
0,1491097,3.3230795860290527,25.858686447143555,16.01304054260254,8.528736114501953
0,1491099,-25.45464515686035,-15.326298713684082,-19.60015106201172,4.719881057739258
0,1491101,22.35175132751465,9.606547355651855,11.37904167175293,-10.364229202270508
0,1491104,17.912582397460938,23.149473190307617,-1.8312017917633057,-8.842782974243164
0,1491105,-41.76749038696289,-46.72220993041992,-0.5228089690208435,15.898311614990234
0,1491106,-21.333600997924805,-6.456839084625244,-6.763844966888428,22.858741760253906
0,1491109,11.27237319946289,46.0859375,-34.386966705322266,-24.151926040649414
0,1491110,-3.6512553691864014,-50.15912628173828,-8.621918678283691,-43.30451965332031
0,1491113,9.497319221496582,-26.05357551574707,11.638943672180176,10.694631576538086
0,1491114,32.81467819213867,71.03234100341797,12.903157234191895,-5.223232269287109
0,1491248,-20.97675895690918,-19.347122192382812,-21.964189529418945,9.067513465881348
0,1491248,-19.930932998657227,-50.508995056152344,-10.823456764221191,42.47799301147461
0,1491248,20.635732650756836,33.11220169067383,24.707365036010742,-15.754634857177734
0,1491248,-1.2466708421707153,-2.3763575553894043,11.6945161819458,-4.500868320465088
0,1491248,10.599517822265625,-19.726978302001953,11.859244346618652,13.438525199890137
0,1491248,18.77569580078125,42.152931213378906,-6.069577693939209,-16.330638885498047
0,1491249,-23.59695053100586,3.493241310119629,-12.762757301330566,-10.406514167785645
0,1491249,-22.41311264038086,-27.696821212768555,12.886039733886719,9.773238182067871
0,1491249,5.483222007751465,34.2422981262207,14.582379341125488,-1.056552529335022
0,1491249,-3.378533363342285,19.99770736694336,-8.247126579284668,5.143153667449951
0,1491249,5.61478328704834,-50.68149185180664,-14.978155136108398,18.189517974853516
0,1491249,-9.72237777709961,-11.430366516113281,-3.755253791809082,-3.7380356788635254
0,1491250,-7.4732441902160645,31.872499465942383,17.66505241394043,-18.673416137695312
0,1491250,26.274614334106445,-11.579023361206055,5.5013861656188965,-19.239051818847656
0,1491250,8.242586135864258,0.3184446096420288,-8.661905288696289,1.8103485107421875
0,1491250,-2.5175726413726807,16.66121482849121,14.113448143005371,3.8942818641662598
0,1491250,-1.4193637371063232,-22.14431381225586,-12.169387817382812,8.394085884094238
0,1491250,-3.428520679473877,-11.656275749206543,-12.466852188110352,11.017380714416504
0,1491251,8.832788467407227,36.954132080078125,19.87117576599121,-10.719817161560059
0,1491251,7.416879653930664,6.104057788848877,-17.265846252441406,-1.6239020824432373
0,1491251,-28.05434799194336,-43.73662185668945,-19.669586181640625,10.903440475463867
0,1491251,-7.872904300689697,7.094702243804932,29.510595321655273,8.104959487915039
0,1491251,26.58740997314453,32.8264045715332,-1.608845591545105,-20.362869262695312
0,1491251,3.2110209465026855,-10.487920761108398,-19.62105941772461,-23.29975700378418
0,1491252,2.1715497970581055,-23.06648063659668,17.758562088012695,20.54494857788086
0,1491252,-2.8508756160736084,-6.800784111022949,12.650304794311523,29.38247299194336
0,1491252,-8.004488945007324,17.374149322509766,-7.052860736846924,2.8249897956848145
0,1491252,-11.298377990722656,17.168067932128906,-6.599996566772461,-21.382339477539062
0,1491252,0.7791000008583069,-27.020864486694336,13.763989448547363,-9.464149475097656
0,1491253,21.231508255004883,-13.194708824157715,-6.011105060577393,16.31470489501953
0,1491253,-14.097411155700684,40.99668884277344,-21.41828727722168,13.2952880859375
0,1491253,-22.496328353881836,-7.025084972381592,9.986336708068848,0.8048532009124756
0,1491253,6.296687126159668,-6.074941635131836,21.184707641601562,-9.724381446838379
0,1491253,14.676780700683594,38.045745849609375,-14.612686157226562,-20.546213150024414
0,1491253,1.1815531253814697,-35.14018630981445,-24.28791046142578,8.757157325744629
0,1491254,-18.765060424804688,-18.096168518066406,15.74014663696289,13.546857833862305
0,1491254,8.556661605834961,55.355010986328125,9.29806137084961,-23.993005752563477
0,1491254,13.419258117675781,-10.293944358825684,-0.9215144515037537,-5.434142589569092
0,1491254,-8.940713882446289,-36.533653259277344,-14.64141845703125,29.878578186035156
0,1491254,11.849042892456055,7.548654079437256,-13.959062576293945,-0.9480473399162292
0,1491254,3.580010175704956,7.520293235778809,32.635589599609375,-11.177330017089844
0,1491255,-11.285453796386719,-5.033172130584717,9.7128267288208,11.881120681762695
0,1491255,4.301217079162598,6.444606781005859,-22.494741439819336,-15.254759788513184
0,1491255,4.139020919799805,28.192550659179688,-6.177005290985107,-9.143486022949219
0,1491255,6.633217811584473,-20.622461318969727,6.719021797180176,11.690980911254883
0,1491255,-3.06262469291687,-30.151748657226562,-8.520501136779785,-2.0951101779937744
0,1491255,-18.866165161132812,18.522077560424805,-7.501451015472412,-17.319955825805664
0,1491256,12.902939796447754,-20.350238800048828,11.673256874084473,-3.528017044067383
0,1491256,-5.190364360809326,-20.199264526367188,-4.5179924964904785,35.54520797729492
0,1491256,-16.01613998413086,46.028770446777344,11.958179473876953,-0.600563108921051
0,1491256,25.378376007080078,8.829658508300781,12.364697456359863,-46.44217300415039
0,1491256,15.893850326538086,-38.22563552856445,-17.41473388671875,15.428523063659668
0,1491256,-8.809330940246582,11.900733947753906,-7.22007942199707,39.753501892089844
0,1491257,-26.324953079223633,10.475387573242188,15.822959899902344,-17.89114761352539
0,1491257,-0.8683344125747681,-31.767330169677734,0.7989922761917114,-9.715789794921875
0,1491257,19.907808303833008,-9.514660835266113,-21.818496704101562,3.383300304412842
0,1491257,2.1090738773345947,23.867856979370117,-3.2862448692321777,-22.8931827545166
0,1491257,-17.724599838256836,-2.2266697883605957,-2.392223358154297,10.131698608398438
0,1491258,-7.453577995300293,-12.452560424804688,12.41994571685791,17.173690795898438
0,1491258,29.91443634033203,17.917495727539062,13.065572738647461,-18.03754425048828
0,1491258,3.9108569622039795,-1.6784594058990479,-10.392915725708008,-5.39301061630249
0,1491258,-31.540647506713867,-13.008562088012695,14.542988777160645,8.157515525817871
0,1491258,-14.84483528137207,9.197572708129883,8.89955997467041,19.98879051208496
0,1491258,21.06352996826172,19.477989196777344,-14.594127655029297,-4.721989631652832
0,1491258,18.90281867980957,-1.2576481103897095,1.6281607151031494,-15.844606399536133
0,1491259,-11.63300609588623,-4.032097339630127,5.375428676605225,12.738426208496094
0,1491260,-9.384076118469238,-2.546571731567383,-10.265983581542969,21.04411506652832
0,1491260,2.4687514305114746,-8.022706031799316,5.228758811950684,29.927310943603516
0,1491260,11.41280746459961,13.102667808532715,0.34950006008148193,-24.62506103515625
0,1491261,8.523239135742188,6.302626132965088,-17.53879737854004,-24.94607925415039
0,1491261,-15.901249885559082,-8.418752670288086,-2.253495216369629,27.95332145690918
0,1491261,-16.646278381347656,-21.599395751953125,3.01863169670105,-6.2090630531311035
0,1491262,12.591012001037598,-5.7835693359375,1.9220484495162964,-14.867239952087402
0,1491262,25.160619735717773,35.054378509521484,8.597667694091797,3.4412808418273926
0,1491265,-21.046783447265625,14.126729011535645,-0.03171752765774727,-13.452177047729492
0,1491266,-24.25783348083496,-1.5712348222732544,-4.173535346984863,-14.0117826461792
0,1491269,48.3089599609375,-23.714902877807617,0.020270584151148796,20.001066207885742
0,1491270,37.46174621582031,-10.047430992126465,1.2406938076019287,-8.515596389770508
0,1491273,-40.94707489013672,42.65949630737305,8.826757431030273,-42.803741455078125
0,1491274,-71.37140655517578,-6.0653395652771,0.8681015372276306,18.29541778564453
0,1491277,-6.944363117218018,-19.59691047668457,4.602629661560059,30.234376907348633
0,1491278,51.823307037353516,-19.900718688964844,-10.392016410827637,-10.695829391479492
0,1491281,13.536290168762207,-12.688363075256348,-14.630449295043945,12.406830787658691
0,1491282,-17.45650863647461,30.513551712036133,11.402868270874023,13.589465141296387
0,1491285,1.6560324430465698,12.131526947021484,9.152894973754883,-38.861515045166016
0,1491286,20.045808792114258,2.8715171813964844,3.8591690063476562,-15.133172988891602
0,1491289,-5.616703033447266,-21.006423950195312,-8.85090446472168,41.97939682006836
0,1491290,-27.217994689941406,-21.310565948486328,-8.333988189697266,7.596145153045654
0,1491293,23.517250061035156,21.87020492553711,14.834656715393066,-4.4725470542907715
0,1491294,20.952768325805664,8.302102088928223,-3.5257468223571777,25.04861068725586
0,1491297,-25.4329833984375,-13.502710342407227,-34.357337951660156,-39.551578521728516
0,1491299,5.402980327606201,-3.521951675415039,5.801223278045654,-14.456208229064941
0,1491301,17.649398803710938,14.306591033935547,36.839515686035156,46.37266159057617
0,1491303,-27.07988166809082,-18.099782943725586,8.713311195373535,44.39511489868164
0,1491305,-12.470146179199219,-6.199904918670654,-18.39297103881836,-3.1969940662384033
0,1491447,25.425281524658203,39.56075668334961,-2.818296432495117,-104.4677505493164
0,1491447,11.857041358947754,-14.84449577331543,4.096783638000488,-14.104119300842285
0,1491448,-22.08052635192871,-29.23563003540039,-16.963876724243164,57.06532287597656
0,1491448,-27.364322662353516,10.785944938659668,17.993392944335938,-4.235914707183838
0,1491448,18.6022891998291,37.31269836425781,7.082328796386719,-23.636489868164062
0,1491448,28.857221603393555,13.450163841247559,-19.10422706604004,-8.986455917358398
0,1491448,6.154670238494873,-27.787107467651367,11.053088188171387,29.00205421447754
0,1491449,0.05836223438382149,-16.247543334960938,0.46069473028182983,12.816184043884277
0,1491449,-8.111331939697266,-8.42121410369873,-12.947050094604492,-5.981689929962158
0,1491449,-6.211925506591797,25.273422241210938,10.151663780212402,-6.018269062042236
0,1491449,4.9460577964782715,16.143552780151367,16.61203384399414,-4.672413349151611
0,1491449,2.041738510131836,-31.196964263916016,-22.697521209716797,11.62569522857666
0,1491449,-14.568848609924316,-13.881499290466309,-14.454148292541504,15.09924030303955
0,1491450,-7.301114082336426,28.76348114013672,29.18724250793457,-1.502656102180481
0,1491450,7.668308734893799,18.016584396362305,2.6927778720855713,-24.766748428344727
0,1491450,6.922092437744141,-23.63766098022461,-24.35411834716797,0.14404746890068054
0,1491450,-2.6433022022247314,-8.29041862487793,-15.941157341003418,-1.0284297466278076
0,1491450,-20.951152801513672,-4.1475090980529785,1.6900101900100708,-3.1522345542907715
0,1491450,-4.905186176300049,-8.321355819702148,25.99113655090332,6.793885231018066
0,1491451,20.054964065551758,6.2148237228393555,8.702198028564453,-7.992754936218262
0,1491451,-1.5496041774749756,7.001816272735596,-9.163487434387207,13.938353538513184
0,1491451,-11.60462474822998,1.7225446701049805,-10.191850662231445,-6.090158939361572
0,1491451,0.41963571310043335,-10.3132963180542,-4.037171840667725,-1.099234700202942
0,1491451,4.870511531829834,5.040945529937744,32.306495666503906,33.41165542602539
0,1491451,2.8834915161132812,33.99739074707031,23.73810577392578,0.9747359156608582
0,1491452,10.500737190246582,1.4589470624923706,-17.63805389404297,-14.995589256286621
0,1491452,7.563078880310059,-44.247474670410156,-19.029644012451172,-4.024340629577637
0,1491452,-18.40106964111328,-10.671929359436035,-17.3516845703125,-13.936967849731445
0,1491452,2.3585875034332275,29.006933212280273,-13.713142395019531,-14.236992835998535
0,1491452,8.044882774353027,19.281665802001953,32.27032470703125,20.06254768371582
0,1491453,-6.139405250549316,9.206297874450684,14.895527839660645,5.405622959136963
0,1491453,9.275979042053223,-30.87442970275879,-41.16562271118164,-18.87049674987793
0,1491453,7.722324371337891,-22.01869773864746,15.056711196899414,15.195428848266602
0,1491453,-0.9144361019134521,36.28519821166992,37.49045181274414,4.727230548858643
0,1491453,-11.639663696289062,2.8393054008483887,-23.236906051635742,-5.455297470092773
0,1491453,-2.0039424896240234,-7.643502712249756,-11.987964630126953,8.165517807006836
0,1491454,17.95683479309082,7.8675947189331055,1.4044551849365234,-2.594972848892212
0,1491454,-7.8160223960876465,-15.148697853088379,-5.258541584014893,-0.6832917332649231
0,1491454,-23.275341033935547,-14.787294387817383,4.881649017333984,-7.449460506439209
0,1491454,10.467147827148438,17.04990005493164,-3.81368350982666,-8.668075561523438
0,1491454,11.288982391357422,7.481210231781006,4.0220513343811035,0.9658672213554382
0,1491454,-21.519502639770508,-28.200695037841797,-2.9054787158966064,-4.170793056488037
0,1491455,-5.182632923126221,1.6483100652694702,-2.7695116996765137,13.709271430969238
0,1491455,22.97422218322754,13.835274696350098,3.371922254562378,8.818623542785645
0,1491455,1.8616573810577393,-0.5028891563415527,-11.003678321838379,-25.056554794311523
0,1491455,-25.889400482177734,3.5874183177948,4.031391143798828,5.205288887023926
0,1491455,-0.8648322224617004,1.528014063835144,28.28630828857422,24.36529541015625
0,1491455,36.545677185058594,-3.48691463470459,16.751249313354492,-14.96168041229248
0,1491456,13.493955612182617,4.248366355895996,-26.171836853027344,-11.556781768798828
0,1491456,-32.107688903808594,6.704941272735596,-13.424347877502441,7.241739749908447
0,1491456,-6.124856948852539,-9.48602294921875,11.29065227508545,-4.766938209533691
0,1491456,31.77615737915039,-5.141275405883789,4.726973056793213,6.27065372467041
0,1491456,-21.061172485351562,5.770821571350098,11.977272033691406,6.40936279296875
0,1491456,-19.834789276123047,5.432249546051025,-5.041372299194336,-23.958538055419922
0,1491457,20.180770874023438,6.069690227508545,-24.980093002319336,-5.172910690307617
0,1491457,-13.08725643157959,0.6703799366950989,6.342016696929932,38.15840530395508
0,1491457,1.6700832843780518,-10.032661437988281,4.778603553771973,-12.243186950683594
0,1491457,22.84932518005371,-13.65096664428711,-37.05087661743164,-21.08830451965332
0,1491457,-8.242406845092773,10.88399600982666,16.88462257385254,29.48659896850586
0,1491457,6.477489471435547,9.367142677307129,43.58942413330078,-10.862318992614746
0,1491458,-5.494010925292969,-14.615861892700195,-29.21656036376953,1.349183440208435
0,1491458,-25.807950973510742,-5.8780012130737305,-23.412841796875,35.45029830932617
0,1491458,20.12144660949707,1.1539636850357056,33.0474853515625,-31.058229446411133
0,1491458,13.156391143798828,14.045071601867676,9.552684783935547,-30.367033004760742
0,1491458,-9.160675048828125,13.021943092346191,-26.013154983520508,29.007495880126953
0,1491458,3.808990240097046,-19.19578742980957,6.090768814086914,-11.705124855041504
0,1491459,-7.627805709838867,-26.55852508544922,14.891266822814941,1.1157793998718262
0,1491459,-15.0858793258667,12.209335327148438,-13.364988327026367,29.82331657409668
0,1491459,2.9864988327026367,27.772241592407227,-2.344935178756714,-35.588951110839844
0,1491459,10.773056030273438,-10.260941505432129,-0.058375343680381775,-10.389155387878418
0,1491459,-13.336625099182129,-25.851442337036133,-3.3170440196990967,43.30107116699219
0,1491461,-12.018115997314453,0.24301593005657196,-3.3158936500549316,14.452204704284668
0,1491461,20.60593605041504,12.610968589782715,-18.445077896118164,-27.003082275390625
0,1491461,20.3394775390625,9.885139465332031,1.0040674209594727,-10.340592384338379
0,1491461,-11.443317413330078,5.56827449798584,13.937429428100586,22.666217803955078
0,1491461,-9.533682823181152,-10.389484405517578,3.084279775619507,-8.437946319580078
0,1491461,14.422435760498047,2.9271697998046875,12.219452857971191,-23.96810531616211
0,1491462,-2.343062400817871,-0.6964752674102783,20.761884689331055,7.791742324829102
0,1491463,-2.651094675064087,2.4829354286193848,-15.99601936340332,11.56484603881836
0,1491464,3.9277842044830322,16.908735275268555,-23.488143920898438,-16.878774642944336
0,1491467,-19.239971160888672,-21.723453521728516,22.479644775390625,-10.48242473602295
0,1491468,0.765545666217804,3.6768317222595215,4.738221645355225,8.414968490600586
0,1491471,8.281317710876465,16.493696212768555,-14.087121963500977,7.1476922035217285
0,1491472,-12.855717658996582,-18.191600799560547,36.31945037841797,9.606924057006836
0,1491475,17.38043975830078,-11.67880916595459,7.119013786315918,-3.159318685531616
0,1491476,-3.5512826442718506,-1.8694486618041992,-36.346885681152344,11.296226501464844
0,1491479,-10.10028076171875,40.11833190917969,-2.6028671264648438,2.1670870780944824
0,1491480,24.372167587280273,20.2879695892334,2.0409045219421387,-15.862713813781738
0,1491483,-2.9622251987457275,-31.386924743652344,1.3021808862686157,15.914772987365723
0,1491484,6.96766471862793,-7.16257905960083,-8.918254852294922,-5.378457069396973
0,1491487,-5.942606449127197,-4.091658592224121,1.3456752300262451,-8.674605369567871
0,1491488,-28.282634735107422,-2.7482738494873047,13.4620361328125,23.521974563598633
0,1491491,13.08382797241211,3.6330270767211914,-37.957550048828125,-16.689603805541992
0,1491492,11.779722213745117,-5.5986175537109375,7.302412033081055,-72.58927917480469
0,1491495,-7.526386260986328,24.49859046936035,27.14481544494629,-1.0327860116958618
0,1491496,-7.682982444763184,3.502100706100464,-18.278108596801758,82.7822036743164
0,1491499,15.115641593933105,-41.81285858154297,19.802122116088867,22.39154624938965
0,1491500,7.177214622497559,6.6482038497924805,10.12529182434082,-23.077775955200195
0,1491503,-31.79818344116211,5.950593948364258,3.1383056640625,-16.848033905029297
0,1491504,0.8242976665496826,-7.633761882781982,-0.12621058523654938,0.014696378260850906
0,1491507,15.881820678710938,5.491610527038574,-15.84471607208252,16.753442764282227
0,1491509,-9.416982650756836,-7.58516788482666,-0.7478867769241333,-7.503337383270264
1,1492727,10.242875099182129,33.390933990478516,3.421844959259033,2.772146224975586
1,1492729,22.519853591918945,15.160222053527832,-16.772968292236328,2.7386527061462402
1,1492731,-13.671890258789062,-46.23957061767578,-17.828535079956055,-8.281712532043457
1,1492733,-20.222110748291016,4.212719440460205,35.77201843261719,4.376275539398193
1,1492735,-4.656447887420654,40.064212799072266,9.680364608764648,-21.14248275756836
1,1492740,10.766619682312012,-22.24436378479004,-39.643409729003906,-4.430113792419434
1,1492740,19.198833465576172,-39.9445915222168,-16.530399322509766,13.601191520690918
1,1492742,-16.690305709838867,5.963751792907715,16.833900451660156,-8.778374671936035
1,1492743,-5.703021049499512,37.39582061767578,24.326766967773438,-1.6069836616516113
1,1492744,23.77442741394043,22.611404418945312,15.266949653625488,2.9394636154174805
1,1492747,-6.838086128234863,-27.024755477905273,-1.1983859539031982,31.79444122314453
1,1492748,-15.647016525268555,-22.294021606445312,-28.79718589782715,21.76535987854004
1,1492751,28.30364227294922,3.7646632194519043,3.7361412048339844,-69.81269836425781
1,1492752,22.087696075439453,-4.9812235832214355,37.55263900756836,-49.092620849609375
1,1492755,-49.78817367553711,12.480428695678711,-5.029106140136719,59.170753479003906
1,1492756,-22.20121955871582,12.273353576660156,-35.41242599487305,35.008644104003906
1,1492759,25.44603729248047,-17.31684684753418,-21.646669387817383,-28.546546936035156
1,1492760,-11.476663589477539,-4.238362789154053,22.27857208251953,32.228973388671875
1,1492763,-5.370323657989502,15.811199188232422,42.333614349365234,15.957438468933105
1,1492782,11.205038070678711,-6.809017181396484,-18.349647521972656,-55.517704010009766
1,1492782,-2.4866135120391846,2.4952783584594727,-37.5292854309082,-3.433567523956299
1,1492783,-3.6944212913513184,5.587141036987305,13.257163047790527,39.3358268737793
1,1492783,-1.386574149131775,-22.024608612060547,12.081598281860352,8.642183303833008
1,1492783,-12.418270111083984,6.232056617736816,-1.9457826614379883,-19.865983963012695
1,1492783,18.520349502563477,9.923644065856934,5.962372779846191,-9.271942138671875
1,1492783,46.195396423339844,-20.834257125854492,-0.12830860912799835,6.383761882781982
1,1492783,-18.288244247436523,19.020214080810547,-2.561474084854126,-17.134084701538086
1,1492784,-22.850000381469727,31.149276733398438,4.850308418273926,-20.514795303344727
1,1492784,15.75480842590332,-20.600099563598633,6.791404724121094,28.23427391052246
1,1492785,-11.476609230041504,1.4126068353652954,-7.018472671508789,18.700773239135742
1,1492786,-2.7841193675994873,22.866159439086914,-2.1877710819244385,-5.192811489105225
1,1492789,19.42313003540039,-13.007416725158691,-4.831534385681152,-26.100059509277344
1,1492791,-21.621570587158203,-27.45599365234375,-34.62040710449219,-10.148660659790039
1,1492793,-2.2553133964538574,5.850874423980713,5.531533241271973,40.688072204589844
1,1492795,29.67526626586914,-1.267066478729248,29.689468383789062,0.7140121459960938
1,1492797,-21.781099319458008,-25.369897842407227,-3.813429355621338,-0.7729203104972839
1,1492799,-9.278741836547852,31.894624710083008,14.725128173828125,8.043992042541504
1,1492801,6.731067657470703,23.566482543945312,0.8441718220710754,-19.84162139892578
1,1492803,3.204002857208252,-24.427705764770508,-21.554195404052734,-16.491161346435547
1,1492805,14.238628387451172,-11.09904670715332,13.77713680267334,0.5786176919937134
1,1492807,-8.777764320373535,-6.837648868560791,18.458736419677734,20.026025772094727
1,1492808,1.9772626161575317,-3.9430809020996094,-10.504064559936523,3.1650137901306152
1,1492840,11.887120246887207,37.171539306640625,-12.446971893310547,-7.630616188049316
1,1492840,-19.3502197265625,22.594924926757812,8.790385246276855,-1.2962775230407715
1,1492840,-0.4172128438949585,-36.51445007324219,3.4268057346343994,1.5576117038726807
1,1492841,15.499515533447266,-5.821954250335693,-18.680925369262695,-7.856203079223633
1,1492841,-14.87730598449707,8.977076530456543,-6.175596714019775,-4.612450122833252
1,1492841,-19.139144897460938,-0.6706496477127075,10.539610862731934,23.870698928833008
1,1492841,-6.8453755378723145,9.052591323852539,-2.3475263118743896,4.704039096832275
1,1492841,23.508098602294922,-19.605758666992188,7.4626569747924805,-22.120014190673828
1,1492841,21.39798927307129,-19.09754753112793,-0.8147209286689758,-7.515014171600342
1,1492842,-24.49258041381836,2.679710865020752,-21.00172996520996,28.76797103881836
1,1492842,-32.83293533325195,7.0753092765808105,4.622528076171875,23.00542640686035
1,1492842,12.200549125671387,15.957907676696777,11.385019302368164,-34.87846755981445
1,1492842,35.933128356933594,6.608840465545654,5.875333309173584,-28.791170120239258
1,1492842,-3.5139334201812744,-4.92329216003418,6.0949249267578125,-0.3407815992832184
1,1492843,-22.95133399963379,1.7774516344070435,-6.554073333740234,8.051840782165527
1,1492844,22.32086753845215,-6.624518871307373,1.2257070541381836,5.3454437255859375
1,1492844,25.644733428955078,-7.351485729217529,-1.7178574800491333,-12.183271408081055
1,1492845,-13.8396577835083,10.085430145263672,4.34180212020874,16.99550437927246
1,1492847,-14.9765625,2.018739938735962,27.290199279785156,37.2041015625
1,1492849,-22.46367835998535,4.892457485198975,-27.615734100341797,-14.178298950195312
1,1492851,6.90808629989624,4.958861827850342,-47.92183303833008,-27.626033782958984
1,1492853,37.31873321533203,-24.365795135498047,32.289398193359375,2.2981534004211426
1,1492855,-3.887164831161499,-27.82161521911621,26.509267807006836,-0.5453554391860962
1,1492857,-20.373552322387695,17.61016845703125,-24.378185272216797,18.640857696533203
1,1492859,0.5843145847320557,47.09027862548828,3.7696452140808105,19.913330078125
1,1492861,5.280578136444092,-11.114526748657227,-16.591150283813477,-22.679208755493164
1,1492863,-21.127796173095703,-26.762866973876953,-26.196714401245117,-29.0712890625
1,1492865,-11.410357475280762,17.24435806274414,35.93180847167969,-8.961408615112305
1,1492867,27.79680061340332,1.4604291915893555,24.384180068969727,21.82561683654785
1,1492869,11.38408374786377,-14.24621868133545,-3.3136258125305176,18.777238845825195
1,1492913,-18.062740325927734,5.2928080558776855,-6.227731227874756,-5.588123798370361
1,1492914,-0.4568847119808197,6.124188423156738,-14.186871528625488,3.2465736865997314
1,1492914,10.004867553710938,-7.612891674041748,-5.847550392150879,3.2228071689605713
1,1492914,-15.891242027282715,10.208026885986328,21.704946517944336,-6.237679481506348
1,1492914,9.590180397033691,1.1486704349517822,22.358884811401367,-5.54758358001709
1,1492914,19.98853302001953,-0.9931640625,-25.139198303222656,3.6579065322875977
1,1492914,-12.138321876525879,4.456443786621094,-16.588441848754883,7.965887546539307
1,1492915,-0.46332794427871704,-12.917424201965332,15.789450645446777,7.81263542175293
1,1492915,-3.8068253993988037,10.710055351257324,5.917398452758789,-6.198647975921631
1,1492915,-2.976797342300415,4.455364227294922,-4.585439205169678,-26.412395477294922
1,1492915,-1.4661529064178467,-15.21190357208252,-6.438613414764404,-19.72596549987793
1,1492915,-14.622883796691895,-12.357973098754883,-3.831477403640747,18.429845809936523
1,1492915,-2.9190268516540527,9.499940872192383,-10.159411430358887,18.576330184936523
1,1492916,1.5438933372497559,-0.82746422290802,1.8847270011901855,-9.402090072631836
1,1492916,9.059747695922852,-6.278452396392822,22.655595779418945,11.735794067382812
1,1492916,8.24498176574707,21.524980545043945,-15.374472618103027,-3.020829677581787
1,1492916,2.8941495418548584,-11.035271644592285,-9.231806755065918,-2.457219123840332
1,1492916,10.24479866027832,-8.737915992736816,31.5399112701416,3.422396659851074
1,1492917,1.3626937866210938,2.921571731567383,1.0745978355407715,-7.443079471588135
1,1492917,-9.47185230255127,-13.365473747253418,-7.098252296447754,15.468567848205566
1,1492917,-9.456034660339355,28.7520751953125,-1.6380215883255005,-14.803655624389648
1,1492917,0.25803446769714355,13.48283576965332,-4.110457420349121,-10.039631843566895
1,1492918,15.32994270324707,-29.05464744567871,-3.763615846633911,10.658601760864258
1,1492918,-4.414543151855469,3.076780080795288,3.7753281593322754,11.175596237182617
1,1492919,-8.981819152832031,18.6430721282959,19.90474510192871,5.079916000366211
1,1492921,6.32100772857666,-6.181887626647949,-19.038053512573242,-12.517064094543457
1,1492923,-14.707932472229004,-27.402929306030273,-29.551944732666016,-4.311223983764648
1,1492925,19.73931884765625,10.452873229980469,18.327001571655273,18.30867576599121
1,1492927,13.926703453063965,26.638832092285156,8.040407180786133,34.62761306762695
1,1492929,-17.779521942138672,-12.562246322631836,-9.010412216186523,-21.619665145874023
1,1492931,15.984137535095215,-14.317607879638672,5.378422737121582,-70.44987487792969
1,1492933,0.7931091785430908,18.345775604248047,17.829729080200195,-18.925710678100586
1,1492935,-25.813955307006836,19.15730857849121,13.786670684814453,51.17681121826172
1,1492937,-16.53512954711914,-24.302766799926758,-30.883691787719727,36.56153106689453
1,1492939,5.551844120025635,-12.712925910949707,-27.81673240661621,-16.32167625427246
1,1492941,0.03250958025455475,17.990550994873047,16.974689483642578,-15.290026664733887
1,1492943,12.174219131469727,-17.990449905395508,25.24591827392578,-7.66742467880249
1,1492945,31.81281280517578,6.366998672485352,3.5982348918914795,12.081536293029785
1,1492947,-5.146974563598633,19.618440628051758,-21.06932258605957,6.902129173278809
1,1493004,-38.736732482910156,-51.776588439941406,-13.681480407714844,-9.366133689880371
1,1493004,-17.566781997680664,3.580404043197632,0.2414298951625824,21.89910888671875
1,1493004,30.175928115844727,40.15446090698242,-1.2159141302108765,0.18569643795490265
1,1493004,9.228914260864258,-13.713701248168945,3.4747848510742188,-6.651827812194824
1,1493004,-14.427050590515137,-16.19609260559082,8.261731147766113,12.925071716308594
1,1493005,12.38216781616211,13.784879684448242,8.83903694152832,-12.036904335021973
1,1493005,-1.4941391944885254,22.11730194091797,3.1419856548309326,-28.283977508544922
1,1493005,-5.315716743469238,-18.199012756347656,-3.962242364883423,2.265218496322632
1,1493005,-0.10301041603088379,-4.07058572769165,3.1761703491210938,9.045553207397461
1,1493005,-4.181806564331055,16.475799560546875,3.4639015197753906,8.704907417297363
1,1493005,7.922845840454102,8.930307388305664,6.836383819580078,28.681665420532227
1,1493006,1.5371514558792114,10.54538631439209,-0.07422143220901489,-23.30353546142578
1,1493006,12.611746788024902,-15.525249481201172,-6.2970147132873535,-26.616540908813477
1,1493006,-0.9035891890525818,-11.922774314880371,22.068387985229492,14.286409378051758
1,1493006,-10.991905212402344,23.27472686767578,-6.888016223907471,-6.43414306640625
1,1493006,7.704280853271484,6.990364074707031,-29.78972816467285,-11.10602855682373
1,1493006,-9.146881103515625,-31.09893226623535,14.068246841430664,1.2082768678665161
1,1493007,7.213865280151367,1.109188199043274,-4.547518253326416,-10.430705070495605
1,1493007,-4.558028697967529,2.1949594020843506,-18.601778030395508,-1.7123557329177856
1,1493007,-22.425888061523438,-12.15437126159668,18.875078201293945,21.99813461303711
1,1493007,7.403185844421387,18.723140716552734,0.8969675898551941,-6.882244110107422
1,1493007,-5.360358238220215,-17.408615112304688,-21.296836853027344,0.6894009709358215
1,1493008,-6.2945404052734375,-33.8075065612793,-3.651823043823242,28.51784896850586
1,1493008,12.510008811950684,25.19069480895996,30.723033905029297,-9.094767570495605
1,1493008,13.067968368530273,34.2119140625,10.690821647644043,-10.065053939819336
1,1493008,-4.250568389892578,-19.600940704345703,-19.71031379699707,9.99600601196289
1,1493008,-2.4087469577789307,-17.13158416748047,3.783318281173706,-7.132094860076904
1,1493008,19.354209899902344,10.599032402038574,-12.867572784423828,2.8702433109283447
1,1493010,-18.168582916259766,0.13098371028900146,-14.747382164001465,-4.511388778686523
1,1493010,-13.33541202545166,-8.882303237915039,5.485794544219971,-9.010470390319824
1,1493010,8.079571723937988,-0.3083978593349457,10.784599304199219,17.77728271484375
1,1493011,-2.5605711936950684,3.878539562225342,12.86003303527832,1.6999567747116089
1,1493013,29.98520851135254,30.29587173461914,5.394951343536377,-4.736658573150635
1,1493015,6.960376262664795,-3.193324327468872,0.511812150478363,4.457272529602051
1,1493017,-20.079931259155273,-40.40068435668945,-4.601614475250244,11.528820991516113
1,1493019,-6.227591514587402,22.684728622436523,-23.032739639282227,-13.485356330871582
1,1493021,-6.112751483917236,23.534156799316406,-5.583540439605713,-25.493385314941406
1,1493023,4.429136753082275,15.370111465454102,45.067996978759766,31.788339614868164
1,1493025,16.987947463989258,-35.14847946166992,4.864161491394043,55.067989349365234
1,1493027,-7.838266849517822,-58.449462890625,-22.54591178894043,-2.2812838554382324
1,1493029,-28.232742309570312,37.746192932128906,5.935026168823242,-53.56602478027344
1,1493031,2.9774816036224365,4.050107002258301,-3.7079544067382812,-9.671736717224121
1,1493033,26.12657356262207,-2.481005907058716,5.5504302978515625,9.171632766723633
1,1493035,9.942702293395996,79.21411895751953,-14.848018646240234,-22.866073608398438
1,1493037,-37.87507629394531,-14.478376388549805,-58.73420333862305,-38.20934295654297
1,1493038,-14.73373794555664,-74.91240692138672,-4.458196640014648,-31.229387283325195
1,1493041,36.62307357788086,35.275272369384766,87.1016845703125,55.54805374145508
1,1493110,16.337732315063477,37.34429931640625,27.86740493774414,76.68952941894531
1,1493110,1.0412285327911377,-38.65497970581055,-64.71404266357422,-20.373464584350586
1,1493110,-13.769330978393555,-6.7069196701049805,-9.360543251037598,-56.31288146972656
1,1493110,-13.103690147399902,6.694656848907471,9.107512474060059,12.580026626586914
1,1493110,-2.618506908416748,-6.546082973480225,-3.0292232036590576,38.09309005737305
1,1493110,-2.4746806621551514,6.528141975402832,13.695815086364746,-19.620437622070312
1,1493111,4.280725002288818,-12.298009872436523,2.8819830417633057,-7.627228736877441
1,1493111,-13.187088012695312,-27.66346549987793,-0.10558027029037476,24.90530776977539
1,1493111,-1.0912116765975952,7.141995906829834,5.419811725616455,-14.387805938720703
1,1493111,26.857267379760742,36.175201416015625,-9.736763954162598,-26.097326278686523
1,1493111,-13.925736427307129,-9.959976196289062,-18.272769927978516,0.663735568523407
1,1493111,-16.0600643157959,-14.677159309387207,7.922463893890381,6.956955909729004
1,1493112,22.96413230895996,24.258119583129883,2.804994583129883,-20.114669799804688
1,1493112,9.426314353942871,5.9087748527526855,12.71942138671875,-16.89130401611328
1,1493112,-2.642618179321289,-3.40204119682312,16.182266235351562,4.500999450683594
1,1493112,8.723106384277344,7.716081619262695,2.9780471324920654,-7.212642669677734
1,1493112,12.274200439453125,-22.69835090637207,-2.280972480773926,3.4279606342315674
1,1493112,-11.25558090209961,-15.714284896850586,-16.048736572265625,21.001121520996094
1,1493113,-10.019363403320312,24.092622756958008,6.7829270362854,39.90693664550781
1,1493113,-0.7097750902175903,17.039119720458984,17.70203399658203,13.003776550292969
1,1493113,-2.8730108737945557,-0.5029715299606323,3.5499212741851807,-7.020259380340576
1,1493113,12.345160484313965,-3.6024973392486572,-3.551517963409424,9.793033599853516
1,1493113,3.7349677085876465,-1.3740370273590088,6.5775251388549805,-5.154907703399658
1,1493113,3.7804133892059326,-3.228182792663574,-13.60190200805664,17.434547424316406
1,1493114,9.810110092163086,-2.338667392730713,-9.579380989074707,21.53548812866211
1,1493114,-15.292930603027344,-13.23141098022461,3.6442947387695312,-6.558390140533447
1,1493114,-25.121362686157227,-7.581608295440674,-25.172544479370117,-17.969261169433594
1,1493114,-7.585674285888672,-2.658003807067871,7.342921733856201,-15.500936508178711
1,1493114,14.198137283325195,-8.660758018493652,23.4321231842041,-2.676774501800537
1,1493115,-2.9232873916625977,-8.17481517791748,-16.555509567260742,-25.76903533935547
1,1493115,-6.5651421546936035,-2.4316115379333496,-21.229705810546875,-26.405391693115234
1,1493115,3.8405539989471436,34.178462982177734,-4.409234046936035,12.609236717224121
1,1493115,-10.56080436706543,2.8236680030822754,14.158468246459961,0.2902148962020874
1,1493115,7.690202236175537,-21.958871841430664,22.797468185424805,-4.5853447914123535
1,1493117,25.018190383911133,28.66094970703125,-7.384603500366211,75.59445190429688
1,1493117,15.135170936584473,-1.6827709674835205,-22.818105697631836,57.82621383666992
1,1493117,-5.768420696258545,-24.835832595825195,23.49542808532715,-42.04082489013672
1,1493117,-11.028389930725098,24.581344604492188,36.979225158691406,-14.36624813079834
1,1493118,7.146124839782715,2.6056885719299316,-24.649688720703125,-28.081188201904297
1,1493121,7.024749755859375,-44.63337326049805,-87.20564270019531,-120.54191589355469
1,1493122,-20.046573638916016,-1.975453495979309,-25.073701858520508,-2.5871613025665283
1,1493125,-16.44957160949707,49.64716720581055,127.7574691772461,122.26205444335938
1,1493126,-10.180574417114258,54.289390563964844,41.803436279296875,27.87225341796875
1,1493129,-22.783615112304688,1.2269598245620728,-91.26078796386719,-53.87641525268555
1,1493130,5.93260383605957,-95.79983520507812,-3.5013527870178223,0.2443256825208664
1,1493133,14.585025787353516,-70.02960205078125,26.851009368896484,45.52580642700195
1,1493134,34.09682083129883,54.938480377197266,-9.295469284057617,-54.032432556152344
1,1493137,24.383874893188477,93.24396514892578,-0.5514426827430725,-25.853744506835938
1,1493138,-61.3851203918457,-33.94373321533203,10.401237487792969,16.30024528503418
1,1493141,-14.809052467346191,-20.688411712646484,5.024275779724121,-12.939915657043457
1,1493142,31.16120147705078,85.4610595703125,-10.64671802520752,42.4744987487793
1,1493145,22.420612335205078,-122.97116088867188,-5.91116189956665,12.49947452545166
1,1493146,33.720947265625,-131.52110290527344,-29.528867721557617,-58.29645538330078
1,1493149,18.89478302001953,90.1295394897461,7.096022605895996,-14.176432609558105
1,1493151,22.75567054748535,133.93528747558594,63.92950439453125,45.77909851074219
1,1493232,-78.65373229980469,57.2618408203125,-27.97673988342285,-45.879119873046875
1,1493232,-82.81719970703125,-96.41423797607422,-50.83980178833008,-12.003049850463867
1,1493232,37.679080963134766,-46.9117431640625,38.025238037109375,78.07804870605469
1,1493232,21.14629554748535,50.653507232666016,37.056846618652344,13.310057640075684
1,1493233,12.22005558013916,-8.223774909973145,-28.602916717529297,-26.67104721069336
1,1493233,16.646772384643555,-6.925527095794678,-17.362064361572266,-11.433228492736816
1,1493233,-40.13731384277344,17.985462188720703,24.32819938659668,6.767917156219482
1,1493233,-16.31395149230957,10.495830535888672,-9.29990291595459,1.9407356977462769
1,1493233,34.50018310546875,5.825093746185303,-34.87453842163086,-19.71845245361328
1,1493233,1.1199806928634644,-5.209863185882568,2.3160977363586426,-11.75073528289795
1,1493234,-7.866062641143799,13.066555976867676,25.07896614074707,22.606613159179688
1,1493234,18.351985931396484,1.546916127204895,13.544132232666016,39.32743835449219
1,1493234,20.781702041625977,-16.598817825317383,20.466217041015625,25.97583770751953
1,1493234,15.162809371948242,-3.5831189155578613,11.047049522399902,11.030375480651855
1,1493234,3.5744285583496094,-5.637542724609375,-20.610273361206055,35.192848205566406
1,1493234,-20.670501708984375,12.127041816711426,-8.193483352661133,0.9552618265151978
1,1493235,-32.08343505859375,11.267634391784668,11.646830558776855,-65.35182189941406
1,1493235,-4.727566242218018,-28.10344123840332,-14.776298522949219,-36.71141052246094
1,1493235,12.530472755432129,-17.473283767700195,-18.97433853149414,1.973170280456543
1,1493235,-8.16928768157959,4.169581890106201,0.9603398442268372,-23.13730812072754
1,1493235,-9.992685317993164,-4.635468482971191,-3.561624526977539,-25.574352264404297
1,1493235,13.126480102539062,6.810344696044922,-3.206397294998169,1.174377202987671
1,1493236,18.67089080810547,-12.173219680786133,1.8502399921417236,3.076108455657959
1,1493236,-10.821020126342773,-26.563629150390625,7.21405029296875,5.360249042510986
1,1493236,-21.845462799072266,17.66925811767578,14.570714950561523,-15.103150367736816
1,1493236,6.980165004730225,20.573148727416992,0.4770839810371399,-29.669382095336914
1,1493236,1.9742506742477417,-13.221599578857422,-15.50232982635498,3.652170419692993
1,1493237,-9.09368896484375,-1.8962604999542236,5.018604755401611,15.207904815673828
1,1493237,5.187745571136475,0.8718698024749756,21.5394287109375,13.984183311462402
1,1493237,11.862013816833496,-12.400586128234863,-11.732282638549805,-0.22578616440296173
1,1493237,1.6530430316925049,2.444984197616577,-22.235206604003906,1.7458313703536987
1,1493237,-9.089475631713867,5.872138023376465,16.863693237304688,22.68079948425293
1,1493237,8.878727912902832,-11.778403282165527,15.595602989196777,17.342056274414062
1,1493238,4.393425941467285,2.9669549465179443,-9.19281005859375,40.17243576049805
1,1493238,-4.905126094818115,24.088031768798828,-12.682544708251953,1.5181922912597656
1,1493238,10.009933471679688,-1.3265239000320435,-11.389920234680176,-48.522491455078125
1,1493238,2.2966365814208984,-0.31285732984542847,-0.26635685563087463,3.2797584533691406
1,1493238,-4.211798191070557,9.464381217956543,15.109169960021973,17.634197235107422
1,1493238,-1.5401415824890137,-22.536954879760742,-4.365148544311523,-47.272804260253906
1,1493239,-16.867753982543945,-22.98479461669922,-6.3751654624938965,-26.820831298828125
1,1493240,-9.21385383605957,-15.129568099975586,24.38096809387207,105.14337921142578
1,1493240,21.877315521240234,4.69336462020874,14.325204849243164,60.353782653808594
1,1493240,10.175881385803223,24.70327377319336,-21.413833618164062,-74.57289123535156
1,1493240,-0.7475907802581787,-1.7873386144638062,-27.68917465209961,-22.726186752319336
1,1493242,5.569705486297607,32.87423324584961,25.063308715820312,98.55693817138672
1,1493243,6.181158065795898,44.733009338378906,24.867780685424805,39.57196044921875
1,1493244,3.4835171699523926,-75.90171813964844,-40.567848205566406,-136.74606323242188
1,1493247,12.536341667175293,-137.08482360839844,-24.768051147460938,197.42616271972656
1,1493248,-17.519187927246094,4.732666492462158,9.960844039916992,153.5595703125
1,1493251,-68.78458404541016,147.61138916015625,-4.594249248504639,-438.46002197265625
1,1493252,32.873287200927734,88.43311309814453,33.0201416015625,-146.03256225585938
1,1493255,60.29375457763672,74.28006744384766,38.248775482177734,128.4229278564453
1,1493256,-54.38852310180664,68.37358856201172,1.310063362121582,-47.661006927490234
1,1493259,-15.835139274597168,-211.2198028564453,-34.97283172607422,-3.0000758171081543
1,1493261,57.7635383605957,-264.6494140625,-73.47298431396484,375.0046691894531
1,1493263,-5.127171993255615,108.24286651611328,32.40235900878906,58.44922637939453
1,1493265,-44.02880859375,164.04766845703125,75.31736755371094,-467.3024597167969
1,1493267,0.2815019190311432,63.987159729003906,12.139389038085938,116.60751342773438
1,1493269,-15.360538482666016,92.48107147216797,-6.441882610321045,127.86153411865234
1,1493271,20.13442039489746,-115.71673583984375,-30.964147567749023,-141.7845458984375
1,1493273,43.31513977050781,-119.99954223632812,-15.879670143127441,7.140155792236328
1,1493275,-7.101701259613037,54.09296798706055,-12.211549758911133,25.783496856689453
1,1493277,43.18156051635742,-24.641584396362305,-29.353174209594727,105.08007049560547
1,1493371,-49.72306442260742,-20.12181854248047,-35.48530197143555,-36.12272644042969
1,1493371,-108.24930572509766,89.90686798095703,2.037747383117676,-121.88280487060547
1,1493371,43.56401062011719,24.28821563720703,30.883697509765625,5.029715538024902
1,1493371,45.567970275878906,-38.53557205200195,1.4108413457870483,22.2541561126709
1,1493372,1.882855772972107,-8.61953067779541,-15.085168838500977,31.016206741333008
1,1493372,-3.9801974296569824,-21.323163986206055,2.9339447021484375,91.24494171142578
1,1493372,-10.392073631286621,-12.308735847473145,31.779701232910156,55.25973892211914
1,1493372,22.178943634033203,-2.072049140930176,21.878231048583984,-12.435324668884277
1,1493372,12.140538215637207,-6.792921543121338,7.4314374923706055,0.5336374044418335
1,1493372,-12.911687850952148,19.048179626464844,15.083237648010254,-4.848270893096924
1,1493373,2.283252716064453,19.111326217651367,10.176996231079102,-56.4142951965332
1,1493373,-5.543285846710205,-2.7240207195281982,11.265538215637207,-56.99822235107422
1,1493373,-7.2405805587768555,1.2004683017730713,19.986610412597656,-31.77918243408203
1,1493373,6.892154693603516,10.36954402923584,-11.055439949035645,-28.641477584838867
1,1493373,-6.704474449157715,-12.687417984008789,-37.173091888427734,-0.258253812789917
1,1493373,-9.433021545410156,-28.01851463317871,-5.468916893005371,50.020355224609375
1,1493374,-13.093923568725586,-16.63976287841797,18.148380279541016,40.648563385009766
1,1493374,4.505126953125,8.555304527282715,-23.52391815185547,-12.593361854553223
1,1493374,10.202316284179688,10.217500686645508,-28.619121551513672,-17.137239456176758
1,1493374,-4.0444183349609375,-4.676199436187744,-0.9943447709083557,25.817733764648438
1,1493374,-9.655084609985352,26.76449966430664,7.560564041137695,10.975547790527344
1,1493375,5.759668350219727,29.465255737304688,24.769514083862305,-25.287569046020508
1,1493375,25.355571746826172,10.451492309570312,20.12298583984375,-10.037583351135254
1,1493375,18.238948822021484,12.87142562866211,8.958663940429688,-4.408206939697266
1,1493375,19.85831642150879,-17.849109649658203,-4.130905628204346,-9.843518257141113
1,1493375,-12.961897850036621,-28.52815055847168,-11.092126846313477,-0.2512968182563782
1,1493375,-18.19488525390625,-8.185284614562988,0.27733948826789856,-11.942288398742676
1,1493376,13.402467727661133,-0.8692194819450378,24.394893646240234,-31.165815353393555
1,1493376,3.7545342445373535,-16.470510482788086,3.569185972213745,-2.694535970687866
1,1493376,-11.616463661193848,-36.536800384521484,-27.33816909790039,19.414508819580078
1,1493376,-23.786008834838867,0.4504052698612213,8.348484992980957,20.945688247680664
1,1493376,-12.342299461364746,22.356056213378906,20.367515563964844,37.11745834350586
1,1493376,8.819244384765625,13.668695449829102,1.5435690879821777,30.793964385986328
1,1493377,9.279570579528809,19.80915069580078,-20.277606964111328,2.2109014987945557
1,1493377,3.795362949371338,10.0449800491333,-40.14181900024414,-17.60533332824707
1,1493377,-7.302042007446289,-15.388838768005371,-23.27534294128418,-21.778961181640625
1,1493377,-18.424856185913086,-24.56781578063965,7.934739112854004,-7.742577075958252
1,1493377,-5.112600803375244,8.467996597290039,4.10225772857666,-11.17755126953125
1,1493377,7.7884521484375,-25.195114135742188,-0.19274166226387024,-23.44602394104004
1,1493378,-13.863288879394531,-40.310020446777344,-7.499404430389404,12.07961654663086
1,1493378,-5.1035284996032715,25.94331932067871,-8.628398895263672,52.92311096191406
1,1493378,29.01375961303711,6.324856281280518,23.694690704345703,81.32877349853516
1,1493378,8.143889427185059,4.424867153167725,11.997172355651855,86.60491180419922
1,1493378,-0.185278981924057,34.95194625854492,18.476091384887695,79.76605987548828
1,1493378,45.289608001708984,11.441654205322266,25.597360610961914,85.74658966064453
1,1493379,29.077293395996094,35.232852935791016,-6.937829494476318,25.470661163330078
1,1493379,-21.965744018554688,33.069679260253906,-10.552350044250488,-49.88459396362305
1,1493380,-42.44255828857422,-41.29286193847656,-8.990092277526855,-204.66836547851562
1,1493380,-33.9521369934082,-34.808837890625,-8.197168350219727,-188.634765625
1,1493380,11.139934539794922,16.488739013671875,-13.269736289978027,79.10013580322266
1,1493381,-3.7388064861297607,8.719707489013672,-6.392060279846191,25.880781173706055
1,1493382,1.04097318649292,36.12432861328125,0.9667494297027588,-130.4419403076172
1,1493383,37.129764556884766,77.25861358642578,-12.808849334716797,-124.52191162109375
1,1493384,-2.008046865463257,-8.417519569396973,-23.831573486328125,-29.98894691467285
1,1493387,-28.399208068847656,-96.81924438476562,16.067384719848633,160.37644958496094
1,1493389,-39.17571258544922,-131.05294799804688,33.12895202636719,49.358394622802734
1,1493391,45.48167419433594,70.50411224365234,6.559516429901123,-103.73456573486328
1,1493393,79.0177993774414,153.5325164794922,39.391414642333984,190.10797119140625
1,1493395,-66.2126235961914,-238.25611877441406,-39.66303253173828,331.6611328125
1,1493397,-4.195738315582275,-120.8690185546875,-48.80326843261719,44.28133773803711
1,1493399,50.256282806396484,230.9176788330078,10.100508689880371,-446.2045593261719
1,1493401,-15.928095817565918,55.920291900634766,-15.076166152954102,-253.8814697265625
1,1493403,-58.18891525268555,-67.44656372070312,57.4405403137207,254.60684204101562
1,1493405,-82.03736114501953,-1.7380545139312744,31.471435546875,-43.19387435913086
1,1493407,66.99671936035156,29.106098175048828,-32.64482116699219,-89.91679382324219
1,1493409,43.96047592163086,26.55556297302246,-12.590989112854004,88.81826782226562
1,1493411,-29.858129501342773,1.1696956157684326,-7.026673793792725,-10.130871772766113
1,1493413,26.743396759033203,30.72803497314453,-8.567365646362305,12.222481727600098
1,1493415,27.299108505249023,19.043601989746094,34.692665100097656,65.27146911621094
1,1493417,-6.203720569610596,-77.93061065673828,23.4836368560791,42.26381301879883
1,1493523,-51.663307189941406,-61.440216064453125,-60.432254791259766,36.56956100463867
1,1493523,6.3884077072143555,3.290499448776245,-0.6051138639450073,39.316463470458984
1,1493523,35.99117660522461,11.84714126586914,50.09299087524414,-25.571062088012695
1,1493523,-3.8665778636932373,-23.364112854003906,-25.503950119018555,-33.546478271484375
1,1493524,-6.189830780029297,-31.714107513427734,-17.897151947021484,-0.15241338312625885
1,1493524,-10.324760437011719,20.692102432250977,15.925116539001465,-24.688587188720703
1,1493524,7.496172904968262,54.61610412597656,-0.8689635992050171,-40.61931228637695
1,1493524,4.330377578735352,42.602787017822266,-3.070237159729004,-10.361319541931152
1,1493524,-18.913999557495117,17.564395904541016,10.386192321777344,1.2734793424606323
1,1493525,9.888615608215332,22.525171279907227,32.514671325683594,-3.005521774291992
1,1493525,15.978833198547363,-1.8876460790634155,-4.296295642852783,0.2926638126373291
1,1493525,-0.2544598877429962,-50.56319046020508,-25.328643798828125,23.155784606933594
1,1493525,12.863926887512207,-10.669588088989258,-14.661258697509766,4.466361045837402
1,1493525,-1.7069931030273438,0.541912317276001,-5.439398765563965,-4.088095664978027
1,1493525,-36.089820861816406,-26.620922088623047,14.14502239227295,13.442007064819336
1,1493526,-9.331414222717285,20.627056121826172,-15.1226806640625,-25.19682502746582
1,1493526,11.668235778808594,-7.5201311111450195,-11.756760597229004,-1.4273463487625122
1,1493526,-18.892011642456055,-30.130815505981445,9.548429489135742,28.957111358642578
1,1493526,-10.065447807312012,24.751853942871094,8.73674201965332,-21.09778594970703
1,1493526,13.014148712158203,19.004484176635742,3.248117208480835,-8.362382888793945
1,1493526,17.170026779174805,19.319833755493164,-6.981314659118652,23.115983963012695
1,1493527,6.8598856925964355,7.704925060272217,14.145819664001465,-5.896061897277832
1,1493527,9.747766494750977,-15.24817180633545,8.32046890258789,-3.7671406269073486
1,1493527,8.852866172790527,-14.799727439880371,-20.7397403717041,-10.71568775177002
1,1493527,-24.810840606689453,-20.1744441986084,-3.684234142303467,5.135879039764404
1,1493527,-4.176417827606201,17.885391235351562,9.158635139465332,34.0928840637207
1,1493527,22.62630271911621,16.7594051361084,-12.255643844604492,-21.6989688873291
1,1493528,-3.8752517700195312,-5.39351224899292,1.4524966478347778,-26.011394500732422
1,1493528,-18.66628074645996,4.1704277992248535,25.43848991394043,0.9405280947685242
1,1493528,1.1126471757888794,0.10464328527450562,-7.626122951507568,-18.286273956298828
1,1493528,12.769329071044922,-0.9801267385482788,-16.890413284301758,13.992958068847656
1,1493528,-16.87514305114746,-0.6342465281486511,18.806251525878906,39.20228576660156
1,1493529,0.20873412489891052,-7.691854000091553,-1.2780120372772217,-17.486515045166016
1,1493529,2.1159210205078125,-20.160831451416016,-32.93570327758789,-21.4305477142334
1,1493529,-27.538625717163086,-6.903670787811279,-4.959344387054443,33.61689376831055
1,1493529,27.94508934020996,22.136642456054688,18.032215118408203,8.865442276000977
1,1493529,23.96405792236328,7.380279541015625,6.768855571746826,-27.764036178588867
1,1493529,-37.01932907104492,-2.2457075119018555,2.2458083629608154,7.266506671905518
1,1493529,-16.770374298095703,13.932029724121094,4.027132987976074,9.677989959716797
1,1493530,36.67202377319336,7.167699337005615,3.714709997177124,-18.363988876342773
1,1493530,-3.4245874881744385,-4.013421058654785,-1.3963394165039062,19.708391189575195
1,1493530,-14.69359016418457,-2.8885185718536377,6.1948652267456055,22.793682098388672
1,1493530,33.99024963378906,-14.689872741699219,13.735993385314941,-20.463647842407227
1,1493530,-3.755150556564331,-0.570292592048645,2.202935218811035,-2.9304161071777344
1,1493530,4.079630374908447,31.613727569580078,-16.746681213378906,-14.708171844482422
1,1493531,12.763557434082031,-23.53716278076172,-15.92044734954834,-18.16121482849121
1,1493531,-26.834299087524414,-40.742889404296875,12.031270980834961,16.223215103149414
1,1493531,-8.575739860534668,25.699867248535156,-2.0784084796905518,18.900123596191406
1,1493531,27.72629165649414,24.584468841552734,-11.171399116516113,10.599258422851562
1,1493531,21.023744583129883,9.631437301635742,14.707857131958008,-28.14959144592285
1,1493532,-11.952974319458008,-25.842634201049805,7.583870887756348,9.44858169555664
1,1493532,-26.36651039123535,-21.931562423706055,-26.505197525024414,34.1904411315918
1,1493532,-5.780777931213379,32.292274475097656,-2.162367105484009,-18.833606719970703
1,1493533,12.62950325012207,-0.2095228135585785,30.40249252319336,14.330540657043457
1,1493533,-3.830963611602783,-19.70256805419922,1.4343407154083252,-1.675820231437683
1,1493533,-15.111392974853516,-12.036221504211426,0.6939610242843628,-27.215349197387695
1,1493534,-2.6478395462036133,3.6484107971191406,-16.449970245361328,-2.8932602405548096
1,1493534,0.9822486639022827,23.436607360839844,4.0438151359558105,3.4834558963775635
1,1493535,-13.352546691894531,-5.973776817321777,22.873233795166016,19.17186737060547
1,1493536,5.681488037109375,-14.259814262390137,-42.581077575683594,-7.528005123138428
1,1493539,25.155105590820312,7.080109119415283,-4.950711727142334,-19.419925689697266
1,1493540,-3.1523571014404297,-7.440183162689209,9.607019424438477,-16.31315803527832
1,1493543,-15.241333961486816,-11.138407707214355,-10.171175003051758,-7.211735248565674
1,1493544,-2.2652413845062256,-19.508127212524414,20.797786712646484,4.473029613494873
1,1493547,24.474945068359375,2.5362389087677,-15.064841270446777,16.897811889648438
1,1493549,6.541850566864014,38.91080093383789,2.386155366897583,29.780061721801758
1,1493551,-23.163450241088867,13.018791198730469,27.14419174194336,-16.70467185974121
1,1493553,3.5001978874206543,-7.571497917175293,-1.5704437494277954,-34.652889251708984
1,1493555,1.4059672355651855,-13.992520332336426,-15.712268829345703,15.03320026397705
1,1493557,-2.6609678268432617,-17.840993881225586,-43.61442947387695,27.006244659423828
1,1493559,24.783790588378906,29.734235763549805,19.841413497924805,-10.21884536743164
1,1493561,5.410743713378906,27.01532745361328,51.04402160644531,-11.902973175048828
1,1493564,-57.05831527709961,-34.62316131591797,-5.685579776763916,32.654197692871094
1,1493673,-6.053647518157959,13.335183143615723,5.303583145141602,5.916927337646484
1,1493673,42.434505462646484,14.63448429107666,-10.033796310424805,-39.98101043701172
1,1493673,-4.070735931396484,-24.252460479736328,-6.578603267669678,7.134492874145508
1,1493673,5.414599895477295,-2.071749210357666,6.070850372314453,30.7769718170166
1,1493674,-9.945372581481934,5.810391426086426,-25.758852005004883,-5.378670692443848
1,1493674,-18.052963256835938,-20.66069221496582,-6.661838531494141,-18.816722869873047
1,1493674,27.562265396118164,-8.416985511779785,20.48430061340332,7.550140857696533
1,1493674,14.176331520080566,47.86836624145508,15.192081451416016,15.567851066589355
1,1493674,-18.485004425048828,2.662402868270874,-1.927573323249817,-14.339275360107422
1,1493674,2.2358052730560303,-29.55130958557129,-21.1741886138916,-15.266671180725098
1,1493675,11.809953689575195,22.673402786254883,3.2282259464263916,-2.1081879138946533
1,1493675,1.1475733518600464,1.8035674095153809,14.636425018310547,7.578609466552734
1,1493675,15.397055625915527,-32.045291900634766,-26.950300216674805,19.9299259185791
1,1493675,-23.226886749267578,-2.4293158054351807,7.09962272644043,-8.408609390258789
1,1493675,-27.339008331298828,21.777982711791992,34.45631790161133,-31.01471519470215
1,1493676,22.58578872680664,13.522052764892578,-18.075942993164062,-6.3160319328308105
1,1493676,-8.782198905944824,-8.717577934265137,-5.761280536651611,19.35735511779785
1,1493676,-15.91689682006836,3.227504014968872,22.756052017211914,1.0583206415176392
1,1493676,23.752307891845703,-5.082452774047852,-17.456647872924805,-12.03055477142334
1,1493676,-7.924201011657715,-35.25938415527344,-32.33552169799805,-6.392325401306152
1,1493676,-31.320335388183594,3.240039587020874,-0.28660401701927185,8.867069244384766
1,1493677,11.442200660705566,28.987228393554688,22.566997528076172,7.5858283042907715
1,1493677,21.646800994873047,1.6493980884552002,4.5023040771484375,-11.297269821166992
1,1493677,8.336806297302246,-7.415736198425293,-10.728920936584473,22.687599182128906
1,1493677,5.056983947753906,-7.13506555557251,-1.703896403312683,-1.0943375825881958
1,1493677,-6.823513507843018,-2.295628070831299,5.254123687744141,-34.64104461669922
1,1493677,-10.064726829528809,3.3675057888031006,8.508831977844238,3.2345800399780273
1,1493678,-1.960187315940857,6.8853864669799805,1.051328420639038,15.053296089172363
1,1493678,16.775163650512695,-14.452664375305176,-6.044981479644775,9.300641059875488
1,1493678,11.160865783691406,-9.12332820892334,-5.6421098709106445,-11.773428916931152
1,1493678,-7.6686482429504395,39.3577880859375,15.271634101867676,-5.005349636077881
1,1493678,3.969857692718506,-2.9923503398895264,10.75536060333252,15.843390464782715
1,1493678,-6.2477617263793945,-31.27833366394043,-21.649396896362305,-14.8538179397583
1,1493679,-8.331474304199219,15.998074531555176,-10.877847671508789,-4.08779764175415
1,1493679,-3.024200439453125,-4.513063430786133,20.680233001708984,35.888736724853516
1,1493679,-5.00848913192749,-31.280492782592773,4.965067386627197,9.147668838500977
1,1493679,9.26102352142334,10.705870628356934,-11.282866477966309,-12.861916542053223
1,1493679,-6.376445770263672,27.118871688842773,13.959468841552734,-3.302178382873535
1,1493679,-5.9769697189331055,-7.921081066131592,-4.828631401062012,4.730623245239258
1,1493680,-1.9134838581085205,-0.12741167843341827,-38.501686096191406,15.287474632263184
1,1493680,6.550673484802246,13.42587661743164,-7.760112285614014,0.3288319706916809
1,1493680,5.368028163909912,-3.2687978744506836,25.850358963012695,-19.45098304748535
1,1493680,-21.68179702758789,6.373483180999756,18.50271987915039,-17.452295303344727
1,1493680,25.968305587768555,-5.302486419677734,-3.0075843334198,2.303771734237671
1,1493680,19.85449981689453,-8.969954490661621,-14.872139930725098,15.081737518310547
1,1493681,-27.055391311645508,21.10988426208496,10.732994079589844,0.42069825530052185
1,1493681,19.32457160949707,12.403446197509766,19.286495208740234,10.215879440307617
1,1493681,-0.39930808544158936,-14.309722900390625,-6.987532138824463,24.292095184326172
1,1493681,-33.24880599975586,6.1488165855407715,8.592300415039062,-14.769466400146484
1,1493681,31.190587997436523,1.5294634103775024,16.00998306274414,-42.03616714477539
1,1493681,10.058330535888672,-39.77689743041992,-27.533029556274414,-3.390965700149536
1,1493682,-39.72232437133789,-12.081732749938965,-11.85720443725586,40.50325012207031
1,1493682,18.158971786499023,20.75899887084961,27.751201629638672,-9.65001106262207
1,1493682,15.457226753234863,12.132286071777344,-10.338451385498047,-34.15714645385742
1,1493682,-35.93332290649414,0.48196813464164734,-23.75083351135254,15.228010177612305
1,1493683,3.309964895248413,0.7046124339103699,-15.724231719970703,-8.215972900390625
1,1493684,13.69168758392334,4.052647590637207,-4.065576553344727,-22.13846206665039
1,1493684,-12.826412200927734,-14.624459266662598,20.580415725708008,16.17340660095215
1,1493684,14.556929588317871,-20.49702262878418,-0.40289950370788574,11.757743835449219
1,1493684,-6.997983932495117,35.06396484375,-5.525550842285156,-11.695324897766113
1,1493685,-14.84547233581543,16.048683166503906,15.96601676940918,12.416728019714355
1,1493687,29.331207275390625,-30.057998657226562,-11.110416412353516,33.77190399169922
1,1493690,1.8657270669937134,24.330886840820312,0.33566343784332275,-7.255196571350098
1,1493691,-13.432297706604004,1.334205150604248,21.061491012573242,-6.565707206726074
1,1493692,-6.690845012664795,-36.722747802734375,-39.64461898803711,-7.407225131988525
1,1493695,12.706794738769531,13.795161247253418,-1.2533621788024902,-27.974403381347656
1,1493696,29.884376525878906,19.32719612121582,51.796566009521484,26.1436824798584
1,1493699,-24.654634475708008,-32.339263916015625,-0.4021552503108978,1.4835574626922607
1,1493700,-27.453222274780273,-13.487106323242188,-17.93210792541504,-22.406089782714844
1,1493703,11.63138198852539,28.060359954833984,-3.365739107131958,21.253101348876953
1,1493704,9.752930641174316,13.642202377319336,13.085261344909668,30.033973693847656
1,1493707,-2.8386566638946533,-29.387475967407227,-10.127655029296875,-8.649571418762207
1,1493708,-0.41793587803840637,-9.12203311920166,-26.03120994567871,-49.261112213134766
1,1493711,2.4432897567749023,44.88325500488281,6.567010879516602,-3.1226656436920166
1,1493712,-3.8852005004882812,-7.412754058837891,4.0420637130737305,17.99237060546875
1,1493715,7.274022102355957,14.871135711669922,12.454371452331543,-1.740293025970459
1,1493716,19.282451629638672,34.97616958618164,34.15373992919922,-3.9902966022491455
1,1493719,5.22221040725708,-54.52325439453125,8.307899475097656,13.879158973693848
1,1493836,-28.12529754638672,-36.929908752441406,-47.82746505737305,6.398957252502441
1,1493836,-25.38518524169922,4.721496105194092,-28.32698631286621,-9.882384300231934
1,1493836,7.440765857696533,19.710477828979492,22.264263153076172,13.994141578674316
1,1493837,17.62872314453125,22.370946884155273,23.133146286010742,-9.237757682800293
1,1493837,2.989152669906616,-20.5849609375,3.9685778617858887,-11.260842323303223
1,1493837,-20.74851417541504,-17.897554397583008,-23.574167251586914,23.60810661315918
1,1493837,-7.285397052764893,4.753226280212402,-6.256785869598389,-0.5967133045196533
1,1493837,14.807494163513184,4.263583183288574,8.303136825561523,-21.961570739746094
1,1493837,-0.7673360705375671,-10.398509979248047,2.481541156768799,16.43016815185547
1,1493838,-1.798813819885254,1.0790326595306396,-1.9477198123931885,25.003211975097656
1,1493838,17.450422286987305,38.84247589111328,-4.650492191314697,-13.799026489257812
1,1493838,8.953119277954102,12.159126281738281,10.142515182495117,-15.358867645263672
1,1493838,-12.642754554748535,-40.39777755737305,-4.0435872077941895,-18.323726654052734
1,1493838,-5.1308088302612305,-9.806694984436035,-15.892557144165039,-15.021906852722168
1,1493839,-2.503227710723877,28.090736389160156,8.650422096252441,24.030803680419922
1,1493839,-3.83966064453125,-1.924113154411316,11.345344543457031,24.852031707763672
1,1493839,14.896135330200195,-3.4362494945526123,2.5137486457824707,4.553865909576416
1,1493839,8.569887161254883,17.81542205810547,3.6083598136901855,-7.424620628356934
1,1493839,-8.388233184814453,-5.493115425109863,-11.60002326965332,-18.812131881713867
1,1493839,-10.702327728271484,-29.930957794189453,-8.853866577148438,-1.959120750427246
1,1493840,-5.536924839019775,-5.2769646644592285,4.467523574829102,-1.0833282470703125
1,1493840,7.759190082550049,40.86344909667969,5.318072319030762,-17.693063735961914
1,1493840,5.62234354019165,1.1134215593338013,0.9784260988235474,8.51606559753418
1,1493840,1.4220973253250122,-34.118247985839844,-0.980373203754425,10.857500076293945
1,1493840,5.50772762298584,18.719221115112305,23.511350631713867,-1.5386189222335815
1,1493840,3.0142974853515625,14.88300609588623,2.073194980621338,18.23408317565918
1,1493841,-7.327892780303955,-7.990720272064209,-27.638898849487305,13.418007850646973
1,1493841,-6.161733627319336,-2.4517593383789062,12.320269584655762,5.086491107940674
1,1493841,13.944427490234375,-18.12746238708496,15.441841125488281,-4.5041351318359375
1,1493841,5.3913493156433105,-1.9984300136566162,-16.744766235351562,-26.042078018188477
1,1493841,-16.9529972076416,16.074758529663086,-18.121503829956055,-1.9109878540039062
1,1493841,-7.431290626525879,-1.9744724035263062,-2.762725353240967,19.42144775390625
1,1493842,10.741179466247559,-0.8143211007118225,5.042982578277588,-2.763489246368408
1,1493842,-10.359543800354004,-9.608195304870605,16.23663330078125,-4.905790328979492
1,1493842,-8.469073295593262,-7.0437469482421875,16.151533126831055,-12.384895324707031
1,1493842,7.4524102210998535,12.730894088745117,-30.55289649963379,-27.17138671875
1,1493842,-6.95442008972168,-0.7089341878890991,-10.342216491699219,19.73185157775879
1,1493842,-7.179287910461426,-10.078771591186523,27.249202728271484,32.34437561035156
1,1493843,5.1340436935424805,13.708685874938965,-21.456083297729492,-29.802289962768555
1,1493843,24.57603645324707,7.560504913330078,-14.882360458374023,-8.270034790039062
1,1493843,-10.248263359069824,-15.586853981018066,27.840898513793945,29.014360427856445
1,1493843,-24.46019744873047,14.259939193725586,12.374626159667969,-2.7075226306915283
1,1493843,36.93294906616211,8.848615646362305,-9.680900573730469,-10.224617958068848
1,1493843,18.462282180786133,-11.419107437133789,-13.091238975524902,-15.272769927978516
1,1493844,-38.41218566894531,-8.416048049926758,-7.745997905731201,-6.799533367156982
1,1493844,-5.441544532775879,-22.37289047241211,8.666630744934082,29.3144588470459
1,1493844,19.543581008911133,8.190512657165527,6.969034671783447,-1.6228046417236328
1,1493844,-4.446304798126221,21.15325164794922,0.14392176270484924,-36.47975158691406
1,1493844,-7.150996208190918,-9.3045015335083,3.3595964908599854,-6.569250106811523
1,1493844,-11.86707592010498,-11.67878246307373,-1.2297531366348267,13.395045280456543
1,1493845,12.932517051696777,13.470020294189453,4.441769123077393,-1.2467011213302612
1,1493845,33.05451583862305,13.51533317565918,4.501465797424316,13.30448055267334
1,1493845,-12.02245807647705,-0.9605985879898071,8.791913986206055,23.9600887298584
1,1493845,-7.060734748840332,3.371525287628174,9.027246475219727,-19.98832893371582
1,1493845,19.515338897705078,-21.829315185546875,-13.505328178405762,4.767430305480957
1,1493846,-9.355565071105957,12.293782234191895,-15.133035659790039,18.310861587524414
1,1493846,-17.700515747070312,16.77374267578125,8.156013488769531,-21.03749656677246
1,1493846,6.469882488250732,-34.662322998046875,3.5144903659820557,25.44296646118164
1,1493846,-1.1542162895202637,16.32442283630371,-16.903011322021484,18.051925659179688
1,1493847,-13.9855318069458,19.13421630859375,1.5086069107055664,-45.99382781982422
1,1493847,-2.6495232582092285,-21.79454231262207,5.93480920791626,-8.103528022766113
1,1493848,2.5442800521850586,-0.9519726037979126,-19.35502815246582,26.76520347595215
1,1493848,-2.497966766357422,9.434297561645508,0.5532159209251404,15.24168872833252
1,1493848,-1.0743391513824463,11.825732231140137,33.12679672241211,-1.8181157112121582
1,1493849,0.5300970673561096,-15.095836639404297,-14.379334449768066,-27.54728889465332
1,1493851,13.81963062286377,-14.183422088623047,-22.698657989501953,-29.876264572143555
1,1493853,27.784557342529297,23.523704528808594,44.92039108276367,61.293701171875
1,1493855,-23.327333450317383,-21.644996643066406,-32.4442138671875,65.62872314453125
1,1493857,-17.04305076599121,-17.73078727722168,-40.81665802001953,-98.02411651611328
1,1493859,18.03111457824707,11.9945707321167,40.32146453857422,-66.86747741699219
1,1493861,-3.876527786254883,0.8224412202835083,14.521039962768555,56.276309967041016
1,1493863,4.619384288787842,15.659692764282227,18.039569854736328,31.86369514465332
1,1493865,-11.01396656036377,-7.3541579246521,1.0404174327850342,3.9261560440063477
1,1493867,-4.960034370422363,-1.7505040168762207,-8.185675621032715,-2.03548264503479
1,1493869,18.719131469726562,15.660569190979004,-2.4017281532287598,-3.806591272354126
1,1493871,0.548337459564209,6.062467575073242,8.18554401397705,-7.10866117477417
1,1493874,-22.28742027282715,-11.34731674194336,26.17345428466797,-23.12364959716797
1,1493875,-3.421983480453491,-4.500488758087158,-30.903703689575195,-10.857138633728027
1,1493876,1.2624272108078003,-0.9138533473014832,-64.8071060180664,4.420724391937256
1,1493879,-8.513879776000977,-42.68128204345703,-51.632789611816406,-3.001622200012207
1,1493880,41.402008056640625,28.61374855041504,14.973052024841309,28.383525848388672
1,1493883,11.778764724731445,52.7569465637207,102.10355377197266,20.761524200439453
1,1493884,-42.67739486694336,-20.380281448364258,30.745744705200195,-42.752601623535156
1,1493887,-4.439120769500732,-4.7845001220703125,-27.659637451171875,8.257357597351074
1,1493888,31.667823791503906,6.055037975311279,22.81468963623047,39.84514236450195
1,1494017,-10.58359432220459,-21.229324340820312,-55.559574127197266,-36.19560623168945
1,1494018,-47.56671142578125,-11.98333740234375,-79.63555145263672,-29.471275329589844
1,1494018,12.93883991241455,19.601537704467773,60.83012008666992,24.147157669067383
1,1494018,29.112184524536133,0.13022395968437195,50.8072395324707,21.38298988342285
1,1494018,-16.25537872314453,3.189009189605713,-20.2108154296875,8.68028450012207
1,1494018,5.614490509033203,-3.0164172649383545,-4.26116943359375,7.95059871673584
