Aktueller Finger,timestamp_ms,sensor_0,sensor_1,sensor_2,sensor_3
0,396763,6.3527960777282715,-14.561206817626953,-4.241708278656006,9.594038963317871
0,396764,5.307605743408203,12.652231216430664,3.8832924365997314,0.7950494885444641
0,396765,9.606266975402832,12.935566902160645,-9.256891250610352,18.520673751831055
0,396766,-7.155335426330566,-23.154342651367188,1.656696081161499,-25.56669044494629
0,396769,-23.62029457092285,10.705231666564941,11.88848876953125,-11.153566360473633
0,396770,13.434144020080566,26.937013626098633,-12.663114547729492,20.32485008239746
0,396773,21.86521339416504,-28.021963119506836,-3.9413342475891113,-15.234066009521484
0,396774,-9.316119194030762,-6.664416790008545,8.870603561401367,-5.4425740242004395
0,396777,-3.911437749862671,22.361963272094727,-6.867748737335205,11.272712707519531
0,396778,-2.946946859359741,-7.2329487800598145,3.9110238552093506,2.8684568405151367
0,396781,14.355082511901855,8.386039733886719,9.971556663513184,14.48237419128418
0,396782,18.205053329467773,10.661768913269043,-16.34435272216797,-4.51239013671875
0,396785,-28.73064422607422,-9.031438827514648,4.591798305511475,-15.123303413391113
0,396786,-6.6065592765808105,-1.4684978723526,26.018205642700195,6.708528995513916
0,396789,24.193424224853516,4.123624324798584,-6.904189109802246,-0.21095791459083557
0,396790,-7.649602890014648,-14.838544845581055,-20.714881896972656,12.969560623168945
0,396793,-17.620582580566406,-20.204526901245117,16.51725196838379,-2.8935201168060303
0,396794,-4.543622016906738,3.7290966510772705,1.2530192136764526,-22.372392654418945
0,396797,-4.447645664215088,35.95966720581055,-6.711792945861816,19.471649169921875
0,396798,7.790162086486816,15.880520820617676,20.743743896484375,1.16081964969635
0,396801,12.563456535339355,-31.156444549560547,-9.3219633102417,-8.339417457580566
0,396802,-15.4867582321167,-16.60713768005371,-28.012107849121094,-7.331015110015869
0,396805,-7.7008137702941895,-9.126574516296387,-7.690157890319824,-4.3023576736450195
0,396806,19.036439895629883,-0.19144569337368011,21.64653205871582,26.75743865966797
0,396809,3.544865369796753,45.702293395996094,13.360566139221191,2.66929292678833
0,396810,-11.257697105407715,4.548453330993652,-20.654335021972656,-22.30350112915039
0,396813,20.286094665527344,-32.537269592285156,4.719010829925537,-14.966596603393555
0,396814,-0.994044840335846,7.005548477172852,6.267971515655518,15.995698928833008
0,396817,-26.176881790161133,1.613386869430542,-32.782928466796875,9.552267074584961
0,396818,13.260482788085938,-10.899761199951172,6.0470733642578125,-18.75766944885254
0,396821,19.154115676879883,6.295524597167969,41.43642807006836,10.098912239074707
0,396822,-0.09928424656391144,13.77380084991455,6.784797668457031,19.956375122070312
0,396825,-9.987202644348145,8.112106323242188,-16.6121826171875,-3.367281913757324
0,396826,-16.900634765625,-29.535625457763672,-13.00223445892334,-11.039133071899414
0,396829,-14.655718803405762,-7.023963928222656,-2.5062613487243652,-21.642322540283203
0,396830,2.148407459259033,31.660293579101562,16.112525939941406,6.384178638458252
0,396833,23.238149642944336,-25.123416900634766,-7.213560104370117,23.51397705078125
0,396834,25.98306655883789,3.7236170768737793,-17.572452545166016,-15.76158332824707
0,396837,-22.012014389038086,28.389406204223633,6.955791473388672,-13.712586402893066
0,396838,-14.694375991821289,-25.09145736694336,13.49530029296875,23.704450607299805
0,396841,29.304325103759766,-5.0137529373168945,7.407902717590332,10.87114429473877
0,396842,-25.960681915283203,13.1146240234375,-14.937616348266602,-16.58108139038086
0,396845,-21.898027420043945,0.47564518451690674,-11.367313385009766,-5.483582019805908
0,396846,32.60445022583008,-14.069819450378418,5.516961097717285,-4.9424662590026855
0,396849,-5.8905348777771,-18.57912254333496,6.244289875030518,0.7617925405502319
0,396850,-18.462766647338867,28.6934814453125,2.5465707778930664,26.209928512573242
0,396853,1.6064635515213013,15.273923873901367,-14.720868110656738,10.60191535949707
0,396854,14.916021347045898,-42.333744049072266,1.2601345777511597,-25.121232986450195
0,396857,20.438373565673828,25.8509464263916,43.50432205200195,-18.53821563720703
0,396858,-8.026844024658203,47.190032958984375,2.799423933029175,-1.8075026273727417
0,396861,-17.368026733398438,-36.87864303588867,-66.99470520019531,33.02289962768555
0,396862,0.9641434550285339,-12.581658363342285,-14.986855506896973,16.6280460357666
0,396865,14.112693786621094,18.88433837890625,55.72344207763672,-41.899139404296875
0,396866,2.8012261390686035,-13.432836532592773,10.260186195373535,-12.038031578063965
0,396869,-19.599088668823242,-29.73160743713379,-18.342632293701172,24.10638999938965
0,396870,-10.286924362182617,4.2838544845581055,-4.8190436363220215,6.936545372009277
0,396873,30.517942428588867,37.76563262939453,2.347428798675537,-9.368805885314941
0,396874,5.159816265106201,-18.676998138427734,12.982780456542969,7.769979000091553
0,396877,-24.01997184753418,-17.002103805541992,-2.980193614959717,4.479072570800781
0,396878,-3.457949638366699,20.89034652709961,-20.33478355407715,-11.532733917236328
0,396881,0.6895112991333008,-6.019127368927002,4.704116344451904,-10.10935115814209
0,396882,27.557741165161133,2.794462203979492,19.850570678710938,15.695897102355957
0,396885,5.358270168304443,2.7323386669158936,-24.741573333740234,8.082770347595215
0,396886,-20.43350601196289,-16.21044158935547,1.065829873085022,-16.169532775878906
0,396889,-9.474936485290527,-4.079563617706299,15.441097259521484,5.0932111740112305
0,396890,1.705980658531189,23.969423294067383,-11.442834854125977,-4.879239082336426
0,396893,16.57831573486328,27.14621353149414,33.35762405395508,-10.416830062866211
0,396894,-18.007171630859375,-1.9890599250793457,1.30288565158844,12.882834434509277
0,396897,-3.411775588989258,-28.92454719543457,-45.714874267578125,11.03569507598877
0,396898,3.8130390644073486,-11.53337574005127,-9.781134605407715,-16.697324752807617
0,396901,-3.934039354324341,32.05284118652344,40.297813415527344,-9.16747760772705
0,396902,20.593366622924805,-6.474852561950684,20.035058975219727,11.79439640045166
0,396905,-1.2328664064407349,-11.913002967834473,-25.38800048828125,9.573577880859375
0,396906,-16.106731414794922,18.801513671875,-2.3516035079956055,-9.519465446472168
0,396909,-6.098123550415039,-13.373835563659668,-10.360107421875,7.7237019538879395
0,396910,9.366007804870605,-21.003808975219727,-6.595501899719238,25.075237274169922
0,396913,9.702278137207031,6.069384574890137,14.350347518920898,-18.594947814941406
0,396914,-5.499873638153076,18.379444122314453,0.2406446933746338,-28.762819290161133
0,396917,-7.436690807342529,-13.402970314025879,-5.96611213684082,10.63732624053955
0,396918,8.519879341125488,-31.16518783569336,-2.5440173149108887,3.554694175720215
0,396921,-0.025442078709602356,26.939533233642578,15.484371185302734,-22.00286865234375
0,396922,-6.746294021606445,29.552457809448242,-0.6396389603614807,21.07877540588379
0,396925,13.682317733764648,-26.200214385986328,-2.7973287105560303,29.421920776367188
0,396926,-4.363436222076416,-14.346436500549316,-4.012415885925293,-14.183700561523438
0,396929,-8.094205856323242,15.115842819213867,-21.909687042236328,-22.909055709838867
0,396930,14.437129974365234,11.250712394714355,24.30225944519043,3.833669900894165
0,396933,6.514081954956055,-13.458505630493164,7.7024078369140625,-0.547362744808197
0,397100,8.211332321166992,2.2583823204040527,-26.662765502929688,-9.977066040039062
0,397103,-16.775815963745117,-1.1881481409072876,14.672567367553711,43.6939582824707
0,397104,-38.10133361816406,-12.601407051086426,17.503000259399414,18.61923599243164
0,397107,-4.248111248016357,13.488123893737793,-2.7639567852020264,-26.163497924804688
0,397108,22.53327751159668,-18.29349708557129,-6.441084861755371,8.007823944091797
0,397111,25.742002487182617,14.335503578186035,-16.226680755615234,-42.346622467041016
0,397112,-6.276165008544922,30.492053985595703,4.913003444671631,-26.47330093383789
0,397115,-5.753861427307129,-25.358829498291016,10.921403884887695,31.9541015625
0,397117,6.388152122497559,16.620040893554688,-6.665109157562256,-7.218417644500732
0,397120,-17.278608322143555,-0.25152093172073364,-3.282231569290161,7.959224700927734
0,397120,11.721563339233398,-12.286908149719238,-14.882631301879883,21.812068939208984
0,397123,3.3370203971862793,8.259905815124512,23.455646514892578,5.849488735198975
0,397124,-21.118478775024414,-23.772005081176758,9.502511978149414,-14.983535766601562
0,397127,28.7559814453125,10.922863006591797,-31.515321731567383,-23.719280242919922
0,397128,9.369073867797852,15.744812965393066,26.976232528686523,23.40219497680664
0,397131,-26.37542152404785,-6.280570983886719,20.11716079711914,28.11225128173828
0,397132,4.932661056518555,1.3409042358398438,-20.270755767822266,-21.721649169921875
0,397135,-14.70671272277832,-13.599573135375977,-17.777624130249023,-21.646339416503906
0,397136,-6.220866680145264,-4.089031219482422,-12.50395679473877,3.2418766021728516
0,397139,25.96377944946289,14.801397323608398,21.066181182861328,12.864068031311035
0,397140,-9.091316223144531,-5.441315650939941,9.658344268798828,21.96894073486328
0,397143,2.308138847351074,-16.635656356811523,-21.335203170776367,23.668153762817383
0,397144,15.20705509185791,8.621430397033691,6.427436351776123,-26.81502914428711
0,397147,-23.104835510253906,-3.779512405395508,-5.624021530151367,-71.7496566772461
0,397148,-0.34878626465797424,4.087019443511963,3.113856792449951,12.586657524108887
0,397151,12.819414138793945,10.827817916870117,20.164810180664062,57.16782760620117
0,397152,-18.8516845703125,-19.01390266418457,-14.804401397705078,-26.1141357421875
0,397155,20.130931854248047,29.09869956970215,-2.5490922927856445,-14.09523868560791
0,397156,5.3827223777771,3.684828281402588,1.4620329141616821,27.32975196838379
0,397159,-27.452960968017578,-39.80758285522461,4.638280391693115,-26.514902114868164
0,397160,21.143451690673828,15.200637817382812,9.980942726135254,4.962957859039307
0,397163,13.241334915161133,46.41840744018555,-1.9987889528274536,48.76356887817383
0,397164,-9.711801528930664,-7.15285062789917,-0.19614344835281372,-9.626874923706055
0,397167,-7.691784858703613,-26.373153686523438,-24.433094024658203,-17.197147369384766
0,397168,-22.340625762939453,16.88737678527832,1.4539129734039307,-1.9311810731887817
0,397171,11.361985206604004,-22.302953720092773,29.467634201049805,-9.17798137664795
0,397172,30.634647369384766,-22.96710205078125,-16.578996658325195,27.187458038330078
0,397175,-35.16705322265625,8.45394229888916,-12.371774673461914,-13.771123886108398
0,397176,-11.544610023498535,2.4936511516571045,15.125266075134277,-39.762481689453125
0,397179,48.399078369140625,21.376733779907227,4.240950584411621,46.999298095703125
0,397180,-12.367863655090332,5.137736797332764,1.123101830482483,3.967574119567871
0,397183,-23.40286636352539,-26.32847785949707,-6.243892669677734,-21.151338577270508
0,397184,5.7805633544921875,-9.08862590789795,-19.803916931152344,22.794479370117188
0,397187,-5.51387357711792,0.8265365362167358,5.106987953186035,-46.019432067871094
0,397188,13.275646209716797,0.5837743878364563,20.427318572998047,-16.44106101989746
0,397191,19.825674057006836,21.897794723510742,-4.411335468292236,39.490291595458984
0,397192,-19.868606567382812,18.596435546875,-8.339547157287598,4.92465353012085
0,397195,-13.368366241455078,-0.057071857154369354,6.89744758605957,16.001548767089844
0,397196,25.35660171508789,-28.887311935424805,4.748607635498047,-14.823066711425781
0,397199,-2.8628623485565186,-6.844930648803711,-13.840222358703613,-29.818193435668945
0,397200,-11.543915748596191,23.82365608215332,3.343946695327759,15.271349906921387
0,397203,9.432722091674805,-9.684393882751465,21.474462509155273,8.262359619140625
0,397204,-3.6342828273773193,11.747759819030762,-5.144458293914795,-17.177265167236328
0,397207,5.252286911010742,-1.0732958316802979,-25.697187423706055,24.37503433227539
0,397208,8.338481903076172,-31.512550354003906,-11.388461112976074,29.68500518798828
0,397211,-21.597583770751953,29.709218978881836,23.23838996887207,-27.425128936767578
0,397212,-9.813512802124023,19.981407165527344,2.690946340560913,-7.320638179779053
0,397215,20.220378875732422,-33.43124008178711,5.256862163543701,-0.6418013572692871
0,397216,-7.7247796058654785,12.286384582519531,23.70240020751953,-9.212054252624512
0,397219,-18.98178482055664,-7.73431396484375,-41.00191116333008,9.823200225830078
0,397220,38.616912841796875,-18.515155792236328,-7.335249900817871,16.035099029541016
0,397223,18.783361434936523,50.47876739501953,30.63259506225586,-7.586248874664307
0,397224,-49.2857666015625,-6.634062767028809,-3.190049648284912,-24.457714080810547
0,397227,-24.427934646606445,-54.73524475097656,-1.5361559391021729,6.7369465827941895
0,397228,33.34403610229492,10.043389320373535,-8.894336700439453,8.172625541687012
0,397231,31.454814910888672,50.77055358886719,5.85222053527832,-11.033584594726562
0,397232,-11.941757202148438,-19.42453956604004,-14.59049129486084,18.148536682128906
0,397235,-15.67644214630127,-49.74062728881836,-21.645544052124023,4.86548376083374
0,397236,-6.534364223480225,27.358810424804688,22.11916732788086,-41.74606704711914
0,397239,-3.6845028400421143,25.309789657592773,21.558940887451172,28.06662368774414
0,397240,-0.04145561158657074,-34.269283294677734,-8.832908630371094,28.17502784729004
0,397243,-1.8661551475524902,18.12489891052246,-13.799952507019043,-22.85801887512207
0,397244,15.664915084838867,19.798152923583984,3.7516889572143555,14.773635864257812
0,397247,-3.957592010498047,-38.072200775146484,6.974145889282227,-15.370092391967773
0,397248,-9.231943130493164,21.705772399902344,23.368759155273438,-31.27269744873047
0,397251,13.1048002243042,12.959895133972168,0.5183907151222229,27.058103561401367
0,397252,1.2733726501464844,-28.888832092285156,-17.517351150512695,21.996068954467773
0,397255,1.7588887214660645,-1.9754669666290283,1.4651904106140137,-22.98555564880371
0,397256,-6.889186859130859,11.417119026184082,-11.13744068145752,-13.662482261657715
0,397259,-8.678276062011719,13.722527503967285,-0.2458501160144806,7.268585681915283
0,397260,14.608729362487793,-11.993609428405762,3.302490711212158,7.249832630157471
0,397263,-5.225839138031006,-17.9505672454834,-13.011600494384766,8.066840171813965
0,397264,-0.5019940733909607,31.803319931030273,19.567750930786133,2.443812131881714
0,397267,13.909601211547852,23.694860458374023,8.38542366027832,-4.439307689666748
0,397268,-8.777256965637207,-35.993309020996094,-21.97985076904297,-9.224841117858887
0,397271,-7.102536201477051,-13.49966049194336,5.488674640655518,16.429931640625
0,397272,0.5390374064445496,12.826493263244629,1.4103777408599854,-6.787047386169434
0,397275,-3.8161909580230713,3.0845742225646973,5.985683917999268,-17.932861328125
0,397276,-3.763559103012085,13.2332181930542,-13.49955940246582,27.8808536529541
0,397279,24.037527084350586,6.354728698730469,-3.147488832473755,-19.261777877807617
0,397281,-3.19541597366333,-6.591985702514648,30.091426849365234,-17.812164306640625
0,397283,-17.049524307250977,-25.021495819091797,-27.452857971191406,38.404293060302734
0,397285,1.863726258277893,-14.333209991455078,-22.69263458251953,4.597073554992676
0,397287,-21.92946434020996,19.46238136291504,18.711637496948242,-27.970611572265625
0,397289,8.801517486572266,13.324660301208496,19.927213668823242,-0.10972968488931656
0,397291,15.123115539550781,13.238540649414062,9.676527976989746,13.989222526550293
0,397293,-6.993709087371826,-8.97854232788086,-29.13276481628418,-28.99468231201172
0,397295,17.968093872070312,-10.797189712524414,-12.78604793548584,-13.758414268493652
0,397297,7.341782569885254,0.9935062527656555,31.551162719726562,43.556854248046875
0,397299,-15.778221130371094,-26.695537567138672,10.416772842407227,5.933265686035156
0,397301,-8.282994270324707,21.386816024780273,9.525266647338867,1.9058921337127686
0,397303,1.0972858667373657,29.191497802734375,-2.914905548095703,5.512146949768066
0,397305,16.95641326904297,-21.06709098815918,-15.070029258728027,-33.000465393066406
0,397306,5.966469764709473,-17.820634841918945,-4.263176441192627,-11.753578186035156
0,397309,-15.567452430725098,-5.017602920532227,-19.57474708557129,14.758065223693848
0,397310,-5.395326614379883,3.2034523487091064,4.482517719268799,20.871442794799805
0,397313,-3.361611843109131,-5.7453718185424805,8.369667053222656,-1.9798616170883179
0,397314,11.206259727478027,18.360095977783203,10.548474311828613,11.187548637390137
0,397317,9.398162841796875,13.34921646118164,0.8914087414741516,5.0429911613464355
0,397318,-29.720672607421875,-30.534448623657227,-29.004974365234375,-30.374467849731445
0,397322,3.129377841949463,16.29169273376465,0.7092641592025757,-3.3444314002990723
0,397323,26.44204330444336,29.546035766601562,13.299495697021484,-2.2502245903015137
0,397325,-13.03605842590332,-33.20492935180664,3.134455919265747,-18.127124786376953
0,397327,-0.18423941731452942,0.09323558211326599,-0.907910168170929,11.803227424621582
0,397329,6.91262674331665,52.501747131347656,4.867696762084961,29.88036346435547
0,397331,-19.554481506347656,-32.806278228759766,1.9634394645690918,2.6030571460723877
0,397333,5.720285415649414,-50.127899169921875,2.725947380065918,-10.069911003112793
0,397335,25.78662109375,58.72463607788086,5.583062171936035,-20.6322078704834
0,397337,-0.6559642553329468,22.645557403564453,-14.598174095153809,9.330656051635742
0,397339,-24.951435089111328,-29.313486099243164,-3.3617162704467773,25.416988372802734
0,397341,-13.493345260620117,-21.55246353149414,1.0269925594329834,-5.466419219970703
0,397343,30.13469886779785,-16.48242950439453,10.126486778259277,18.900442123413086
0,397345,12.7694091796875,43.63320541381836,14.643044471740723,-30.1983699798584
0,397347,-28.101720809936523,-6.636202812194824,-25.123289108276367,-42.556053161621094
0,397349,0.29993999004364014,-55.22978210449219,-6.600585460662842,44.617366790771484
0,397351,12.778602600097656,30.045059204101562,16.102041244506836,15.62989616394043
0,397353,-9.898613929748535,27.237560272216797,0.172263503074646,-26.05589485168457
0,397355,-8.958108901977539,-26.09539031982422,-6.007004737854004,8.0402250289917
0,397357,2.2269203662872314,16.477418899536133,0.43445780873298645,3.482156753540039
0,397359,3.240290403366089,-2.894176483154297,14.905206680297852,-42.348331451416016
0,397361,14.522469520568848,-20.07379150390625,12.0364408493042,25.992122650146484
0,397363,-1.0788822174072266,23.521818161010742,-27.788372039794922,48.899993896484375
0,397365,-14.000307083129883,-12.309003829956055,-28.66465187072754,-56.22964096069336
0,397367,5.183604717254639,-20.12252426147461,34.69502639770508,-10.741294860839844
0,397369,7.671056747436523,27.39366340637207,8.449162483215332,48.132049560546875
0,397371,-3.1803085803985596,24.113901138305664,-13.363730430603027,-7.393685817718506
0,397373,-18.80656623840332,-32.92264175415039,4.551993370056152,-20.51225471496582
0,397375,0.2074885219335556,-19.86549186706543,-22.012664794921875,-6.133333683013916
0,397377,24.25556755065918,35.010475158691406,6.83866548538208,-3.2879583835601807
0,397379,13.151750564575195,-1.2410269975662231,18.924768447875977,13.110224723815918
0,397381,-27.806793212890625,-27.11119842529297,-10.01727294921875,13.797809600830078
0,397383,-16.17832374572754,21.03273582458496,12.4606351852417,-2.1213083267211914
0,397385,15.469877243041992,20.372228622436523,0.39851677417755127,-8.70865249633789
0,397387,1.090689778327942,-20.334266662597656,-19.933055877685547,5.562134265899658
0,397389,17.502792358398438,12.635222434997559,20.57554817199707,8.288522720336914
0,397391,1.9702566862106323,0.9565671682357788,-1.1783920526504517,-16.16904640197754
0,397393,-12.608190536499023,-19.718128204345703,-22.457752227783203,-9.073371887207031
0,397395,6.35575532913208,25.19921112060547,21.66708755493164,20.595703125
0,397397,-4.105523586273193,-7.975919246673584,9.337034225463867,-8.151871681213379
0,397399,-5.316360950469971,-22.250225067138672,-18.174331665039062,-32.70423126220703
0,397401,-14.311296463012695,-10.276236534118652,-9.07972240447998,24.422704696655273
0,397403,2.697188138961792,-4.190127849578857,-2.950195550918579,13.17282485961914
0,397405,19.829429626464844,27.82060432434082,-2.5517916679382324,-18.069704055786133
0,397407,-9.511384010314941,10.0032377243042,9.09652042388916,18.65279769897461
0,397409,3.0361807346343994,-22.15558433532715,4.295038223266602,9.750205039978027
0,397411,22.931734085083008,-17.284528732299805,-17.11639404296875,-6.60540246963501
0,397413,-12.297721862792969,21.306169509887695,9.344366073608398,2.731462001800537
0,397415,-15.47119140625,27.427330017089844,28.337974548339844,11.89960765838623
0,397417,11.276070594787598,-2.9571962356567383,-13.003485679626465,-2.1982738971710205
0,397419,-6.246313095092773,-16.343305587768555,-19.407215118408203,-20.63600730895996
0,397421,-2.0792853832244873,-9.472055435180664,17.556486129760742,-8.828429222106934
0,397423,2.273014545440674,25.987606048583984,13.371012687683105,-6.606386184692383
0,397425,-15.642173767089844,-6.631166458129883,-11.685166358947754,1.8951053619384766
0,397427,11.026756286621094,-44.694034576416016,-7.809110641479492,14.471360206604004
0,397429,6.281713485717773,24.434123992919922,-2.06327486038208,-3.437188148498535
0,397431,-1.76918363571167,36.53304672241211,-7.080931663513184,-7.868837356567383
0,397433,10.13933277130127,-22.315370559692383,14.655473709106445,11.590131759643555
0,397435,-12.883447647094727,-23.257537841796875,18.647777557373047,9.330425262451172
0,397437,-15.510997772216797,3.741546154022217,-12.012564659118652,-12.913261413574219
0,397439,1.8996741771697998,15.83112621307373,-28.646451950073242,13.174092292785645
0,397441,21.724435806274414,-5.5622944831848145,7.989011764526367,6.65028190612793
0,397443,14.865036964416504,-5.182823181152344,37.38750457763672,-22.67525863647461
0,397445,-0.13993464410305023,45.0192756652832,-21.090978622436523,19.323394775390625
0,397447,-3.6315624713897705,-1.6217650175094604,-22.352890014648438,-18.324907302856445
0,397449,-37.073368072509766,-61.23731994628906,16.475685119628906,-32.57147979736328
0,397451,-10.2421236038208,0.13852521777153015,5.968650817871094,27.114458084106445
0,397453,30.849546432495117,37.43413162231445,4.2437591552734375,37.602725982666016
0,397455,-6.046113014221191,-7.396913051605225,-10.738452911376953,18.36225700378418
0,397457,-1.4676707983016968,-13.682723045349121,-15.482165336608887,-50.83222961425781
0,397459,24.812732696533203,27.003068923950195,18.212615966796875,-41.292236328125
0,397461,-0.6201761960983276,2.4345812797546387,1.6134511232376099,44.39776611328125
0,397463,-22.54966926574707,-21.772491455078125,-28.935993194580078,28.178003311157227
0,397465,-0.2021700143814087,-5.792177200317383,15.109556198120117,-16.817401885986328
0,397467,8.085205078125,-10.579915046691895,18.337888717651367,-16.38003158569336
0,397469,5.0829315185546875,11.486164093017578,7.910088539123535,-13.551543235778809
0,397471,2.0374512672424316,20.095458984375,13.4840726852417,3.082634925842285
0,397473,-17.596651077270508,-13.977774620056152,-39.565364837646484,6.520090579986572
0,397475,3.9841420650482178,-1.3230481147766113,-27.123464584350586,-4.14707612991333
0,397477,11.843667030334473,6.725649356842041,46.88291931152344,-1.8604249954223633
0,397479,-4.19131326675415,-6.582357406616211,12.611982345581055,8.431809425354004
0,397481,-3.007636785507202,-4.185618877410889,-36.358638763427734,11.952325820922852
0,397483,-0.43982821702957153,-10.362443923950195,-0.6987778544425964,20.611207962036133
0,397485,-2.7224628925323486,13.110191345214844,27.975210189819336,-3.5174427032470703
0,397487,-3.1185712814331055,6.588608264923096,-0.7305704355239868,-32.53398132324219
0,397489,16.184825897216797,-5.15425443649292,-27.949790954589844,4.84787654876709
0,397491,-12.441011428833008,12.575565338134766,10.439186096191406,16.57357406616211
0,397493,-13.931198120117188,-1.8174206018447876,13.60018539428711,4.846152305603027
0,397495,30.70296859741211,-14.823740005493164,-19.41888999938965,-3.7645437717437744
0,397497,-9.035932540893555,-10.4713773727417,-6.429178714752197,1.660079002380371
0,397499,-18.123659133911133,1.9259339570999146,16.33530044555664,5.461147308349609
0,397501,13.40257453918457,13.147218704223633,14.757369041442871,-8.087247848510742
0,397503,-0.6750432848930359,10.732805252075195,-1.8092278242111206,-9.047919273376465
0,397505,-5.50338888168335,-8.609106063842773,-7.0296406745910645,-23.59853744506836
0,397507,3.8922817707061768,3.7925851345062256,0.17019568383693695,0.009026283398270607
0,397508,15.504400253295898,19.773706436157227,-3.6554176807403564,44.95294952392578
0,397511,7.061936378479004,-14.962644577026367,2.030802011489868,1.3601264953613281
0,397512,-22.125057220458984,-16.360347747802734,0.14312081038951874,-40.90217208862305
0,397515,-5.309406757354736,5.376282215118408,-20.47386360168457,-14.35496711730957
0,397516,15.692657470703125,5.245021820068359,-7.1178693771362305,5.8823771476745605
0,397519,-20.72809600830078,-21.357324600219727,11.918781280517578,37.134063720703125
0,397520,-4.404576301574707,1.0391886234283447,18.102277755737305,20.72927474975586
0,397523,16.48274040222168,26.18465232849121,-1.9643054008483887,-27.652629852294922
0,397524,-0.587101936340332,-8.101569175720215,7.648388862609863,-2.183610677719116
0,397527,1.1960314512252808,-8.556589126586914,8.972458839416504,-12.246252059936523
0,397528,-4.385288715362549,-0.7769024968147278,-33.96723175048828,-12.4676513671875
0,397531,10.493195533752441,15.644617080688477,13.954254150390625,31.13149642944336
0,397532,-9.141056060791016,-6.737655162811279,19.502517700195312,7.016340255737305
0,397535,-2.7852165699005127,-7.927292823791504,-26.110219955444336,-18.82674217224121
0,397536,28.629751205444336,10.092820167541504,11.092174530029297,-28.18073081970215
0,397540,-12.391803741455078,-4.511441230773926,15.473464012145996,20.543317794799805
0,397540,-20.678247451782227,4.432966232299805,-29.436643600463867,37.351009368896484
0,397543,-1.6418756246566772,12.99476432800293,-6.454692840576172,-28.835121154785156
0,397544,1.1196476221084595,12.41651725769043,16.299745559692383,12.134278297424316
0,397547,5.465096950531006,-37.02757263183594,-17.46607208251953,2.2268545627593994
0,397548,3.1396379470825195,-38.56373596191406,-3.924492597579956,-36.23616027832031
0,397551,3.967512845993042,37.06356430053711,31.051189422607422,27.88408851623535
0,397552,9.779080390930176,17.611417770385742,5.838634967803955,17.814754486083984
0,397555,-7.211810111999512,-17.208621978759766,-32.2768440246582,-7.103719234466553
0,397556,-29.85759162902832,24.440717697143555,20.784833908081055,-7.896951675415039
0,397559,1.3248518705368042,-6.939035415649414,27.312116622924805,-17.52147102355957
0,397560,22.928775787353516,-38.465328216552734,-42.399757385253906,-10.665897369384766
0,397563,0.5484246015548706,22.684677124023438,-7.875937461853027,29.200843811035156
0,397564,3.299732208251953,40.58966064453125,20.460351943969727,21.720434188842773
0,397567,3.346639633178711,-5.212852954864502,1.038381576538086,-35.09457015991211
0,397568,-11.66061782836914,-32.15726852416992,3.816547155380249,-10.044583320617676
0,397571,-6.201151371002197,-20.898740768432617,-10.344626426696777,8.020339012145996
0,397572,-1.4139454364776611,-5.075924396514893,-11.558123588562012,0.6915880441665649
0,397575,24.72849464416504,38.62160110473633,15.609725952148438,20.701496124267578
0,397576,18.173330307006836,41.230533599853516,12.015275955200195,-16.64583396911621
0,397579,-22.017148971557617,-34.11272430419922,-12.923644065856934,-36.31831359863281
0,397580,3.209105968475342,-11.87218189239502,-1.294501781463623,38.34218215942383
0,397583,3.0812439918518066,13.782084465026855,9.245234489440918,23.37295150756836
0,397584,-22.6075382232666,-32.35013961791992,-3.6603081226348877,-27.58082389831543
0,397587,0.2328461855649948,-7.459089279174805,-25.224443435668945,-13.519434928894043
0,397588,-3.5555174350738525,18.311296463012695,-7.475624084472656,7.11430025100708
0,397591,-9.765037536621094,-12.088923454284668,41.36933135986328,23.47951889038086
0,397592,26.5893611907959,-2.841642379760742,7.624166488647461,8.071574211120605
0,397595,-2.7255008220672607,29.227869033813477,-15.846145629882812,-10.924077987670898
0,397596,-31.568180084228516,4.3885955810546875,3.943765163421631,-9.79893970489502
0,397599,16.879446029663086,-31.08283233642578,-16.887596130371094,-16.251773834228516
0,397600,18.504201889038086,-4.142587661743164,-3.4678163528442383,-3.427572727203369
0,397603,8.053376197814941,37.037837982177734,23.5595703125,37.90976333618164
0,397604,6.761336326599121,-3.6553540229797363,-9.067319869995117,-10.472429275512695
0,397607,-20.638996124267578,-12.152914047241211,-21.88524055480957,-34.81001663208008
0,397608,-7.834745407104492,9.634182929992676,10.212586402893066,27.018327713012695
0,397611,2.71061635017395,-18.757593154907227,10.473494529724121,21.873788833618164
0,397612,-3.529109239578247,8.087177276611328,-17.159259796142578,-13.935477256774902
0,397615,16.351268768310547,-1.0622875690460205,-5.586031913757324,-11.288568496704102
0,397616,5.803010940551758,-19.558828353881836,18.35855484008789,-10.448344230651855
0,397619,-8.239545822143555,34.988189697265625,6.261399745941162,9.173763275146484
0,397620,-6.384082794189453,11.00839900970459,7.183379173278809,19.559885025024414
0,397623,-0.9039065837860107,-33.9501838684082,6.2041730880737305,12.502585411071777
0,397624,8.817882537841797,-0.885925829410553,-8.209019660949707,-2.2193078994750977
0,397627,0.6500276923179626,20.60531997680664,-8.487688064575195,-47.004085540771484
0,397628,-2.549433469772339,7.232719898223877,-0.29792124032974243,8.065079689025879
0,397631,-10.872276306152344,-17.87610626220703,11.160781860351562,42.88497543334961
0,397632,-18.900272369384766,-8.923738479614258,-1.1517106294631958,-27.16736602783203
0,397635,-3.553690195083618,14.861767768859863,-19.380449295043945,-20.594287872314453
0,397636,13.300946235656738,-27.90020751953125,-7.636836051940918,8.624120712280273
0,397639,26.25140953063965,-12.4115571975708,11.218955039978027,0.44973209500312805
0,397640,-3.2135396003723145,50.85308074951172,7.161635398864746,19.416522979736328
0,397643,-41.632633209228516,5.826850414276123,-7.164046287536621,6.689533710479736
0,397644,27.850967407226562,-26.73227310180664,-3.6646950244903564,-12.964409828186035
0,397647,34.88762664794922,-13.576541900634766,0.23779912292957306,-7.298050403594971
0,397648,-39.60485076904297,4.756757736206055,6.795681476593018,-22.955331802368164
0,397651,-4.436436653137207,14.14908218383789,2.0816850662231445,-6.61990213394165
0,397652,11.62277603149414,-16.950855255126953,-3.9051144123077393,29.50676727294922
0,397655,20.574464797973633,27.544607162475586,28.77923583984375,14.828093528747559
0,397656,33.92268753051758,44.6677360534668,9.035042762756348,-18.939985275268555
0,397659,-39.13520812988281,-36.82819366455078,-31.45318603515625,4.022719860076904
0,397660,-30.830821990966797,-60.16105270385742,-15.717166900634766,20.822561264038086
0,397663,0.5658584237098694,-5.632771015167236,-1.3360542058944702,-9.762978553771973
0,397664,0.2134527564048767,30.15361213684082,6.664116382598877,-3.0196361541748047
0,397667,23.724435806274414,39.45517349243164,6.1050496101379395,3.573976755142212
0,397668,1.514052391052246,21.167160034179688,12.423791885375977,-4.661594390869141
0,397671,-19.135156631469727,-38.422813415527344,2.3406431674957275,5.191666603088379
0,397672,-3.2432072162628174,-19.91802978515625,-22.864336013793945,-3.175757884979248
0,397675,11.026671409606934,19.13603401184082,6.381324768066406,0.6642616987228394
0,397676,-0.6132277250289917,4.155155181884766,3.2544021606445312,5.026611804962158
0,397679,0.09726855903863907,-23.178579330444336,-22.794160842895508,-5.0294342041015625
0,397680,9.45328426361084,-6.592253684997559,10.589399337768555,-6.107303142547607
0,397683,-6.702635288238525,36.226043701171875,24.623329162597656,-34.11079788208008
0,397684,-22.418066024780273,-2.5994174480438232,-7.366221904754639,-11.557464599609375
0,397687,15.265544891357422,-11.96858024597168,-12.851583480834961,78.6397476196289
0,397688,25.511856079101562,8.923995971679688,22.35826301574707,43.0108528137207
0,397691,-12.661748886108398,-13.267393112182617,-8.154597282409668,-66.53761291503906
0,397692,13.776346206665039,10.752920150756836,-25.325149536132812,-2.822077989578247
0,397695,-6.885014057159424,0.0043899379670619965,15.410478591918945,-6.2931437492370605
0,397696,-35.13558578491211,-30.218223571777344,-2.6208465099334717,-56.87782669067383
0,397699,14.070976257324219,5.436956882476807,-8.320789337158203,28.130268096923828
0,397700,8.402810096740723,23.034284591674805,27.458852767944336,-14.17209529876709
0,397703,3.3910555839538574,6.767895221710205,17.66524887084961,28.410903930664062
0,397704,12.033319473266602,-18.815750122070312,-29.14266014099121,101.9210205078125
0,397707,-0.7948365211486816,9.092975616455078,2.0493290424346924,-34.21480178833008
0,397708,3.52848482131958,22.251182556152344,29.102703094482422,-70.21686553955078
0,397711,-10.880125999450684,-21.884492874145508,-20.545316696166992,-16.662118911743164
0,397712,-8.392485618591309,-15.76233196258545,-17.066936492919922,13.790534973144531
0,397715,-4.912622928619385,8.447715759277344,3.308091163635254,44.850013732910156
0,397716,0.5208472609519958,5.585692405700684,-3.186814785003662,-17.599252700805664
0,397719,10.093017578125,-11.133333206176758,3.3852524757385254,-18.1590518951416
0,397720,-22.777786254882812,10.370362281799316,4.291447639465332,57.645320892333984
0,397723,13.614765167236328,22.016342163085938,0.795879602432251,76.29229736328125
0,397724,28.938682556152344,-36.74837112426758,-15.539752006530762,-32.90648651123047
0,397727,-25.89358901977539,-6.676547527313232,-15.020404815673828,-211.59613037109375
0,397728,-21.028261184692383,24.534931182861328,13.396955490112305,-38.768802642822266
0,397731,20.28907585144043,-18.547142028808594,18.36440086364746,146.2812042236328
0,397732,13.447501182556152,25.72711753845215,5.75606107711792,-7.101539611816406
0,397735,-23.219282150268555,5.150507926940918,-13.947381973266602,-17.95659828186035
0,397736,11.991334915161133,-15.265578269958496,8.771888732910156,-19.46666145324707
0,397739,14.566221237182617,14.300494194030762,26.97803497314453,101.55755615234375
0,397740,-5.579185962677002,-17.78691864013672,-23.36488151550293,193.91717529296875
0,397743,0.1477564573287964,-10.754810333251953,-37.671531677246094,-162.22747802734375
0,397744,-24.72690773010254,-26.347332000732422,-11.552233695983887,-202.89962768554688
0,397747,-4.553216934204102,19.487171173095703,36.90260314941406,90.92072296142578
0,397748,13.64398193359375,51.08365249633789,53.491329193115234,93.07532501220703
0,397751,3.701059341430664,-20.898351669311523,-14.495753288269043,-88.53364562988281
0,397752,19.5862979888916,3.156306266784668,-39.552364349365234,-16.86638641357422
0,397755,-8.195734977722168,0.797426700592041,-16.605358123779297,119.89208221435547
0,397756,-13.705388069152832,-36.29985046386719,12.583593368530273,-12.417706489562988
0,397759,11.806513786315918,-14.860986709594727,2.7342872619628906,-122.43165588378906
0,397760,-6.1249260902404785,24.65460968017578,5.760450839996338,-43.00638198852539
0,397763,4.727226734161377,56.72833251953125,15.535735130310059,44.71971893310547
0,397765,0.9753230810165405,-13.868905067443848,-15.878390312194824,56.680355072021484
0,397767,-10.312762260437012,-47.55430603027344,12.15287971496582,9.50025463104248
0,397771,7.441629886627197,14.23076057434082,-11.94084358215332,34.21500778198242
0,397771,-4.921022891998291,4.540613174438477,-22.362529754638672,76.95314025878906
0,397772,-6.095080375671387,-13.63188362121582,9.590117454528809,-46.30695343017578
0,397775,14.253807067871094,10.902739524841309,18.344806671142578,-148.5176544189453
0,397776,13.313222885131836,15.627483367919922,10.010649681091309,114.57027435302734
0,397779,-34.35049057006836,-18.055742263793945,-36.84268569946289,239.44775390625
0,397780,-24.5599365234375,-16.33189582824707,-3.0570671558380127,-104.57263946533203
0,397783,33.64848709106445,6.636063098907471,-2.6567869186401367,-433.927734375
0,397784,0.8881605267524719,6.579196453094482,-8.725833892822266,-240.56582641601562
0,397787,13.1649808883667,28.228132247924805,80.22588348388672,467.3324279785156
0,397788,29.49544334411621,-1.2608058452606201,16.95197105407715,324.79583740234375
0,397791,-25.834426879882812,-15.563316345214844,-77.17432403564453,-277.6992492675781
0,397792,-17.956050872802734,-13.06470012664795,-6.696020603179932,-189.66903686523438
0,397795,11.236903190612793,-9.488811492919922,20.19217872619629,89.55803680419922
0,397796,-0.758682370185852,29.53105354309082,-3.2689261436462402,243.16358947753906
0,397799,-20.15081214904785,-2.15535306930542,-6.033538341522217,91.24455261230469
0,397800,-5.229455947875977,-14.69601821899414,4.511687755584717,-225.9579315185547
0,397803,27.337881088256836,13.193558692932129,28.225078582763672,-167.4371795654297
0,397804,22.20899772644043,-4.485599994659424,9.269640922546387,109.34124755859375
0,397807,-8.531898498535156,8.906330108642578,-2.216508150100708,95.08582305908203
0,397808,-28.108247756958008,-6.921630382537842,-17.943828582763672,-55.85258102416992
0,397811,-17.171716690063477,-27.743371963500977,-37.40800476074219,-21.2514705657959
0,397812,8.609687805175781,16.69101333618164,8.431349754333496,80.67562866210938
0,397815,27.319683074951172,33.51732635498047,38.145023345947266,132.53346252441406
0,397816,13.659073829650879,1.2107408046722412,-15.573247909545898,184.5853729248047
0,397819,-38.79364013671875,-77.85469818115234,-25.343509674072266,-498.88812255859375
0,397820,-12.65625286102295,18.033721923828125,42.35342025756836,-666.2388916015625
0,397823,54.462989807128906,89.74727630615234,9.898229598999023,532.1681518554688
0,397824,12.90646743774414,-45.945980072021484,-38.76970291137695,372.6824035644531
0,397827,-31.120485305786133,-30.005260467529297,-30.146188735961914,62.28709411621094
0,397828,-30.116214752197266,0.6527116298675537,-27.81675910949707,352.20477294921875
0,397831,-25.33026695251465,-24.393020629882812,30.03816032409668,-398.08831787109375
0,397832,18.04868507385254,36.80507278442383,55.40007019042969,-326.6333312988281
0,397835,55.98472213745117,45.28435516357422,42.19190216064453,97.81227111816406
0,397836,26.676122665405273,1.730354905128479,0.4254055321216583,29.561220169067383
0,397839,-50.61981964111328,-47.67310333251953,-83.07424926757812,-143.58628845214844
0,397840,-36.75715637207031,-29.188730239868164,-8.367571830749512,-142.7293701171875
0,397843,41.08004379272461,40.24470520019531,66.49346160888672,724.7589721679688
0,397844,3.608295440673828,-7.7277750968933105,-20.092174530029297,441.1776428222656
0,397847,-31.126197814941406,-25.706825256347656,-28.496448516845703,-718.4008178710938
0,397848,26.44575309753418,22.856170654296875,-10.448972702026367,-495.7543029785156
0,397851,-0.44934675097465515,-9.819551467895508,-21.268983840942383,179.5770721435547
0,397852,-34.912784576416016,-8.219573974609375,27.177631378173828,336.4577941894531
0,397855,12.316744804382324,34.235633850097656,29.526912689208984,53.629337310791016
0,397856,19.753591537475586,-4.141231060028076,11.98270320892334,-49.0684814453125
0,397859,5.724055767059326,0.25736862421035767,-7.130631446838379,62.53099822998047
0,397860,7.258823871612549,35.29277420043945,-11.644967079162598,-594.4505004882812
0,397863,23.281261444091797,-27.171152114868164,-9.72296142578125,-234.314208984375
0,397864,-41.465232849121094,-67.99237823486328,-65.46955871582031,457.6371154785156
0,397867,-66.71797180175781,-3.05452299118042,15.555842399597168,174.6568603515625
0,397868,44.52809524536133,74.65095520019531,99.35989379882812,119.05107879638672
0,397871,72.37662506103516,46.41072463989258,8.24207878112793,64.83503723144531
0,397872,-10.474388122558594,-39.76687240600586,-56.72975158691406,181.06289672851562
0,397875,-48.443084716796875,-60.453731536865234,-23.372011184692383,-154.07896423339844
0,397876,-4.929945945739746,-0.8657523393630981,34.56151580810547,-210.60614013671875
0,397879,15.261051177978516,42.24251937866211,1.8947590589523315,83.48831939697266
0,397880,13.85108470916748,23.7684383392334,-16.603952407836914,-0.985004186630249
0,397883,-9.74671745300293,-12.828388214111328,26.687604904174805,37.2234992980957
0,397884,-8.66289234161377,-13.84462833404541,-5.492847442626953,-92.92789459228516
0,397887,9.071574211120605,-9.576309204101562,-16.238603591918945,-172.44483947753906
0,397888,-9.16035270690918,-6.137373447418213,0.45267778635025024,-45.43349838256836
0,397891,2.1597707271575928,26.747238159179688,-18.385648727416992,56.598453521728516
0,397892,13.431353569030762,-12.963799476623535,7.713442802429199,-15.158834457397461
0,397895,-14.820056915283203,-34.42476272583008,9.637359619140625,16.977060317993164
0,397896,-12.315067291259766,19.526641845703125,-8.711465835571289,157.58738708496094
0,397899,19.974470138549805,2.130434274673462,10.25780963897705,103.0259017944336
0,397900,-8.322980880737305,-0.46045544743537903,6.353086471557617,3.4708569049835205
0,397903,-10.251422882080078,37.108463287353516,-4.927839279174805,20.475271224975586
0,397904,19.830215454101562,-12.363751411437988,-10.763510704040527,-25.30401611328125
0,397907,13.601237297058105,-32.5535888671875,10.59414005279541,-51.60966491699219
0,397908,-6.033627033233643,10.935148239135742,8.154004096984863,107.02079772949219
0,397911,-33.86526107788086,-1.927832007408142,-23.88396644592285,-104.82691192626953
0,397912,5.470451831817627,-24.469633102416992,9.375984191894531,-292.0478820800781
0,397915,21.219539642333984,26.517000198364258,7.698873043060303,1.8711223602294922
0,397916,-3.1262245178222656,34.578094482421875,-18.906423568725586,134.50741577148438
0,397919,6.518678665161133,-27.4078311920166,3.6687557697296143,159.4017791748047
0,397920,-2.7025389671325684,-7.71619987487793,7.674978256225586,79.88772583007812
0,397923,-13.390677452087402,37.742408752441406,10.765251159667969,-88.71733856201172
0,397924,5.996913433074951,0.03462474048137665,5.445887088775635,-31.5169734954834
0,397927,8.373080253601074,-36.34773635864258,6.270671367645264,-24.19757843017578
0,397928,-15.467582702636719,-3.7924418449401855,2.2809274196624756,-51.23403549194336
0,397931,9.1610689163208,0.7197450399398804,-18.362728118896484,-0.8663544058799744
0,397932,14.890530586242676,3.7257728576660156,2.2507898807525635,2.118276596069336
0,397935,-21.358150482177734,14.950206756591797,-3.925673007965088,17.25086784362793
0,397936,-19.986774444580078,-10.492837905883789,-22.105518341064453,12.086670875549316
0,397939,17.2771053314209,-9.099897384643555,0.08303995430469513,68.07350158691406
0,397940,24.346399307250977,12.054586410522461,22.953218460083008,131.7786102294922
0,397943,-9.342015266418457,25.567703247070312,17.036819458007812,-22.932302474975586
0,397944,-25.915828704833984,-1.981641411781311,-34.896244049072266,-101.96707153320312
0,397947,10.693581581115723,-41.698974609375,-13.335009574890137,-143.51470947265625
0,397948,30.82683563232422,-27.82741355895996,43.65465545654297,-72.92237091064453
0,397951,-11.80461311340332,26.18415641784668,-9.865067481994629,133.97894287109375
0,397952,-1.5520726442337036,61.9847412109375,-27.217819213867188,19.92158317565918
0,397955,7.3315958976745605,3.4449689388275146,29.009227752685547,-51.54283905029297
0,397956,-30.897836685180664,-64.63082885742188,20.720569610595703,5.430366039276123
0,397959,-11.929235458374023,-15.350627899169922,4.994734764099121,90.73479461669922
0,397960,20.317813873291016,20.96769142150879,0.7989897131919861,309.8126525878906
0,397963,34.770294189453125,22.797666549682617,-4.658626556396484,-202.8203125
0,397964,15.879143714904785,20.73371124267578,2.607081413269043,-552.64794921875
0,397967,-73.59953308105469,-49.096641540527344,-97.61334228515625,239.2493438720703
0,397968,-43.524658203125,-12.5203857421875,-49.20044708251953,157.8288116455078
0,397971,83.7408447265625,42.58478546142578,124.83587646484375,-101.85567474365234
0,397972,28.4908447265625,-5.205732345581055,40.40651321411133,282.45355224609375
0,397975,-36.13250732421875,-10.167916297912598,-41.3411750793457,-46.351627349853516
0,397976,-0.30100125074386597,0.4425046145915985,-12.860330581665039,-180.6923370361328
0,397979,-8.363035202026367,-8.584465026855469,-10.228922843933105,51.170494079589844
0,397980,-10.84585952758789,-19.75836181640625,18.450902938842773,3.9920759201049805
0,397983,10.959856986999512,15.240372657775879,22.79791831970215,4.802367210388184
0,397984,13.661271095275879,50.3829460144043,1.1032829284667969,46.16203308105469
0,397987,-1.443955421447754,-12.0369234085083,-20.622716903686523,12.518073081970215
0,397988,-14.328695297241211,-45.66352081298828,-36.16976547241211,17.375446319580078
0,397991,1.8274290561676025,25.173139572143555,29.899864196777344,-28.190507888793945
0,397992,30.40100860595703,27.961551666259766,48.591243743896484,-95.2136001586914
0,397995,-2.1516287326812744,-25.5882625579834,-45.378414154052734,-12.752708435058594
0,397996,-33.897708892822266,-18.241743087768555,-39.59817123413086,-18.355989456176758
0,397999,-9.03856372833252,6.719284534454346,21.415218353271484,-4.7196173667907715
0,398000,10.670825004577637,-0.44571295380592346,12.980241775512695,83.73097229003906
0,398003,8.731796264648438,2.6410467624664307,9.652209281921387,23.0717716217041
0,398004,-1.3100961446762085,13.278532028198242,6.408463954925537,-0.5796393752098083
0,398007,-4.5519609451293945,0.9803082942962646,-30.91668701171875,10.850625038146973
0,398008,11.920007705688477,-0.5153251886367798,4.415414810180664,-23.45218276977539
0,398012,14.337474822998047,-20.998573303222656,53.734703063964844,-1.9228084087371826
0,398012,-12.33741283416748,7.681219100952148,-11.129432678222656,2.2191383838653564
0,398015,-10.29040241241455,30.15129280090332,-39.81151580810547,-35.14350128173828
0,398017,-14.733309745788574,-21.721023559570312,-24.42453384399414,-40.39801025390625
0,398019,8.755017280578613,-14.912093162536621,2.1913459300994873,32.33013153076172
0,398021,26.8497371673584,-16.00119400024414,14.915745735168457,50.60712814331055
0,398023,-23.521028518676758,-11.383793830871582,-0.8478764891624451,-2.8377561569213867
0,398025,-3.0139873027801514,42.086734771728516,46.29823303222656,-2.315340757369995
0,398027,31.122896194458008,13.262717247009277,7.754975318908691,12.530732154846191
0,398029,0.30920594930648804,-22.729995727539062,-34.433631896972656,9.680024147033691
0,398031,-29.85418128967285,7.505098819732666,-2.0162174701690674,-37.845420837402344
0,398033,-15.010161399841309,4.6939005851745605,-5.117676734924316,-32.652015686035156
0,398035,7.450015544891357,-21.752792358398438,-0.3704667389392853,32.142417907714844
0,398037,-0.12007475644350052,13.945657730102539,2.560096502304077,16.580284118652344
0,398039,22.27711296081543,20.555015563964844,3.1504554748535156,-32.908668518066406
0,398041,22.886980056762695,-16.90081024169922,1.7144083976745605,-10.646425247192383
0,398043,-31.182865142822266,-14.3421049118042,-8.57611083984375,25.97685432434082
0,398045,-25.007308959960938,24.33147430419922,3.5644235610961914,22.748031616210938
0,398047,25.200138092041016,8.092046737670898,9.564316749572754,-3.809058904647827
0,398049,-1.3843004703521729,-42.18096923828125,-5.331535816192627,-8.147257804870605
0,398051,-28.328495025634766,5.63223934173584,7.806700706481934,-4.062653064727783
0,398053,11.444876670837402,16.119897842407227,9.078173637390137,-12.307358741760254
0,398055,69.23857116699219,4.941169261932373,-14.269196510314941,20.82841682434082
0,398057,45.61973190307617,25.187843322753906,-4.310747146606445,-8.201373100280762
0,398059,-82.71424865722656,-12.562947273254395,12.194986343383789,-36.981361389160156
0,398061,-65.73162078857422,-22.512407302856445,1.8030714988708496,27.44784164428711
0,398063,28.641023635864258,-12.526701927185059,-29.958940505981445,14.546411514282227
0,398065,31.218381881713867,1.3173431158065796,-25.232858657836914,-22.19342613220215
0,398067,10.29913330078125,16.78275489807129,27.22934913635254,-0.10056490451097488
0,398069,-23.619945526123047,-4.240696430206299,43.918190002441406,-0.8930468559265137
0,398071,-18.46403694152832,-5.851548671722412,18.205785751342773,17.312711715698242
0,398073,-15.488138198852539,19.755495071411133,-20.843175888061523,16.908987045288086
0,398075,3.9588747024536133,-9.120006561279297,-47.631343841552734,-25.643892288208008
0,398077,52.908138275146484,-26.541053771972656,-19.114534378051758,16.532466888427734
0,398079,11.670948028564453,34.69835662841797,21.00810432434082,14.39145278930664
0,398081,-37.411014556884766,-0.8191885948181152,6.292939186096191,-44.68136215209961
0,398083,19.74085235595703,-29.750102996826172,21.260032653808594,18.671907424926758
0,398085,23.127864837646484,11.919787406921387,22.172595977783203,29.839262008666992
0,398087,-31.62741470336914,-2.259681224822998,-38.59896469116211,-35.32408142089844
0,398089,12.394718170166016,32.651432037353516,-15.74210262298584,5.778027057647705
0,398091,-3.8600656986236572,1.6184585094451904,10.26285171508789,19.7719669342041
0,398093,-18.317707061767578,-36.439308166503906,16.148630142211914,-15.96281909942627
0,398095,13.189544677734375,19.74864959716797,5.745302200317383,-2.1468827724456787
0,398097,-26.311737060546875,-16.558408737182617,-19.9606876373291,-13.362089157104492
0,398099,15.477616310119629,3.4759998321533203,42.697872161865234,-15.0745849609375
0,398101,17.773082733154297,42.016136169433594,16.388042449951172,28.290813446044922
0,398103,-26.85366439819336,-42.361515045166016,-63.62712478637695,27.79605484008789
0,398105,2.6077024936676025,-19.89808464050293,0.6918676495552063,-10.332959175109863
0,398107,-6.380868434906006,40.28960418701172,28.26687240600586,-13.991196632385254
0,398109,18.878948211669922,-13.979755401611328,-28.987041473388672,-10.99410629272461
0,398111,14.670598983764648,-10.051543235778809,0.9410836696624756,10.554773330688477
0,398113,-27.129718780517578,25.195764541625977,25.715991973876953,14.242011070251465
0,398115,1.9992574453353882,-9.639760971069336,-9.314271926879883,-29.05809211730957
0,398117,5.8140974044799805,-9.864839553833008,-4.157372951507568,-12.62761116027832
0,398119,9.431070327758789,5.598636627197266,5.129489421844482,-4.03165864944458
0,398121,12.596498489379883,-17.722347259521484,-10.2210054397583,5.269839286804199
0,398123,-7.8585591316223145,12.738370895385742,12.82267951965332,33.66843032836914
0,398125,-8.658465385437012,17.9202880859375,22.335994720458984,-10.559985160827637
0,398127,-12.567789077758789,-21.779773712158203,-18.387104034423828,-14.911480903625488
0,398129,-3.7200090885162354,7.593158721923828,-22.12785530090332,34.95040512084961
0,398131,18.251073837280273,18.73006248474121,14.279776573181152,5.797116756439209
0,398133,17.983245849609375,-0.08242689818143845,14.463326454162598,-54.53549575805664
0,398135,0.11004427075386047,-24.837814331054688,-32.08005142211914,3.304624557495117
0,398137,-31.303817749023438,-40.16209411621094,-16.722087860107422,41.0153923034668
0,398139,-10.432517051696777,39.583343505859375,36.495758056640625,-12.52996826171875
0,398141,25.5295352935791,38.63080596923828,18.781105041503906,-2.7298033237457275
0,398143,-10.0426607131958,-48.84495162963867,-22.55708885192871,2.274395704269409
0,398145,5.258967876434326,18.67147445678711,-9.649962425231934,5.96633768081665
0,398147,16.46609115600586,34.890316009521484,20.699766159057617,-16.254013061523438
0,398149,-19.824769973754883,-36.56447219848633,-3.8627383708953857,-44.85295867919922
0,398151,5.988892078399658,-9.887002944946289,-20.009342193603516,31.038429260253906
0,398153,3.1974024772644043,16.9342041015625,5.641775131225586,52.891571044921875
0,398155,-16.407958984375,-7.281589031219482,11.219944953918457,0.5857033729553223
0,398157,5.282477378845215,-21.117143630981445,-8.90322494506836,-27.297767639160156
0,398159,-13.493171691894531,-9.124462127685547,-5.341631889343262,-34.2074089050293
0,398161,-6.457941055297852,46.02238845825195,21.670455932617188,6.46275520324707
0,398163,25.894502639770508,27.725027084350586,8.264795303344727,28.58380889892578
0,398165,6.310336112976074,-46.790870666503906,-5.403868675231934,10.931852340698242
0,398167,11.077712059020996,-6.424690246582031,-12.875028610229492,6.860990524291992
0,398169,-9.431852340698242,-3.8006298542022705,-17.20383644104004,-11.882039070129395
0,398171,-11.691046714782715,6.829674243927002,16.111570358276367,-13.072229385375977
0,398173,8.737945556640625,17.787281036376953,21.240676879882812,0.908076286315918
0,398175,5.69294548034668,-27.149511337280273,-24.286890029907227,-3.8097662925720215
0,398177,15.258882522583008,15.054769515991211,-15.534637451171875,-12.755948066711426
0,398179,-33.82013702392578,19.469079971313477,19.527606964111328,12.057088851928711
0,398181,-31.11939811706543,-27.93672752380371,3.7341394424438477,20.46685791015625
0,398183,31.434206008911133,12.216422080993652,-0.6504946351051331,-10.668073654174805
0,398185,12.267218589782715,10.68478775024414,-23.614355087280273,-2.17820143699646
0,398187,-16.438983917236328,-40.8861198425293,-8.076744079589844,1.321284294128418
0,398189,21.920913696289062,21.63451385498047,49.325958251953125,-11.895742416381836
0,398191,20.59600067138672,36.471824645996094,2.300232410430908,5.344181060791016
0,398193,-41.508365631103516,-36.912689208984375,-37.58395004272461,-11.242536544799805
0,398195,-26.051151275634766,-4.3544487953186035,35.45530700683594,-24.177766799926758
0,398197,34.71587371826172,42.14284133911133,18.657148361206055,12.192204475402832
0,398199,2.423619031906128,-11.19798755645752,-46.411808013916016,44.6521110534668
0,398201,-17.318706512451172,-24.816959381103516,-5.663091659545898,18.516969680786133
0,398203,23.95736312866211,16.59977912902832,8.92887020111084,-11.919694900512695
0,398205,-0.147231325507164,-19.167743682861328,-5.993259429931641,0.3693772256374359
0,398207,-17.950016021728516,-16.73378562927246,2.764927387237549,-44.135257720947266
0,398209,12.708610534667969,53.29914855957031,39.39458084106445,-16.416717529296875
0,398211,-10.294095993041992,-32.609588623046875,-11.526474952697754,53.6483154296875
0,398213,-15.515008926391602,-60.85824966430664,-53.163658142089844,-12.53419303894043
0,398215,26.746572494506836,52.06129837036133,12.731438636779785,-44.035362243652344
0,398217,17.613466262817383,45.4664421081543,0.06504730135202408,13.073728561401367
0,398219,-3.6766324043273926,-4.174749851226807,19.83013343811035,42.34307098388672
0,398221,-19.192163467407227,-26.19208526611328,19.29538345336914,-1.349755048751831
0,398222,-3.7948780059814453,-11.314956665039062,-39.87263488769531,-38.99918746948242
0,398225,-4.368879318237305,9.497207641601562,9.963326454162598,15.340901374816895
0,398226,-8.185708045959473,-8.318851470947266,24.103591918945312,-6.6155829429626465
0,398229,31.863222122192383,9.640239715576172,-14.260462760925293,1.8206876516342163
0,398230,9.852697372436523,25.01193618774414,-8.435985565185547,53.010231018066406
0,398233,-15.599577903747559,-4.489333152770996,-2.5417191982269287,-28.012903213500977
0,398234,-11.861846923828125,-15.49850082397461,5.4874372482299805,-31.184715270996094
0,398237,2.7057509422302246,-2.476922035217285,18.679149627685547,22.03645896911621
0,398238,9.588305473327637,-21.38282585144043,-6.566856384277344,-5.059447765350342
0,398241,-11.231324195861816,-5.8428449630737305,-20.383590698242188,16.680294036865234
0,398242,-5.526201248168945,30.936368942260742,13.208598136901855,10.333465576171875
0,398245,-5.282911777496338,-13.127925872802734,5.817142963409424,-62.295406341552734
0,398246,-4.71895170211792,-32.172481536865234,-18.457258224487305,6.0668816566467285
0,398249,21.039011001586914,36.73234939575195,24.717365264892578,43.70923614501953
0,398250,7.81887149810791,42.161685943603516,31.601749420166016,-13.112156867980957
0,398253,-11.398882865905762,-41.31806945800781,-42.28969192504883,12.599715232849121
0,398254,-2.439196825027466,-29.477907180786133,-29.852249145507812,4.559392929077148
0,398257,-10.479862213134766,14.884024620056152,25.11869239807129,-36.955162048339844
0,398258,0.10733453184366226,13.459990501403809,19.04320526123047,-2.919260025024414
0,398261,17.211341857910156,18.586816787719727,2.381521701812744,44.75552749633789
0,398264,0.6696695685386658,-9.624391555786133,-25.440237045288086,-1.8842540979385376
0,398265,-5.468544960021973,-7.094408988952637,-5.246887683868408,-46.29888916015625
0,398267,9.220959663391113,12.805675506591797,34.397254943847656,3.917152166366577
0,398269,-3.4618000984191895,-25.89208221435547,-15.927851676940918,10.289444923400879
0,398271,-13.56970500946045,-18.692371368408203,-37.584503173828125,18.183595657348633
0,398273,4.59457540512085,20.56938362121582,19.23550796508789,27.787614822387695
0,398275,2.730513334274292,19.678667068481445,13.928070068359375,-32.093116760253906
0,398277,-1.0295430421829224,-3.407254457473755,-12.65854263305664,-18.20444679260254
0,398279,3.427931070327759,11.60123062133789,13.4876070022583,12.43759536743164
0,398281,13.090731620788574,5.940579891204834,1.4244478940963745,-21.187496185302734
0,398283,-14.243736267089844,-34.984439849853516,0.4512798488140106,11.61397933959961
0,398285,-6.835545063018799,9.961834907531738,0.2644675374031067,26.492801666259766
0,398287,19.183517456054688,24.37227439880371,-12.802309036254883,-8.703723907470703
0,398289,-18.58631706237793,-5.55902099609375,26.186134338378906,9.551801681518555
0,398291,-23.07175064086914,-35.37201690673828,-10.215056419372559,10.323180198669434
0,398293,27.61227798461914,-6.371811866760254,-22.515832901000977,-9.556964874267578
0,398295,34.36225128173828,27.812654495239258,27.77268409729004,-11.987831115722656
0,398297,-20.602067947387695,-17.827289581298828,0.14119718968868256,-15.308870315551758
0,398299,-7.644681930541992,-9.197062492370605,-19.97713279724121,-2.3370096683502197
0,398301,4.139271259307861,29.967853546142578,4.196512699127197,15.720742225646973
0,398303,-7.840176582336426,13.835688591003418,4.314444065093994,11.594478607177734
0,398305,-0.9787312746047974,-26.304046630859375,-7.52400016784668,-3.1671030521392822
0,398307,-3.8885645866394043,-2.410815954208374,6.592025279998779,-12.161349296569824
0,398309,-0.5873097777366638,17.868932723999023,4.4779052734375,-22.120206832885742
0,398311,0.07893745601177216,-15.431990623474121,-14.302681922912598,-8.348960876464844
0,398313,-6.871063232421875,-8.756185531616211,-11.641083717346191,26.55126190185547
0,398315,-2.6499712467193604,14.37280559539795,19.574161529541016,15.208186149597168
0,398317,23.050941467285156,18.368810653686523,32.58207702636719,1.1543391942977905
0,398319,-7.617166519165039,-0.09345687180757523,-14.78156566619873,12.999329566955566
0,398321,-10.517980575561523,-20.731700897216797,-32.68316650390625,-3.1166322231292725
0,398323,28.405168533325195,-8.234620094299316,1.2040246725082397,-23.893993377685547
0,398325,-16.23235321044922,-0.12900248169898987,10.986469268798828,-16.015945434570312
0,398327,-10.223670959472656,13.500923156738281,7.966227054595947,4.176131248474121
0,398329,28.13921546936035,7.327859401702881,6.35983943939209,9.466386795043945
0,398331,-10.817171096801758,-10.432563781738281,1.7707394361495972,11.459677696228027
0,398333,-10.553030014038086,12.427876472473145,-12.843945503234863,11.322872161865234
0,398335,2.1432321071624756,-6.118001461029053,-17.81980323791504,-13.35823917388916
0,398337,-10.623676300048828,-16.537322998046875,23.29140853881836,-23.389280319213867
0,398339,6.950273036956787,7.091347694396973,21.520021438598633,6.964395523071289
0,398341,10.447121620178223,-19.080467224121094,-19.680574417114258,29.03378677368164
0,398343,-6.932960033416748,3.874359607696533,-9.416659355163574,-4.465908050537109
0,398345,-16.40763282775879,27.27474021911621,0.7681336998939514,-16.042160034179688
0,398347,-4.959070682525635,-4.775874614715576,12.415116310119629,-11.669107437133789
0,398349,19.34746551513672,-4.6158647537231445,8.546510696411133,6.336671352386475
0,398351,5.677585601806641,10.398465156555176,-16.35835075378418,36.143775939941406
0,398353,-25.778772354125977,-1.5610977411270142,-9.491843223571777,-27.701107025146484
0,398355,0.08078599721193314,-12.693438529968262,-0.001516450196504593,-21.769094467163086
0,398357,28.09257698059082,10.025918006896973,10.471813201904297,20.060564041137695
0,398359,1.1599091291427612,-9.244619369506836,-1.6648913621902466,-12.401901245117188
0,398361,-14.947620391845703,-20.84829330444336,-21.578693389892578,26.306137084960938
0,398363,11.520711898803711,26.225997924804688,3.3893301486968994,12.239133834838867
0,398365,22.60114288330078,31.12802505493164,11.063318252563477,-28.54837417602539
0,398367,-13.383770942687988,-36.04220962524414,0.18501555919647217,-2.8923022747039795
0,398369,-12.660379409790039,-20.750593185424805,22.848350524902344,1.5322803258895874
0,398371,-4.3305439949035645,31.134048461914062,1.6328014135360718,10.446452140808105
0,398373,-7.535211086273193,9.4249906539917,-18.212684631347656,9.728362083435059
0,398375,5.787348747253418,5.1211628913879395,1.7852767705917358,-8.369975090026855
0,398377,-3.216641902923584,-30.717893600463867,-7.929410457611084,-6.658422470092773
0,398379,1.1805697679519653,-13.856331825256348,22.66683006286621,1.9838873147964478
0,398381,15.657711029052734,33.37953567504883,6.796239852905273,-3.16971755027771
0,398383,16.431665420532227,4.62614107131958,-33.3514289855957,-5.005312442779541
0,398385,-21.05628204345703,-10.954922676086426,8.711660385131836,-32.6282844543457
0,398387,-34.97712707519531,-19.71552848815918,5.296065807342529,4.31085205078125
0,398389,9.18614673614502,-6.7563862800598145,-12.427987098693848,47.31719970703125
0,398391,29.828596115112305,25.55707359313965,4.841681003570557,-3.8930583000183105
0,398393,12.834967613220215,14.589803695678711,2.826589345932007,1.7044813632965088
0,398395,-25.389184951782227,-9.967059135437012,-17.211641311645508,5.494299411773682
0,398397,-4.6957268714904785,-9.1190767288208,13.459948539733887,-19.625694274902344
0,398399,10.052597999572754,12.794569969177246,18.967178344726562,16.632387161254883
0,398401,-14.233551025390625,-7.756641387939453,-33.376163482666016,18.01537322998047
0,398403,8.311177253723145,-21.925575256347656,9.210567474365234,-3.3508574962615967
0,398405,2.8942365646362305,17.752912521362305,21.089014053344727,-9.750940322875977
0,398407,3.6274876594543457,19.632707595825195,-19.435266494750977,-21.37019920349121
0,398409,20.320707321166992,-5.585835933685303,13.183683395385742,-1.3132896423339844
0,398411,-17.680200576782227,-57.70497131347656,-16.675933837890625,5.9314799308776855
0,398413,-24.654781341552734,17.367393493652344,-27.66844940185547,5.575607776641846
0,398415,37.312896728515625,92.12915802001953,43.54004669189453,-23.2910099029541
0,398417,17.046422958374023,-49.627445220947266,20.403337478637695,-29.164281845092773
0,398419,-55.79970932006836,-49.39918518066406,-5.279480457305908,36.46392059326172
0,398421,-11.811653137207031,24.872364044189453,13.729284286499023,26.768348693847656
0,398423,40.5565071105957,12.697511672973633,-23.385967254638672,-8.26998519897461
0,398425,5.941833972930908,8.578096389770508,-39.72671127319336,0.407503217458725
0,398427,-17.659624099731445,-26.021127700805664,16.442386627197266,3.820241689682007
0,398429,-3.392057418823242,7.48106575012207,41.8550910949707,5.338487148284912
0,398431,3.3899638652801514,37.49898910522461,-22.993507385253906,-1.3200929164886475
0,398433,2.2853004932403564,3.197871208190918,-25.564409255981445,-8.054587364196777
0,398435,4.110767841339111,-45.186790466308594,14.456374168395996,-21.48626708984375
0,398437,-4.29534912109375,-26.685148239135742,-7.23634672164917,-10.914145469665527
0,398439,-7.601258277893066,40.067100524902344,-5.409265518188477,15.488859176635742
0,398441,-3.3338866233825684,-11.528911590576172,-8.407389640808105,5.899716854095459
0,398443,10.592475891113281,-8.211891174316406,-0.8147814273834229,1.0073844194412231
0,398445,24.988704681396484,37.045928955078125,39.84058380126953,5.241530895233154
0,398447,-15.274765014648438,-21.8941707611084,17.670995712280273,-27.923437118530273
0,398449,-22.596525192260742,-12.160416603088379,-27.355127334594727,3.3702356815338135
0,398451,22.799278259277344,24.60144805908203,5.4524922370910645,43.37029266357422
0,398453,4.737117290496826,-3.690263271331787,24.417457580566406,3.3541033267974854
0,398455,-30.4102783203125,-24.78208351135254,-33.66384506225586,-16.628231048583984
0,398457,-2.3526008129119873,5.232045650482178,-19.656925201416016,-24.158628463745117
0,398459,32.091678619384766,25.848859786987305,34.81521224975586,-3.805675983428955
0,398461,11.299456596374512,-8.594441413879395,12.672048568725586,19.5085506439209
0,398463,-11.328824996948242,-12.281783103942871,-35.77637481689453,4.28709602355957
0,398465,-18.66765594482422,29.551118850708008,-13.974905967712402,-7.744204521179199
0,398467,-11.67774772644043,-0.41913115978240967,26.249404907226562,-13.158400535583496
0,398469,14.345349311828613,-33.790428161621094,-17.059547424316406,2.933570623397827
0,398471,11.362452507019043,5.724414348602295,-14.69244384765625,40.46046829223633
0,398473,11.707125663757324,8.648736000061035,24.378171920776367,-5.768969535827637
0,398474,-5.706157207489014,-14.469545364379883,7.539414405822754,-41.58376693725586
0,398477,-26.841989517211914,-14.457279205322266,4.518354892730713,26.205524444580078
0,398478,-0.3478979468345642,14.613743782043457,1.842582106590271,32.892822265625
0,398481,13.339219093322754,16.390869140625,-19.174510955810547,-13.235235214233398
0,398482,4.856958389282227,1.4844002723693848,3.0261576175689697,-30.804311752319336
0,398485,-12.445969581604004,10.144038200378418,24.415124893188477,-7.309411525726318
0,398486,-12.554356575012207,-6.656933307647705,-17.713539123535156,3.7757198810577393
0,398489,19.23697853088379,-3.286285877227783,-7.497486114501953,-10.12972354888916
0,398490,12.635398864746094,10.772344589233398,32.30602264404297,24.56890106201172
0,398493,-7.008686065673828,5.995874404907227,-20.622774124145508,12.817971229553223
0,398494,6.853301525115967,-5.767602443695068,-15.987587928771973,-20.371076583862305
0,398497,-6.413088321685791,-39.82685089111328,21.39122772216797,-4.433595657348633
0,398498,-17.708534240722656,-26.629831314086914,-27.411916732788086,2.321883201599121
0,398501,24.000036239624023,51.4913330078125,10.99821662902832,14.48612117767334
0,398502,26.18100929260254,52.97932815551758,45.89128494262695,-4.673344135284424
0,398505,-41.680419921875,-57.816612243652344,-46.95750045776367,-24.750375747680664
0,398506,-34.5467643737793,-53.49866485595703,-24.413747787475586,7.150582790374756
0,398509,51.27906036376953,50.17109680175781,54.36857986450195,1.529040813446045
0,398510,21.088275909423828,33.280147552490234,-7.5295891761779785,-3.186957359313965
0,398513,-53.92011642456055,-13.6212158203125,-42.84001541137695,27.046630859375
0,398514,-0.04699274152517319,-1.5380284786224365,19.2629451751709,2.1682186126708984
0,398517,36.86784744262695,-3.5628464221954346,12.335410118103027,-27.24295425415039
0,398518,7.459724426269531,-9.239603042602539,-3.233152151107788,-5.944175720214844
0,398521,-32.11420822143555,9.61660385131836,6.0049285888671875,23.506595611572266
0,398522,-12.732537269592285,-1.9185374975204468,-22.26161003112793,22.309524536132812
0,398526,36.88972091674805,-29.929452896118164,-5.563793659210205,-27.446983337402344
0,398526,2.1371448040008545,13.71131706237793,21.623210906982422,-27.02042579650879
0,398529,-25.977602005004883,18.247844696044922,8.513045310974121,20.164302825927734
0,398531,-5.322801113128662,-25.789180755615234,-16.924957275390625,0.30931803584098816
0,398533,14.210708618164062,11.494832992553711,13.386611938476562,10.789363861083984
0,398535,-1.2014439105987549,11.730841636657715,2.405716896057129,3.5823240280151367
0,398537,-8.429859161376953,-29.56183433532715,-33.65459442138672,-36.417640686035156
0,398539,2.0158467292785645,20.714067459106445,35.79917526245117,21.525924682617188
0,398541,-8.494673728942871,28.568044662475586,14.429147720336914,25.782995223999023
0,398543,10.210090637207031,-34.56809997558594,-39.61134338378906,-21.387981414794922
0,398545,23.651042938232422,-15.114108085632324,12.47575855255127,-5.811435222625732
0,398547,-12.833415031433105,28.871511459350586,22.75082778930664,-1.6480236053466797
0,398549,-5.347350597381592,7.357151031494141,-15.596187591552734,13.074036598205566
0,398551,10.018954277038574,-7.994417667388916,-4.701828479766846,41.028099060058594
0,398553,-7.826955318450928,-4.578505516052246,13.351679801940918,-14.300161361694336
0,398555,-4.517106056213379,-8.503414154052734,-8.05184268951416,-66.94527435302734
0,398557,11.229199409484863,9.45667552947998,-3.041933298110962,16.835983276367188
0,398559,14.108338356018066,13.160245895385742,-2.2248313426971436,51.3254508972168
0,398561,-16.039470672607422,-5.10437536239624,-3.7368428707122803,-26.774850845336914
0,398563,-10.96998405456543,-23.80392074584961,-0.35180702805519104,-18.301433563232422
0,398565,-1.706066370010376,-0.21442019939422607,-14.903828620910645,14.453685760498047
0,398567,-16.04277992248535,14.352275848388672,12.803143501281738,-3.700371026992798
0,398569,3.3306007385253906,-1.7082946300506592,5.91261100769043,1.42593514919281
0,398571,35.613731384277344,3.8072731494903564,-13.282122611999512,13.585722923278809
0,398573,7.234275817871094,-11.236438751220703,8.669378280639648,-23.311065673828125
0,398575,-34.65859603881836,-1.3717398643493652,-4.5920491218566895,-26.92569923400879
0,398577,4.082488059997559,15.629895210266113,1.156565546989441,27.805461883544922
0,398579,14.768527030944824,-5.097623825073242,22.13581657409668,23.63892936706543
0,398581,-15.910202026367188,6.395904541015625,22.54817008972168,-7.610332489013672
0,398583,-17.127944946289062,-18.311731338500977,-21.566665649414062,-8.141410827636719
0,398585,28.40677261352539,9.362926483154297,-24.325321197509766,11.914850234985352
0,398587,25.8437557220459,53.79129409790039,-4.354846954345703,-11.9530611038208
0,398589,-41.2872428894043,-28.716564178466797,-18.10580825805664,-12.064397811889648
0,398591,-7.3214802742004395,-26.477333068847656,45.647727966308594,46.117977142333984
0,398593,20.1005916595459,9.856149673461914,10.896452903747559,-10.260936737060547
0,398595,-7.0389251708984375,3.02947998046875,-37.83757400512695,-54.74418640136719
0,398597,6.353408336639404,0.8386284708976746,39.13319396972656,22.87596893310547
0,398599,6.213094711303711,-17.04041290283203,6.1373114585876465,39.39675521850586
0,398601,7.844207763671875,-0.0838095024228096,-2.9663329124450684,5.359344959259033
0,398603,-11.921042442321777,16.43804168701172,7.977005481719971,-23.04751205444336
0,398605,-23.103469848632812,-13.978959083557129,-67.74047088623047,-37.59496307373047
0,398607,24.71173095703125,-9.155487060546875,-16.060232162475586,25.75484848022461
0,398609,10.846966743469238,18.941999435424805,42.00757598876953,7.456977367401123
0,398611,-30.312856674194336,-22.510988235473633,1.321799635887146,-29.061439514160156
0,398613,5.83329439163208,-18.796707153320312,-17.418764114379883,32.555912017822266
0,398615,18.79438018798828,53.032588958740234,23.942970275878906,8.051283836364746
0,398617,-6.466497421264648,33.89482116699219,-5.139719486236572,-34.38530349731445
0,398619,1.7706025838851929,-30.64885711669922,-32.49211502075195,2.3310346603393555
0,398621,5.539638042449951,-16.80335807800293,40.633338928222656,10.469468116760254
0,398623,0.98347407579422,-0.07054601609706879,-10.276891708374023,-1.170677661895752
0,398625,4.80933141708374,6.470123291015625,-9.949604034423828,-5.902873992919922
0,398627,-14.41962718963623,-1.9978277683258057,52.21051025390625,-18.171754837036133
0,398629,-18.013017654418945,-26.693504333496094,-34.48826599121094,6.673916816711426
0,398631,5.312762260437012,3.2582459449768066,-10.899869918823242,37.19921875
0,398633,5.441924571990967,17.95462417602539,43.22198486328125,10.116519927978516
0,398635,4.63373327255249,1.716936707496643,-37.02519607543945,-37.072391510009766
0,398637,-4.769599437713623,-19.059589385986328,-31.85425567626953,-8.040329933166504
0,398639,-5.92047119140625,1.011451244354248,26.53549575805664,16.71895408630371
0,398641,0.5014317631721497,29.622385025024414,10.34685230255127,18.333826065063477
0,398643,-0.2300984114408493,-21.304126739501953,1.7082741260528564,20.854650497436523
0,398645,21.03476333618164,-13.114433288574219,1.130573034286499,-41.11722183227539
0,398647,0.6722927689552307,40.7990608215332,-3.901679754257202,-25.938129425048828
0,398649,-9.308748245239258,-5.62005615234375,13.584178924560547,50.23758316040039
0,398651,25.570497512817383,-39.3751220703125,-3.240975856781006,17.567415237426758
0,398653,-4.845235824584961,14.567831993103027,-15.783656120300293,-28.921131134033203
0,398655,-35.58243942260742,38.54340744018555,-8.979915618896484,-14.4395170211792
0,398657,0.25393736362457275,-8.007105827331543,-8.801067352294922,-21.73680877685547
0,398659,23.93166732788086,-28.12962532043457,11.512833595275879,4.597212314605713
0,398661,-10.644018173217773,-14.199636459350586,3.904803514480591,30.7551326751709
0,398663,-9.379919052124023,-2.6317319869995117,-1.976122498512268,-6.984552383422852
0,398665,7.940780162811279,33.963096618652344,14.93200397491455,-1.3535937070846558
0,398667,-2.593719482421875,-0.09877239912748337,-1.7839984893798828,14.215822219848633
0,398669,10.555950164794922,-13.096035957336426,-15.735712051391602,-21.822256088256836
0,398671,4.261328220367432,26.177743911743164,1.2280511856079102,-2.885241985321045
0,398673,-13.786897659301758,-30.091779708862305,24.24112892150879,19.804325103759766
0,398675,-2.148634195327759,10.928201675415039,8.737922668457031,-9.041226387023926
0,398677,15.159852027893066,19.50825309753418,-28.091100692749023,-3.0862436294555664
0,398679,-6.186836242675781,-39.901424407958984,-12.131452560424805,-11.109935760498047
0,398681,-7.969052314758301,16.938461303710938,24.096647262573242,22.149682998657227
0,398683,-4.282845973968506,-3.887524366378784,-6.5488505363464355,17.077085494995117
0,398685,0.9591333866119385,-0.6268758177757263,-5.843569755554199,-41.97950744628906
0,398687,20.71927261352539,12.139389991760254,9.236702919006348,-10.748656272888184
0,398689,-3.785475015640259,-22.72248649597168,-15.209809303283691,23.003915786743164
0,398691,-25.487354278564453,-8.649698257446289,-2.6032040119171143,27.66482162475586
0,398693,4.9996232986450195,-3.1786623001098633,7.757385730743408,-6.509079456329346
0,398695,13.608409881591797,14.69046401977539,5.33429479598999,-14.185457229614258
0,398697,-18.168834686279297,17.321815490722656,-2.231137990951538,-1.5288162231445312
0,398699,6.405841827392578,13.118557929992676,-8.945908546447754,-5.628227233886719
0,398701,29.759279251098633,8.431389808654785,3.927910804748535,12.722347259521484
0,398703,-16.938695907592773,-41.08899688720703,11.864989280700684,-9.559178352355957
0,398705,-16.22085952758789,-7.059730052947998,-3.684976816177368,5.4121785163879395
0,398707,27.285341262817383,66.4293441772461,7.880785942077637,15.628445625305176
0,398709,-15.575230598449707,-34.154197692871094,7.799432754516602,-30.859777450561523
0,398711,-18.7738037109375,-64.70494079589844,-17.864458084106445,-4.673348903656006
0,398713,31.324079513549805,43.81263732910156,0.20873257517814636,8.874051094055176
0,398715,10.677820205688477,32.4443359375,28.527873992919922,0.8903352618217468
0,398717,-19.896175384521484,-19.77906608581543,0.8979269862174988,1.3869740962982178
0,398719,-10.212002754211426,-13.453812599182129,-36.56361770629883,4.5863494873046875
0,398721,20.214025497436523,5.518442153930664,-14.613080978393555,9.048147201538086
0,398723,4.098007678985596,30.44464683532715,9.446040153503418,-21.602230072021484
0,398725,-29.66143226623535,-8.813304901123047,20.689573287963867,3.3021020889282227
0,398727,8.97582721710205,-20.745786666870117,15.2824125289917,9.197443962097168
0,398729,9.674280166625977,25.942224502563477,-25.75056266784668,6.961973667144775
0,398731,-22.872852325439453,-13.180394172668457,-14.946711540222168,25.829248428344727
0,398733,23.897634506225586,-15.753665924072266,14.819235801696777,-19.050954818725586
0,398735,16.37216567993164,2.652163505554199,-6.682919979095459,-38.58821487426758
0,398737,-23.175817489624023,6.156705856323242,-1.907940149307251,24.01275634765625
0,398739,7.9690117835998535,15.560384750366211,25.943084716796875,37.49982833862305
0,398741,-10.507862091064453,-18.584728240966797,-4.872838020324707,-37.67605209350586
0,398743,-27.11066246032715,-8.196284294128418,-32.31242370605469,-13.503674507141113
0,398745,21.381023406982422,9.54505729675293,18.422842025756836,21.16551399230957
0,398747,13.780340194702148,-2.22590708732605,26.03696060180664,-8.070625305175781
0,398749,-4.7789835929870605,-8.795878410339355,-17.346101760864258,2.4808530807495117
0,398751,13.030010223388672,1.7450647354125977,-12.031435012817383,11.120525360107422
0,398753,0.5862216353416443,8.093433380126953,16.466249465942383,-7.841596603393555
0,398755,-23.28380012512207,5.430286884307861,-1.4484437704086304,-24.77825927734375
0,398757,-17.706201553344727,9.197929382324219,-10.159322738647461,-7.773967266082764
0,398759,10.235379219055176,-22.71246337890625,9.902902603149414,23.077648162841797
0,398760,27.117633819580078,-12.148856163024902,-20.008155822753906,7.945065975189209
0,398763,-2.98580002784729,11.219132423400879,-20.027156829833984,-5.833517074584961
0,398764,-13.653570175170898,2.6633119583129883,18.2225341796875,12.965963363647461
0,398767,9.642439842224121,5.41073751449585,20.846954345703125,-4.1589155197143555
0,398768,-4.565695762634277,9.905339241027832,5.959457874298096,4.917614936828613
0,398771,-10.258761405944824,17.92900848388672,-6.651622295379639,15.530116081237793
0,398772,20.243288040161133,-9.376126289367676,-4.705772399902344,-17.568984985351562
0,398775,13.675408363342285,-13.967123031616211,7.094257354736328,-0.9128209948539734
0,398776,-23.22357940673828,5.958774566650391,12.90550708770752,15.398659706115723
0,398779,-14.402989387512207,-21.105419158935547,-34.36785888671875,-33.78615188598633
0,398780,16.34727668762207,-16.34967041015625,-19.50698471069336,0.9712048172950745
0,398783,11.924662590026855,40.376380920410156,39.62779235839844,31.04853630065918
0,398784,-18.67243766784668,2.3750505447387695,-0.9257897138595581,-30.64108657836914
0,398787,-1.8145159482955933,-17.70713233947754,3.5347135066986084,-7.224206447601318
0,398790,6.66430139541626,7.636248588562012,1.495610237121582,4.374294281005859
0,398791,-15.318171501159668,-7.645944118499756,-17.511796951293945,-12.639952659606934
0,398793,4.989432334899902,7.986109733581543,10.527567863464355,18.724205017089844
0,398795,9.046628952026367,-18.72011375427246,-4.116033554077148,22.068754196166992
0,398797,4.752905368804932,3.662008762359619,-5.366886615753174,-3.780273914337158
0,398799,1.1304218769073486,36.746681213378906,4.593553066253662,-22.264381408691406
0,398801,-4.951303482055664,-16.128406524658203,0.4753195643424988,6.374800682067871
0,398803,10.817273139953613,-4.883063316345215,13.771638870239258,14.824438095092773
0,398805,0.13616476953029633,10.076980590820312,6.400336265563965,-8.255507469177246
0,398807,-1.9770653247833252,-7.504965305328369,-8.430317878723145,6.017058372497559
0,398809,9.433260917663574,-21.094791412353516,-15.010331153869629,-0.4895491302013397
0,398811,-16.783472061157227,-9.3785400390625,-24.401721954345703,-11.962739944458008
0,398813,-10.456127166748047,34.94184494018555,-2.771620512008667,-12.2107572555542
0,398815,16.7174072265625,4.568823337554932,31.911605834960938,9.482354164123535
0,398817,4.472476005554199,-22.687665939331055,20.50846290588379,20.729724884033203
0,398819,-9.01884651184082,-9.819592475891113,-22.175077438354492,-5.4571213722229
0,398821,-5.057423114776611,20.065046310424805,-15.715877532958984,-6.9600372314453125
0,398823,-1.9043246507644653,10.489325523376465,22.72654914855957,1.6050962209701538
0,398825,1.080511212348938,-28.280126571655273,5.009553909301758,7.124423027038574
0,398827,1.897922158241272,-2.3602893352508545,-22.391799926757812,-9.02009105682373
0,398829,8.811826705932617,6.609863758087158,9.662498474121094,-14.036356925964355
0,398831,-13.368107795715332,21.854557037353516,12.100737571716309,9.512418746948242
0,398833,-4.378998279571533,12.64006233215332,1.2025731801986694,4.00568151473999
0,398835,25.611970901489258,-38.818382263183594,-12.025750160217285,-14.205491065979004
0,398837,-16.704198837280273,-4.203351020812988,-8.105429649353027,8.159462928771973
0,398839,-12.38835334777832,29.28893280029297,28.2391300201416,12.601284980773926
0,398841,22.691844940185547,-7.560123920440674,0.17466002702713013,-4.136327743530273
0,398843,5.9993367195129395,-16.911344528198242,-6.195844650268555,18.551898956298828
0,398845,-20.043380737304688,2.9672539234161377,-8.956679344177246,-0.841797947883606
0,398847,1.4854977130889893,10.629129409790039,-29.39546012878418,-35.97917175292969
0,398849,20.026235580444336,11.399242401123047,13.790494918823242,-12.948786735534668
0,398851,-14.301338195800781,-11.142352104187012,24.146259307861328,20.621362686157227
0,398853,-5.707585334777832,-1.9256227016448975,-19.465869903564453,31.85394859313965
0,398855,6.549190521240234,5.8021674156188965,-12.342392921447754,-38.33842086791992
0,398857,-25.10464859008789,-30.0794620513916,0.28512436151504517,-35.472740173339844
0,398859,9.076322555541992,19.241619110107422,16.84668731689453,63.663455963134766
0,398861,43.9014892578125,32.83424758911133,19.297067642211914,2.2417588233947754
0,398863,-14.034746170043945,-9.981497764587402,-24.893218994140625,-25.475017547607422
0,398865,-41.93880844116211,-8.421147346496582,-5.597424507141113,13.832123756408691
0,398867,-6.592379570007324,-18.153757095336914,15.148202896118164,-11.174905776977539
0,398869,13.374418258666992,-5.6833696365356445,-1.1928753852844238,1.1539005041122437
0,398871,13.610540390014648,19.32772445678711,-1.130021572113037,25.025680541992188
0,398873,14.157166481018066,-2.258528470993042,3.4793858528137207,4.813461780548096
0,398875,-3.955505609512329,1.4576787948608398,-0.6532692313194275,-25.04494285583496
0,398877,1.0057826042175293,28.822254180908203,6.760655403137207,-2.1551337242126465
0,398879,7.839407920837402,-19.199350357055664,-1.5049539804458618,9.239171028137207
0,398881,-13.421234130859375,-17.222448348999023,-13.564687728881836,14.408602714538574
0,398883,-3.1430201530456543,9.086516380310059,0.437821626663208,-11.79998779296875
0,398885,-1.3410470485687256,-21.07149887084961,-13.355409622192383,-59.65892028808594
0,398887,3.042163848876953,8.746273040771484,9.977188110351562,6.690606594085693
0,398889,12.75674057006836,17.974111557006836,30.799333572387695,59.736690521240234
0,398891,5.784487724304199,-4.223541259765625,-15.678675651550293,-1.1236414909362793
0,398893,-10.808752059936523,6.196303844451904,-15.286975860595703,-28.016937255859375
0,398895,-15.638009071350098,1.1733183860778809,4.663728713989258,13.35538101196289
0,398897,3.133028745651245,-20.205739974975586,11.384029388427734,14.672263145446777
0,398899,-1.9023046493530273,-7.488862991333008,11.705716133117676,-10.064855575561523
0,398901,5.215296268463135,9.01957893371582,-20.362937927246094,7.383019924163818
0,398903,24.05284881591797,2.97951078414917,-15.23487663269043,14.112754821777344
0,398905,-6.877311706542969,14.638392448425293,-1.8774816989898682,-5.174257278442383
0,398907,-15.052754402160645,-21.969261169433594,1.0347274541854858,-45.23094177246094
0,398909,5.059378147125244,-25.38035774230957,10.369806289672852,-7.859735012054443
0,398911,-11.622944831848145,25.654455184936523,18.23004913330078,68.94727325439453
0,398913,-3.8855295181274414,2.2825849056243896,-4.650477886199951,-11.5597505569458
0,398915,8.841411590576172,1.4888741970062256,-23.443927764892578,-51.928077697753906
0,398917,5.867279529571533,40.24596405029297,13.717604637145996,15.776572227478027
0,398919,-13.750176429748535,-2.676440715789795,7.491094589233398,25.9428768157959
0,398921,-15.366944313049316,-38.55854034423828,-2.393251419067383,-11.096526145935059
0,398923,17.19708824157715,-5.270394325256348,12.276453018188477,-34.76056671142578
0,398925,23.970294952392578,11.062348365783691,-4.974769592285156,10.976956367492676
0,398927,-4.907952785491943,10.074013710021973,-18.31332778930664,19.220176696777344
0,398929,-23.97408103942871,-2.91190505027771,17.223514556884766,4.186778545379639
0,398931,19.943078994750977,3.2707152366638184,18.85731315612793,20.9776554107666
0,398933,8.47860336303711,-7.735873699188232,-33.3117561340332,-11.864644050598145
0,398935,-15.652970314025879,-23.7791805267334,-2.263813018798828,-15.76457405090332
0,398937,8.148625373840332,14.982708930969238,13.276329040527344,-4.812777996063232
0,398939,-13.431411743164062,1.1084632873535156,-27.093616485595703,-8.372028350830078
0,398941,-2.246591567993164,-6.266397953033447,14.386540412902832,12.771838188171387
0,398943,21.702653884887695,24.30806541442871,19.070632934570312,7.073184967041016
0,398945,-9.071257591247559,12.118651390075684,-26.5086669921875,-2.8938512802124023
0,398947,-5.553830623626709,4.370968818664551,16.241008758544922,4.244339942932129
0,398949,2.2424421310424805,-15.62084674835205,21.258609771728516,12.349000930786133
0,398951,-6.634228706359863,-22.29807472229004,-40.02489471435547,-3.913306474685669
0,398953,-0.0899989902973175,7.751935005187988,-10.461112022399902,-19.061946868896484
0,398955,-8.6454439163208,-4.95756721496582,27.0028133392334,-25.096363067626953
0,398957,6.740438938140869,0.21514052152633667,-8.342374801635742,5.778890609741211
0,398959,25.547054290771484,9.245258331298828,-5.795715808868408,19.733272552490234
0,398961,6.934615612030029,0.07533485442399979,28.547225952148438,-4.133023262023926
0,398963,-16.818239212036133,-4.052826881408691,5.037749767303467,37.72130584716797
0,398965,-13.498711585998535,-12.991522789001465,-19.33382797241211,-15.531023025512695
0,398967,12.930682182312012,3.550734043121338,6.539915561676025,-33.749847412109375
0,398969,4.939146518707275,9.957058906555176,-5.9070587158203125,39.97853088378906
0,398971,-23.808164596557617,10.457489013671875,-13.783915519714355,3.615431785583496
0,398973,4.707140922546387,-1.4023934602737427,28.18227195739746,-16.45628547668457
0,398975,9.044028282165527,-15.350963592529297,0.8346481919288635,-13.856461524963379
0,398977,-9.329999923706055,-7.869639873504639,-16.87916374206543,-18.311811447143555
0,398979,9.601476669311523,-1.1898193359375,11.489559173583984,39.30150604248047
0,398981,-3.4082798957824707,4.243980884552002,-5.689999580383301,26.143461227416992
0,398983,-14.155594825744629,12.521550178527832,-5.297680377960205,-44.676124572753906
0,398985,-11.507275581359863,4.721372127532959,-13.074357986450195,-15.016746520996094
0,398987,10.713909149169922,3.245117425918579,10.479619979858398,15.59182357788086
0,398989,12.926443099975586,0.07852110266685486,26.61311149597168,6.566906929016113
0,398991,-5.414860248565674,-7.7058000564575195,-15.896343231201172,5.6935248374938965
0,398993,15.890541076660156,5.460427761077881,-7.840571880340576,5.963135719299316
0,398995,1.0817331075668335,-1.9213714599609375,9.619255065917969,-13.777604103088379
0,398997,-7.701305866241455,1.701385498046875,-3.780905246734619,-24.83966064453125
0,398999,12.04721736907959,11.87197208404541,-19.080167770385742,14.417145729064941
0,399001,-3.340153455734253,-13.125404357910156,-0.8555904626846313,16.463712692260742
0,399003,-8.914848327636719,-18.74774169921875,18.972585678100586,-8.530481338500977
0,399005,-8.322933197021484,-0.3918706476688385,14.482946395874023,-9.302488327026367
0,399007,-8.01657772064209,-3.8545689582824707,-24.209728240966797,-3.2601776123046875
0,399009,22.614469528198242,11.727683067321777,-22.291013717651367,19.856157302856445
0,399011,13.213838577270508,24.144968032836914,33.20415115356445,27.485977172851562
0,399013,-18.818105697631836,6.5634236335754395,4.258841514587402,-7.711035251617432
0,399015,8.612885475158691,-5.433563232421875,-35.36469650268555,-26.673538208007812
0,399017,6.25266170501709,-22.92070960998535,14.379075050354004,-9.976239204406738
0,399019,-19.198848724365234,-3.9891104698181152,25.82227897644043,-10.122432708740234
0,399021,-13.91389274597168,11.830564498901367,-14.679097175598145,10.961872100830078
0,399023,9.20003604888916,-4.085000038146973,7.661633491516113,26.55726432800293
0,399024,22.19341468811035,-1.228580355644226,3.8674697875976562,-4.043951034545898
0,399027,-21.319334030151367,-4.41511869430542,-27.589326858520508,-18.145954132080078
0,399028,-18.7359619140625,-8.290290832519531,8.623953819274902,1.289023756980896
0,399031,23.44060516357422,23.288305282592773,35.315467834472656,22.161712646484375
0,399032,5.395984649658203,-14.29605484008789,0.8424959182739258,-5.784672260284424
0,399035,-14.532259941101074,-32.8469123840332,-42.09184265136719,-13.444001197814941
0,399036,3.815567970275879,40.99444580078125,-13.841564178466797,-3.4403977394104004
0,399039,18.106630325317383,24.843273162841797,44.87035369873047,-8.814831733703613
0,399043,-5.294938087463379,-25.309959411621094,10.207491874694824,10.776209831237793
0,399043,-15.889935493469238,-19.7822265625,-45.51909637451172,-3.634981870651245
0,399045,18.8880558013916,28.03412628173828,-4.498582363128662,-6.744596004486084
0,399046,10.306133270263672,13.311430931091309,40.43380355834961,11.138382911682129
0,399049,-18.64262580871582,-29.645143508911133,-0.3099786043167114,-11.606481552124023
0,399050,-0.20728188753128052,7.96729040145874,-26.26407241821289,29.102415084838867
0,399053,3.828423500061035,1.6239049434661865,-7.415846347808838,13.57597541809082
0,399054,-9.364019393920898,-27.123409271240234,2.4525461196899414,-52.455421447753906
0,399057,-4.299489498138428,14.197945594787598,16.534637451171875,8.219123840332031
0,399058,-3.6547038555145264,34.055294036865234,7.347651481628418,33.66007614135742
0,399061,-9.05530071258545,-20.39341926574707,-21.285444259643555,5.9226765632629395
0,399062,-1.556006908416748,-18.135345458984375,6.702254772186279,-10.801289558410645
0,399065,19.189655303955078,24.41865348815918,16.548927307128906,-23.975496292114258
0,399066,15.664965629577637,-12.410382270812988,-29.107933044433594,4.49017333984375
0,399069,-4.469013690948486,-11.395652770996094,8.361589431762695,17.70863151550293
0,399070,-3.831169366836548,26.291912078857422,32.913673400878906,0.6422799229621887
0,399073,0.4986419081687927,1.8914175033569336,-13.603876113891602,2.7617292404174805
0,399074,3.104184865951538,-20.939926147460938,-1.9259579181671143,-9.135143280029297
0,399077,-6.4206743240356445,-17.648334503173828,-18.50212287902832,-15.902402877807617
0,399078,-0.42749738693237305,10.123417854309082,-22.824745178222656,15.12484073638916
0,399081,31.594566345214844,42.703773498535156,42.79118728637695,14.391395568847656
0,399082,-11.478065490722656,23.43108558654785,24.666229248046875,-16.601472854614258
0,399085,-41.93815612792969,-50.37031936645508,-24.636459350585938,-23.89595603942871
0,399086,7.55335807800293,-32.60356140136719,-14.140499114990234,15.95930290222168
0,399089,21.948123931884766,29.911640167236328,-8.0905179977417,15.18050765991211
0,399090,-1.4707770347595215,-16.881967544555664,-7.898111343383789,-46.76329803466797
0,399093,-12.133526802062988,12.53290843963623,19.81224822998047,7.67581844329834
0,399094,2.278156042098999,22.229082107543945,-1.3262430429458618,40.66135025024414
0,399097,7.770660877227783,-34.246212005615234,-8.886651992797852,-15.95822811126709
0,399098,-8.024922370910645,14.411721229553223,10.341243743896484,5.130709648132324
0,399101,-8.313048362731934,9.188018798828125,0.419772207736969,34.94063949584961
0,399102,15.886473655700684,-10.599247932434082,9.14102840423584,-11.374784469604492
0,399105,11.85686206817627,7.2368550300598145,4.199779033660889,-32.443790435791016
0,399106,-21.7620792388916,2.6501047611236572,-14.59665584564209,14.352194786071777
0,399109,-6.899440765380859,0.4548061192035675,-19.669437408447266,-11.908288955688477
0,399110,14.703001976013184,-22.08842658996582,21.143428802490234,10.753385543823242
0,399113,6.328760623931885,7.948018550872803,26.629671096801758,12.930649757385254
0,399114,-6.476224422454834,29.968406677246094,-21.112024307250977,-32.38960647583008
0,399117,-17.127897262573242,-27.52589225769043,-19.951831817626953,28.572608947753906
0,399118,18.578332901000977,-14.410412788391113,-0.9193569421768188,-7.9374213218688965
0,399121,25.635387420654297,35.88085174560547,25.81793975830078,-9.574251174926758
0,399122,-13.923015594482422,-3.6661629676818848,15.886228561401367,37.769309997558594
0,399125,-22.787612915039062,-16.425098419189453,-31.29113006591797,-34.538448333740234
0,399126,-4.090027332305908,2.9951117038726807,-16.136260986328125,-60.947906494140625
0,399129,21.868141174316406,0.48659661412239075,25.796585083007812,27.405841827392578
0,399130,-0.11022520810365677,6.335793972015381,9.993414878845215,77.09585571289062
0,399133,-33.56278610229492,-19.549470901489258,-29.93033218383789,-21.460447311401367
0,399134,17.349721908569336,-0.4332447946071625,-0.7694017887115479,-45.78035354614258
0,399137,33.21846389770508,32.1387939453125,38.884944915771484,38.56342697143555
0,399138,-11.518643379211426,-10.089619636535645,-9.886051177978516,12.22545337677002
0,399141,-17.378250122070312,-31.95401954650879,-26.117813110351562,-33.762245178222656
0,399142,-15.237603187561035,-5.39897346496582,10.900534629821777,5.713921546936035
0,399145,17.155902862548828,36.02009582519531,11.77987289428711,13.143961906433105
0,399146,30.120983123779297,13.046223640441895,-10.28636646270752,-20.045635223388672
0,399149,-16.51235580444336,-31.71641731262207,-19.7545108795166,-1.739240288734436
0,399150,-25.152578353881836,16.47840690612793,17.289974212646484,22.69651985168457
0,399153,-3.4613394737243652,1.8871257305145264,5.688440799713135,-24.010639190673828
0,399154,-9.148902893066406,-28.358036041259766,-0.16439512372016907,-29.564239501953125
0,399157,12.20118522644043,18.862808227539062,11.357162475585938,23.55846405029297
0,399158,14.395195007324219,9.228840827941895,-19.986764907836914,26.826290130615234
0,399161,-24.92001724243164,-0.16058585047721863,-3.566368579864502,14.747811317443848
0,399162,20.08946990966797,2.8237144947052,4.010025501251221,-3.0900051593780518
0,399165,21.75977897644043,-20.315919876098633,-1.583763837814331,-12.153947830200195
0,399166,-23.164899826049805,14.297870635986328,11.345860481262207,4.8961358070373535
0,399169,11.508984565734863,31.00090980529785,19.278121948242188,9.961840629577637
0,399170,12.235697746276855,-18.45046615600586,-4.021112442016602,-23.420154571533203
0,399173,-13.084763526916504,-29.183732986450195,-34.37260055541992,-23.440759658813477
0,399174,-13.59675121307373,1.0737124681472778,12.47461223602295,20.12856101989746
0,399177,0.9345981478691101,8.040818214416504,20.096681594848633,7.623816967010498
0,399178,6.768208026885986,-9.980405807495117,-23.940284729003906,12.497076988220215
0,399181,13.079008102416992,18.595748901367188,4.385473728179932,-5.862943172454834
0,399182,-7.373680114746094,6.174681186676025,2.116042375564575,-47.676334381103516
0,399185,-6.205346584320068,-13.383737564086914,-13.412137985229492,12.267420768737793
0,399186,23.407512664794922,15.96078872680664,13.738638877868652,28.25087547302246
0,399189,-34.63320541381836,-27.348005294799805,-12.1614990234375,0.1861722469329834
0,399190,-8.955798149108887,-26.018735885620117,-9.703102111816406,8.326061248779297
0,399193,41.45248794555664,57.11976623535156,39.0946159362793,-9.620782852172852
0,399194,-13.659996032714844,22.336021423339844,0.6593808531761169,-25.110729217529297
0,399197,-13.966980934143066,-39.29177474975586,-21.775232315063477,23.807851791381836
0,399198,9.407732009887695,13.479923248291016,9.624824523925781,38.63248825073242
0,399201,-18.466594696044922,-10.713430404663086,-19.226091384887695,-22.317424774169922
0,399202,-11.517339706420898,-33.637306213378906,-15.11394214630127,-20.916751861572266
0,399205,28.149600982666016,23.65460205078125,24.685945510864258,-10.217085838317871
0,399206,12.566636085510254,9.69066047668457,15.73292350769043,-0.5425315499305725
0,399209,-21.634782791137695,-4.35874080657959,-2.3904263973236084,24.16921615600586
0,399210,-6.65270471572876,4.469613075256348,-8.694450378417969,0.09499265998601913
0,399213,22.51588249206543,-11.176074028015137,-4.247185707092285,-13.444209098815918
0,399214,12.057363510131836,13.320097923278809,-8.236013412475586,-21.628000259399414
0,399217,-5.741894721984863,20.011587142944336,-1.1697361469268799,12.533305168151855
0,399218,-8.67358684539795,-13.871586799621582,14.639917373657227,23.035120010375977
0,399221,-4.99472188949585,-24.185060501098633,7.991671085357666,-14.7787446975708
0,399222,-6.585846424102783,-7.830164909362793,-4.961311340332031,37.77536392211914
0,399225,1.028419017791748,13.451876640319824,-15.50772476196289,-4.122450351715088
0,399226,3.7640926837921143,-5.508020401000977,-10.480271339416504,-63.36249542236328
0,399229,1.258784532546997,28.756027221679688,18.818056106567383,23.417640686035156
0,399230,-2.2455387115478516,22.298023223876953,14.122612953186035,30.09951400756836
0,399233,-10.801648139953613,-53.87987518310547,-13.667675018310547,-7.324185848236084
0,399234,4.9542412757873535,-4.044351100921631,11.845653533935547,-5.30450439453125
0,399237,-0.22389289736747742,35.31907653808594,2.498166561126709,-23.134998321533203
0,399238,17.764636993408203,-11.663331031799316,-18.0128173828125,-1.5834400653839111
0,399241,22.115114212036133,-5.514969825744629,25.49980926513672,22.28182029724121
0,399242,-25.03243637084961,1.4498894214630127,17.511789321899414,-3.278991460800171
0,399245,-16.693592071533203,7.600220680236816,-34.261714935302734,-17.7481689453125
0,399246,10.260642051696777,13.216386795043945,-28.378623962402344,4.916009902954102
0,399249,0.12446451932191849,-40.03721618652344,1.8769900798797607,27.842769622802734
0,399250,-4.367567539215088,-16.97207260131836,15.480332374572754,5.219378471374512
0,399253,1.984224796295166,34.93587112426758,13.686195373535156,-13.750739097595215
0,399254,2.058880090713501,8.637883186340332,-5.933136940002441,-8.362570762634277
0,399257,5.731000900268555,0.9985592365264893,-9.263511657714844,-4.770981311798096
0,399258,5.679969310760498,8.988603591918945,5.15252685546875,-7.82151460647583
0,399261,-9.992086410522461,-16.421646118164062,-7.776177883148193,17.9940128326416
0,399262,-22.95987319946289,-22.958932876586914,11.336368560791016,22.340585708618164
0,399265,22.43964958190918,17.800981521606445,30.858745574951172,-39.44802474975586
0,399266,16.752622604370117,27.51813316345215,-20.71337890625,0.5515554547309875
0,399269,-19.840267181396484,-12.238652229309082,-13.056473731994629,41.37639236450195
0,399270,16.05173110961914,-11.743192672729492,8.606995582580566,-27.27708625793457
0,399273,-10.624059677124023,-4.285061359405518,-15.315948486328125,-22.988359451293945
0,399274,-25.068115234375,2.362579345703125,-0.7289790511131287,22.418346405029297
0,399277,14.450923919677734,11.773815155029297,24.320655822753906,10.183361053466797
0,399278,9.025947570800781,-13.3389892578125,-22.322612762451172,-9.954168319702148
0,399281,-5.6274542808532715,-8.72059154510498,-28.344234466552734,-1.8416181802749634
0,399282,-0.9326298236846924,8.952531814575195,37.94580841064453,-9.374935150146484
0,399285,13.844619750976562,19.829578399658203,14.207438468933105,-4.675975322723389
0,399287,4.159827709197998,9.982254028320312,-23.751955032348633,5.3308939933776855
0,399289,-11.94964599609375,-13.606734275817871,14.823770523071289,12.946112632751465
0,399291,1.9592772722244263,-3.6306192874908447,30.940410614013672,24.607126235961914
0,399293,-8.1422758102417,-2.890373706817627,-33.16075134277344,-19.806747436523438
0,399295,-3.5761611461639404,-33.471805572509766,-37.186012268066406,-38.52656936645508
0,399297,27.28241729736328,14.248373985290527,17.284542083740234,5.179457664489746
0,399299,-11.462823867797852,45.19326400756836,19.679237365722656,35.905479431152344
0,399301,-19.379573822021484,-39.324100494384766,-7.279116153717041,-5.911599159240723
0,399303,8.922765731811523,-23.7395076751709,-17.206539154052734,-22.502010345458984
0,399304,-5.925572395324707,34.086273193359375,22.789180755615234,5.971304893493652
0,399308,-0.14993904531002045,4.447967052459717,4.403765678405762,-11.352110862731934
0,399308,14.905991554260254,-14.975105285644531,-28.01289939880371,-0.09820389747619629
0,399311,-14.900566101074219,-15.27725601196289,13.682212829589844,17.4859676361084
0,399312,4.172287940979004,33.360206604003906,25.885068893432617,37.71634292602539
0,399315,21.985868453979492,19.31825065612793,-9.774667739868164,-4.1736602783203125
0,399316,-14.915984153747559,-41.01060485839844,-12.227595329284668,-50.21182632446289
0,399319,-6.508457660675049,2.363187313079834,21.235292434692383,34.26232147216797
0,399320,-2.3241379261016846,18.9285831451416,8.807063102722168,19.737409591674805
0,399323,0.8865583539009094,3.3133704662323,-29.545473098754883,-41.8973274230957
0,399324,-0.89969402551651,-28.54202651977539,-20.46417999267578,-21.683486938476562
0,399327,9.786957740783691,-11.267769813537598,26.79129981994629,27.423856735229492
0,399328,21.60074806213379,53.30091094970703,6.939396381378174,29.733116149902344
0,399331,-0.3112812340259552,13.7830810546875,-19.610477447509766,-2.376222848892212
0,399332,-9.20017147064209,-38.71072769165039,9.651310920715332,-7.7783684730529785
0,399335,-17.920053482055664,-9.023380279541016,0.3484586775302887,-26.775362014770508
0,399336,-10.671890258789062,6.929558753967285,-26.126461029052734,-3.6807241439819336
0,399339,16.148468017578125,3.6589531898498535,24.25728988647461,17.048471450805664
0,399340,8.70482349395752,10.486098289489746,31.124874114990234,3.624875068664551
0,399343,-13.743632316589355,-13.181192398071289,-37.22716522216797,3.1065969467163086
0,399344,-0.813886821269989,-25.300003051757812,-6.747260093688965,-7.953964710235596
0,399347,-9.943212509155273,-3.543227434158325,15.823760032653809,-16.587947845458984
0,399348,-10.074248313903809,10.716896057128906,-15.710286140441895,4.328050136566162
0,399351,19.911270141601562,9.00241756439209,-4.811962604522705,22.85608673095703
0,399352,-3.777449131011963,13.473041534423828,32.55457305908203,17.39838981628418
0,399355,-11.95909309387207,7.762166976928711,3.7764086723327637,-42.331138610839844
0,399356,20.300275802612305,-8.464910507202148,-19.559534072875977,-28.785938262939453
0,399359,14.756155014038086,-1.7083306312561035,15.0033540725708,55.13161087036133
0,399360,-5.125008583068848,8.26667308807373,3.6237330436706543,12.807328224182129
0,399363,8.863450050354004,4.284119129180908,-3.4872026443481445,-22.364587783813477
0,399364,1.2702505588531494,-1.4574623107910156,-13.541629791259766,7.548466682434082
0,399367,-29.043968200683594,-14.581780433654785,-11.321551322937012,-16.328733444213867
0,399368,0.9580753445625305,7.180084705352783,18.47203826904297,5.164947986602783
0,399371,25.493980407714844,13.268911361694336,2.8068032264709473,22.862817764282227
0,399372,-7.213200569152832,-33.3088493347168,-9.130782127380371,-18.503803253173828
0,399375,-31.208820343017578,-14.344808578491211,5.934331893920898,-35.89384841918945
0,399376,-8.294839859008789,31.971147537231445,-1.2843142747879028,0.5495083332061768
0,399379,22.768585205078125,7.221410751342773,-12.170591354370117,48.039520263671875
0,399380,3.7928953170776367,-14.125999450683594,-7.479642391204834,7.209738731384277
0,399383,-2.59108567237854,9.349776268005371,-3.9858694076538086,-32.40974426269531
0,399384,11.648120880126953,9.091090202331543,15.899209976196289,-18.901899337768555
0,399387,5.519388198852539,-5.0895562171936035,14.954344749450684,27.470529556274414
0,399388,-14.425909042358398,-20.063608169555664,-8.461459159851074,8.158130645751953
0,399391,-21.435562133789062,4.394031524658203,-22.03426170349121,-33.28782653808594
0,399392,17.892379760742188,11.076492309570312,-3.0277884006500244,11.075058937072754
0,399395,19.93653106689453,-17.0451717376709,29.893375396728516,15.221588134765625
0,399396,-13.339035987854004,16.785024642944336,11.072564125061035,1.4114353656768799
0,399399,3.880704879760742,-6.362682819366455,-6.467742443084717,14.444839477539062
0,399400,13.707905769348145,-22.37838363647461,-14.921603202819824,1.8530817031860352
0,399403,-8.730796813964844,17.20522117614746,-15.31977367401123,-22.449886322021484
0,399404,-9.701404571533203,6.18178129196167,14.88874626159668,-24.809782028198242
0,399407,-13.174346923828125,2.9069809913635254,14.702486038208008,19.211885452270508
0,399408,-0.04739012569189072,16.95150375366211,-1.2149604558944702,28.218101501464844
0,399411,19.421812057495117,-5.5577898025512695,-1.9135773181915283,-14.160752296447754
0,399412,2.472505807876587,-15.217530250549316,-26.222318649291992,9.94674015045166
0,399415,-10.898848533630371,-2.1042656898498535,-9.041302680969238,7.301220893859863
0,399416,-10.145139694213867,-7.5764055252075195,21.375240325927734,-22.869693756103516
0,399419,10.159297943115234,22.32366371154785,10.10021686553955,-0.569766640663147
0,399420,14.370718002319336,0.1748255342245102,15.579421043395996,9.55173110961914
0,399423,-13.91348648071289,-30.62877082824707,-15.1361665725708,-12.262447357177734
0,399424,-11.550017356872559,23.10878562927246,-23.383697509765625,-16.943151473999023
0,399427,18.271026611328125,15.927919387817383,27.957889556884766,14.722333908081055
0,399428,18.269269943237305,-14.771360397338867,3.8684113025665283,4.523003101348877
0,399431,-6.74222993850708,6.681758403778076,-18.475147247314453,11.83767032623291
0,399432,-16.282527923583984,-1.4289875030517578,10.89742660522461,-1.8712579011917114
0,399435,0.40513932704925537,-25.107646942138672,-3.5976362228393555,-55.9313850402832
0,399436,-1.3645747900009155,9.333564758300781,-19.625530242919922,15.673404693603516
0,399439,-20.000303268432617,-3.6627392768859863,-19.10060691833496,44.6157112121582
0,399440,22.825607299804688,-4.502625942230225,21.285390853881836,8.176067352294922
0,399443,10.09846305847168,43.67013931274414,28.93537139892578,7.376470565795898
0,399444,-31.578380584716797,-15.93891716003418,-17.263853073120117,-22.30023956298828
0,399447,10.0177583694458,-20.816801071166992,-4.91035270690918,-14.589102745056152
0,399448,1.8108329772949219,14.350296974182129,-2.6123969554901123,6.928587913513184
0,399451,7.00607967376709,-16.291114807128906,13.763075828552246,17.581470489501953
0,399452,12.038413047790527,2.8550238609313965,28.318031311035156,-10.61777114868164
0,399455,-27.789657592773438,10.77861213684082,-26.08086585998535,-12.42686653137207
0,399456,6.378657817840576,-17.707805633544922,-27.08411407470703,14.143013954162598
0,399459,28.010469436645508,-1.519258737564087,37.35615158081055,-14.753507614135742
0,399460,-8.066967010498047,30.41903305053711,13.91462230682373,-11.10331916809082
0,399463,-17.310850143432617,-13.719987869262695,-42.82984161376953,16.39649772644043
0,399464,6.209263324737549,-18.955368041992188,-3.3767645359039307,-4.062175750732422
0,399467,8.321730613708496,27.9654541015625,20.340782165527344,1.5579748153686523
0,399468,-8.271100044250488,-17.481731414794922,-5.71223783493042,16.452001571655273
0,399471,4.881031513214111,-21.272478103637695,-9.130921363830566,-24.366201400756836
0,399472,18.32830047607422,40.1688232421875,13.09705638885498,-1.1377238035202026
0,399475,-27.461257934570312,6.748777389526367,5.890067100524902,7.182279586791992
0,399476,-12.416227340698242,-16.427692413330078,-8.162291526794434,3.5920474529266357
0,399479,37.779327392578125,7.866637229919434,8.416348457336426,28.4039249420166
0,399480,-11.404879570007324,-20.545442581176758,-7.874425888061523,-9.32483959197998
0,399483,-24.831369400024414,-8.739185333251953,-12.094124794006348,-20.61720085144043
0,399484,-0.41741058230400085,22.48031997680664,17.993844985961914,14.776496887207031
0,399487,13.12537956237793,7.133808612823486,7.761446475982666,-0.8197092413902283
0,399488,7.629343032836914,-21.80425453186035,-36.59473419189453,-30.074525833129883
0,399491,-6.525247097015381,-19.417415618896484,0.8161009550094604,6.721000671386719
0,399492,6.607093811035156,36.00135803222656,28.183204650878906,32.4306755065918
0,399495,-1.7780412435531616,12.463618278503418,0.19314312934875488,2.8401947021484375
0,399496,-4.618639945983887,-27.351579666137695,6.514469146728516,-44.79169845581055
0,399499,-1.0587064027786255,17.670394897460938,-18.662845611572266,-22.17643928527832
0,399500,-7.860702037811279,1.8656806945800781,-13.0637788772583,47.755828857421875
0,399503,10.1984281539917,-8.966458320617676,9.805641174316406,22.224693298339844
0,399504,15.217954635620117,7.532871723175049,16.330472946166992,-23.839111328125
0,399507,-19.787105560302734,-6.547364234924316,5.784190654754639,0.624820351600647
0,399508,3.1086676120758057,-10.233847618103027,-15.96546459197998,12.190950393676758
0,399511,25.694047927856445,12.973714828491211,12.59199333190918,8.262495040893555
0,399512,-24.478063583374023,10.34958267211914,-8.391139030456543,-13.270453453063965
0,399515,-9.106178283691406,-29.600120544433594,-15.72874927520752,-29.58425521850586
0,399516,21.178672790527344,-6.057784557342529,34.46392059326172,16.03897476196289
0,399519,-7.061335563659668,27.147096633911133,-11.470992088317871,30.036725997924805
0,399521,6.59196662902832,-4.108874320983887,-36.603851318359375,-10.12658977508545
0,399523,-11.93917465209961,-19.766122817993164,27.7531795501709,-5.3957977294921875
0,399525,-28.877994537353516,19.12438201904297,15.54885482788086,-4.63066291809082
0,399527,25.53685188293457,-0.13362745940685272,-20.136381149291992,-13.098790168762207
0,399529,7.17771577835083,-12.445233345031738,14.734674453735352,13.057097434997559
0,399531,-2.8402774333953857,30.857141494750977,8.610334396362305,5.684967994689941
0,399533,1.5465880632400513,25.838056564331055,-19.01118278503418,-3.895012855529785
0,399535,-21.09299659729004,-29.47479820251465,-9.78210163116455,33.63164138793945
0,399537,20.737760543823242,-28.006189346313477,-3.8426673412323,-49.401878356933594
0,399539,28.385223388671875,17.279176712036133,25.329442977905273,-60.44878387451172
0,399541,-19.324033737182617,0.4295714497566223,4.282601833343506,69.49588775634766
1,399543,-20.62822723388672,-10.374346733093262,-33.8641357421875,-3.1590898036956787
1,399545,13.833820343017578,-11.423074722290039,-8.219143867492676,-17.898651123046875
1,399546,-8.13142204284668,-18.136646270751953,18.185583114624023,19.4377384185791
1,399549,-18.039627075195312,2.0651779174804688,10.422141075134277,-10.44101619720459
1,399550,12.72260570526123,33.176116943359375,9.35331916809082,19.020784378051758
1,399553,-1.4109480381011963,17.340295791625977,8.69663143157959,7.13645076751709
1,399554,11.512907981872559,-24.735570907592773,-36.816246032714844,-10.397327423095703
1,399557,-16.128503799438477,20.966297149658203,2.6602020263671875,-2.0171568393707275
1,399558,-3.7475736141204834,0.4525323808193207,12.500286102294922,-3.7132318019866943
1,399561,44.0798225402832,-46.93320083618164,-20.928258895874023,-6.621184349060059
1,399562,-10.338160514831543,34.09700012207031,28.242082595825195,-2.5552921295166016
1,399565,-9.268733024597168,16.266433715820312,15.957737922668457,-3.8297414779663086
1,399566,8.786078453063965,-20.27854347229004,-14.663392066955566,18.607942581176758
1,399570,2.649444580078125,0.5499694347381592,-6.0325398445129395,30.466867446899414
1,399571,-12.708721160888672,-9.1116943359375,2.0697712898254395,-13.491682052612305
1,399572,-8.920204162597656,-17.350305557250977,-1.1234596967697144,-17.828275680541992
1,399575,21.763118743896484,4.235151290893555,-5.3807783126831055,-1.9513314962387085
1,399576,3.3934404850006104,38.170597076416016,7.94571590423584,3.0582773685455322
1,399579,-20.648977279663086,-8.168355941772461,-5.1619977951049805,6.091329097747803
1,399580,-5.946313381195068,-5.356381893157959,3.5580344200134277,-3.723675012588501
1,399835,14.035346031188965,23.55588150024414,18.624465942382812,-23.415246963500977
1,399838,6.536472320556641,-26.964000701904297,-15.840134620666504,-27.02852439880371
1,399839,-9.333169937133789,-19.93111228942871,-25.29547119140625,41.18056869506836
1,399842,-16.184791564941406,19.498191833496094,-23.467920303344727,32.97392654418945
1,399843,12.564004898071289,15.559164047241211,12.976439476013184,-27.80116081237793
1,399846,6.182850360870361,-19.14026641845703,48.45729446411133,-7.790671348571777
1,400523,-16.210617065429688,-18.182777404785156,-13.338913917541504,-6.715824127197266
1,400525,19.544498443603516,25.736604690551758,-23.33146858215332,1.1312516927719116
1,400526,-15.588916778564453,15.357532501220703,19.592849731445312,24.28925132751465
1,400529,-35.517852783203125,-6.452768802642822,9.169830322265625,-13.401823997497559
1,400530,19.760574340820312,-13.185996055603027,-4.345362663269043,6.144323825836182
1,400533,18.24083709716797,-11.281912803649902,-13.380170822143555,1.607214093208313
1,400534,6.289511680603027,-2.0636301040649414,1.8045644760131836,-53.810943603515625
1,400537,20.51238250732422,21.572799682617188,17.856666564941406,25.761035919189453
1,400538,-5.763297080993652,9.69360065460205,-0.06732387840747833,55.218650817871094
1,400541,-21.54808235168457,-17.47150421142578,-17.625322341918945,-13.275041580200195
1,400542,-0.2886449694633484,4.617621898651123,-9.01012134552002,-8.859950065612793
1,400545,0.10071651637554169,-8.312137603759766,-3.301048517227173,5.973434925079346
1,400546,6.750494480133057,-5.826916217803955,17.217906951904297,-17.511859893798828
1,400549,6.361991882324219,18.53366470336914,19.643884658813477,-11.252180099487305
1,400550,-1.7679444551467896,-2.1620900630950928,-9.873337745666504,9.016098976135254
1,400553,-14.259062767028809,-7.0241217613220215,-13.319904327392578,-2.0473430156707764
1,400554,-6.815425872802734,15.146105766296387,-2.2443344593048096,-14.798893928527832
1,400557,20.127687454223633,9.22206974029541,14.453432083129883,15.297433853149414
1,400558,-0.2866840958595276,-16.82701301574707,-2.441258192062378,20.325538635253906
1,400561,-12.755509376525879,-21.592575073242188,-11.269612312316895,-20.25509262084961
1,400562,-2.609903573989868,-13.788512229919434,-5.655174732208252,-11.714649200439453
1,400565,-7.226940155029297,8.69980525970459,-2.74021053314209,1.1902210712432861
1,400566,25.6364688873291,23.415145874023438,1.2928613424301147,20.83794403076172
1,400569,-14.244227409362793,10.65530776977539,21.992965698242188,31.768693923950195
1,400570,-21.234010696411133,-3.1054513454437256,0.20897898077964783,-19.005130767822266
1,400573,49.40074920654297,-17.060779571533203,-28.45342254638672,-26.27045249938965
1,400574,-17.48843002319336,15.62812614440918,36.226261138916016,-1.1948578357696533
1,400577,-23.047731399536133,27.393091201782227,-0.7552856802940369,2.9422149658203125
1,400578,37.110660552978516,-17.33249282836914,-24.40081024169922,23.47706413269043
1,400581,-1.5260627269744873,-31.984617233276367,14.929597854614258,-9.634682655334473
1,400582,-28.266307830810547,-9.167205810546875,-13.013038635253906,-32.84733200073242
1,400585,2.187912702560425,20.79714012145996,4.023617267608643,16.627458572387695
1,400586,17.347949981689453,7.980162143707275,-6.38874626159668,7.74448299407959
1,400589,-7.279045104980469,-13.967029571533203,-4.46985387802124,8.280076026916504
1,400590,0.5159325003623962,-4.672257423400879,23.907108306884766,18.8527889251709
1,400592,19.305660247802734,1.4408570528030396,-22.584508895874023,-49.76982498168945
1,400595,-20.32921028137207,1.2105138301849365,-4.423633575439453,-18.941884994506836
1,400596,-11.226822853088379,6.443849563598633,28.903844833374023,38.704254150390625
1,400599,10.80997371673584,16.425800323486328,-22.914880752563477,8.859726905822754
1,400600,-6.712538719177246,-8.794533729553223,-10.848502159118652,12.763733863830566
1,400603,16.687774658203125,-16.853721618652344,37.22218704223633,6.2150959968566895
1,400604,0.028259294107556343,19.720211029052734,6.579512596130371,-19.81256675720215
1,400607,-25.95395278930664,-2.0694589614868164,-13.70003604888916,-19.79843521118164
1,400608,12.342607498168945,-10.512093544006348,-4.5440568923950195,-1.6503121852874756
1,400611,10.444585800170898,17.539705276489258,-13.87143611907959,16.7117862701416
1,400612,-23.324007034301758,-7.238996505737305,-13.883973121643066,-7.674104690551758
1,400615,-8.739287376403809,-14.102677345275879,18.022518157958984,-8.70452880859375
1,400616,19.88728904724121,7.410086631774902,27.990234375,29.861047744750977
1,400619,14.9252290725708,20.568540573120117,-21.60401725769043,2.9410016536712646
1,400620,-4.62068510055542,-5.272541046142578,-14.476949691772461,-8.537879943847656
1,400623,-9.538732528686523,-37.34479904174805,-0.9065651893615723,-13.825467109680176
1,400624,-14.158076286315918,19.992807388305664,6.5015106201171875,-34.23855209350586
1,400627,16.083791732788086,12.592717170715332,21.07901382446289,11.967628479003906
1,400628,5.5602922439575195,-24.255659103393555,-28.59499168395996,34.17957305908203
1,400631,-11.787481307983398,7.426910400390625,2.636728286743164,10.132210731506348
1,400632,12.929971694946289,9.552417755126953,31.122589111328125,-14.55757999420166
1,400635,-7.535175800323486,0.9190293550491333,-11.41841983795166,-9.203568458557129
1,400636,9.086015701293945,-11.663076400756836,0.38634437322616577,26.494277954101562
1,400639,9.882610321044922,17.93733787536621,-13.132891654968262,3.6764276027679443
1,400640,-20.824344635009766,16.354251861572266,-13.845537185668945,-30.30394744873047
1,400643,1.6127833127975464,-21.417814254760742,25.654855728149414,-4.137248992919922
1,400644,15.293931007385254,-17.910402297973633,8.34653091430664,2.3867380619049072
1,400647,-13.760664939880371,-1.6775829792022705,-18.06754493713379,29.413105010986328
