Aktueller Finger,timestamp_ms,sensor_0,sensor_1,sensor_2,sensor_3
0,820041,72.12126159667969,-2.280319929122925,-31.08685874938965,134.623291015625
0,820041,269.7059020996094,21.203609466552734,-21.869686126708984,243.72756958007812
0,820043,167.19464111328125,34.4929313659668,-8.109731674194336,294.65655517578125
0,820045,-242.70458984375,-6.743859767913818,22.793886184692383,-250.5273895263672
0,820047,-43.566490173339844,14.465469360351562,38.60116195678711,-110.78111267089844
0,820049,303.4225158691406,43.79620361328125,-12.34637451171875,407.3429260253906
0,820051,-36.93033981323242,-18.313770294189453,-9.863332748413086,-10.932845115661621
0,820053,-162.70989990234375,-35.1961784362793,-1.695081114768982,-336.7228698730469
0,820055,-90.5086441040039,3.5620436668395996,-4.817417621612549,-179.56707763671875
0,820057,-22.566740036010742,3.875821113586426,-0.48753973841667175,232.5283203125
0,820059,365.2942199707031,44.40604019165039,-10.98951530456543,578.9161987304688
0,820314,-314.4686279296875,-70.33025360107422,16.72266960144043,-536.986083984375
0,820316,-435.2513732910156,-78.19676208496094,34.90286636352539,-613.2330932617188
0,820318,749.0857543945312,172.0198974609375,17.12189292907715,927.5851440429688
0,820320,350.984619140625,44.37386703491211,-72.25653839111328,372.8834228515625
0,820323,-285.5946350097656,-90.95006561279297,-74.0108413696289,-491.2926940917969
0,1115868,-219.11016845703125,1.3638827800750732,65.00921630859375,-365.674560546875
0,1115869,-411.86016845703125,-53.85538101196289,38.635093688964844,-472.90460205078125
0,1115870,-290.57855224609375,-105.4537124633789,-14.158374786376953,-98.34432983398438
0,1115873,-1.16806161403656,-7.736528396606445,16.054405212402344,186.72457885742188
0,1115874,107.94384765625,81.42823791503906,-2.781015396118164,77.9470443725586
0,1115877,175.24432373046875,39.55483627319336,-10.319701194763184,187.92263793945312
0,1115878,313.39447021484375,35.455116271972656,-20.300382614135742,330.2179260253906
0,1115881,316.5704345703125,47.475982666015625,3.844426393508911,325.2549743652344
0,1115882,72.71696472167969,-2.409304141998291,42.81492614746094,121.69377899169922
0,1115885,-91.92655944824219,-0.8659037947654724,5.363641262054443,-208.65841674804688
0,1115886,-175.65809631347656,-20.364206314086914,-27.064863204956055,-377.18939208984375
0,1115889,-301.6528625488281,-87.44740295410156,-27.666780471801758,-234.0820770263672
0,1115890,-151.71719360351562,-30.69314193725586,-11.844691276550293,-43.431922912597656
0,1115893,35.4683837890625,19.391164779663086,20.379310607910156,49.182701110839844
0,1115894,13.20971965789795,11.306172370910645,0.5538109540939331,54.26581573486328
0,1115897,84.47018432617188,13.329814910888672,-6.148370265960693,78.27029418945312
0,1115898,213.93670654296875,10.03947925567627,14.26949691772461,151.145263671875
0,1115901,167.51039123535156,38.61745071411133,24.319732666015625,192.01145935058594
0,1115902,20.637859344482422,30.066181182861328,26.550273895263672,114.35042572021484
0,1115905,-39.51283645629883,-19.07282257080078,-20.62256622314453,-102.98272705078125
0,1115906,-114.47610473632812,-38.649391174316406,-52.66221618652344,-258.9591979980469
0,1115909,-172.91015625,2.3025341033935547,1.7286518812179565,-172.75840759277344
0,1115910,-92.9690170288086,4.532916069030762,24.759233474731445,73.51839447021484
0,1115913,8.346413612365723,-23.882535934448242,-4.3081536293029785,-17.68365478515625
0,1115914,39.10271453857422,-19.71405029296875,16.1706485748291,-80.38771057128906
0,1115984,40.53791427612305,42.3636474609375,16.566162109375,42.28704833984375
0,1115985,3.3658199310302734,-25.76365089416504,16.109819412231445,28.840137481689453
0,1115987,-107.00326538085938,-16.05329704284668,-24.669721603393555,-196.85040283203125
0,1115989,-81.2066650390625,13.977551460266113,-24.000259399414062,-73.37190246582031
0,1115991,52.21765899658203,-32.218727111816406,6.972142219543457,111.34258270263672
0,1115993,76.51551055908203,8.355629920959473,13.285001754760742,112.03439331054688
0,1115995,-73.22675323486328,30.170154571533203,16.352584838867188,-159.63540649414062
0,1115997,-74.9767837524414,-13.895953178405762,3.897796630859375,-148.1693878173828
0,1115999,101.24137115478516,5.821379661560059,-7.64449405670166,236.33909606933594
0,1116001,71.00528717041016,11.795090675354004,-4.442967891693115,111.6502914428711
0,1116003,-28.63723373413086,4.2869110107421875,9.283291816711426,-34.58296203613281
0,1116005,-4.861781120300293,12.299311637878418,13.096209526062012,-11.005202293395996
0,1116007,-16.41653060913086,-42.18716812133789,-2.819234848022461,-142.60484313964844
0,1116009,-66.07567596435547,-39.03556442260742,-18.328704833984375,-54.814857482910156
0,1116011,48.486534118652344,63.627769470214844,-13.800192832946777,154.33641052246094
0,1116013,110.57239532470703,36.988399505615234,14.375381469726562,70.38102722167969
0,1116015,-132.98117065429688,-72.51972198486328,-7.647161960601807,-250.7635040283203
0,1116017,-108.27465057373047,-16.978370666503906,-8.970043182373047,-69.29947662353516
0,1116019,122.79376983642578,58.050846099853516,19.163108825683594,320.70465087890625
0,1116021,67.22783660888672,3.67755126953125,8.263916015625,31.717790603637695
0,1116023,-13.130133628845215,-9.733302116394043,1.7976796627044678,-118.09323120117188
0,1116025,-19.824113845825195,12.930875778198242,14.678569793701172,48.92631149291992
0,1116027,-43.16197967529297,-18.30936050415039,-6.559685230255127,-131.01177978515625
0,1116029,-32.193702697753906,-17.359676361083984,-31.01358413696289,-92.57342529296875
0,1116031,76.02680206298828,10.92890453338623,23.121858596801758,180.5531005859375
0,1116033,75.44212341308594,-0.08176100254058838,-1.7482531070709229,76.13695526123047
0,1116035,-135.43995666503906,-16.15646743774414,-23.938922882080078,-165.17735290527344
0,1116037,-94.22557067871094,9.48531436920166,19.94999122619629,-40.81196594238281
0,1116039,130.64773559570312,16.747161865234375,17.884389877319336,164.01039123535156
0,1116041,59.7482795715332,-13.128267288208008,-20.62394905090332,39.203495025634766
0,1116043,-25.69319725036621,13.2240629196167,-48.50879669189453,-106.8198013305664
0,1116045,-15.03493881225586,-9.463252067565918,22.992107391357422,-36.60108947753906
0,1116047,-24.051380157470703,-23.99025535583496,45.27885437011719,105.31571197509766
0,1116049,-35.31565475463867,48.96251678466797,-24.899747848510742,-3.4513680934906006
0,1116051,57.87922286987305,-4.3678975105285645,-8.837773323059082,-178.9219512939453
0,1116053,98.30418395996094,-52.54450225830078,12.257545471191406,20.760589599609375
0,1116055,-156.63739013671875,-4.981100559234619,-1.1790456771850586,103.98994445800781
0,1116057,-90.26925659179688,30.726627349853516,10.078237533569336,-37.085384368896484
0,1116059,146.40103149414062,55.6444206237793,14.524269104003906,69.98155975341797
0,1116061,50.830501556396484,-4.242831707000732,4.410712242126465,73.93048095703125
0,1116062,-61.790916442871094,-54.746337890625,-29.7126407623291,-153.64927673339844
0,1116065,5.155093193054199,-4.905268669128418,8.917954444885254,-28.93621253967285
0,1116067,5.376927375793457,24.763734817504883,7.207862854003906,124.02771759033203
0,1116069,-42.243778228759766,9.044023513793945,-38.14369583129883,-43.31562805175781
0,1116071,44.41556930541992,-2.065505027770996,16.452911376953125,9.91215991973877
0,1116073,-12.483501434326172,-9.757814407348633,-0.37223100662231445,15.788975715637207
0,1116075,-41.13877868652344,-27.070201873779297,-19.14201545715332,-88.71715545654297
0,1116077,8.511579513549805,1.5657453536987305,30.735008239746094,-1.2598038911819458
0,1116079,5.490164279937744,7.418001174926758,22.755273818969727,44.969757080078125
0,1116081,50.684932708740234,-11.954739570617676,-5.447605133056641,71.47280883789062
0,1116083,-1.3545453548431396,30.04271125793457,-29.85875701904297,-17.94611930847168
0,1116085,-10.322221755981445,4.2234063148498535,-24.873641967773438,-104.0313720703125
0,1116087,-34.44215774536133,-37.297245025634766,29.133907318115234,-66.83424377441406
0,1116089,-54.82078170776367,17.14957046508789,39.47732925415039,96.27338409423828
0,1116091,79.24456787109375,37.46833038330078,-15.343683242797852,195.4144287109375
0,1116093,17.448974609375,-11.225687980651855,-20.8973388671875,-130.6776123046875
0,1116095,-55.41176223754883,0.6195488572120667,1.1735374927520752,-167.76991271972656
0,1116097,14.90740966796875,-0.20187750458717346,-0.39286747574806213,148.45526123046875
0,1116099,22.212919235229492,-22.41710090637207,-3.796722173690796,98.42830657958984
0,1116101,32.73604965209961,3.2725889682769775,-10.54702091217041,-100.29976654052734
0,1116103,-7.094323635101318,-1.6777613162994385,22.035573959350586,-97.88895416259766
0,1116105,-14.463924407958984,25.866485595703125,7.968546390533447,56.09675979614258
0,1116107,-16.65273094177246,-14.864984512329102,-38.560157775878906,26.886661529541016
0,1116109,-12.608610153198242,-28.15041160583496,7.1495184898376465,-52.984901428222656
0,1116111,56.12375259399414,36.81096649169922,14.073261260986328,90.72857666015625
0,1116113,-31.03558921813965,-14.26294994354248,-12.784584999084473,55.53520202636719
0,1116115,-65.97576141357422,-32.03510284423828,14.579957962036133,-107.4222640991211
0,1116117,38.271392822265625,35.513710021972656,11.222630500793457,-59.974056243896484
0,1116119,39.42430114746094,42.56068801879883,13.216919898986816,11.487879753112793
0,1116121,-0.9354817271232605,-59.896541595458984,-4.159302234649658,16.911746978759766
0,1116123,-20.47594451904297,-41.98723220825195,-42.38469696044922,31.262006759643555
0,1116124,-27.07823944091797,55.174259185791016,1.3598378896713257,21.48932647705078
0,1116127,11.66091537475586,23.644441604614258,49.751922607421875,12.680088996887207
0,1116128,4.029354572296143,-7.335780143737793,12.621845245361328,-6.445022106170654
0,1116131,44.25559997558594,3.3343892097473145,-41.47490692138672,26.343387603759766
0,1116132,65.99687957763672,-1.6349971294403076,-2.462252140045166,79.9747314453125
0,1116135,-106.40093231201172,-35.21285629272461,19.90288734436035,-129.57403564453125
0,1116136,-67.13850402832031,-25.593101501464844,-14.889328002929688,-105.6799087524414
0,1116139,65.67639923095703,28.49961280822754,-7.323218822479248,172.1578826904297
0,1116140,33.77659225463867,30.306489944458008,-14.691413879394531,70.75032043457031
0,1116143,-17.068742752075195,-1.1890002489089966,16.942962646484375,-109.41104125976562
0,1116144,-44.14784240722656,-18.899295806884766,21.26062774658203,-166.01219177246094
0,1116147,10.261025428771973,-11.651021003723145,-36.17257308959961,31.580272674560547
0,1116148,-30.133256912231445,-23.07236099243164,3.509798288345337,150.58914184570312
0,1116151,41.958404541015625,19.778961181640625,23.748355865478516,8.683183670043945
0,1116152,121.127197265625,59.778804779052734,-15.82976245880127,51.4411735534668
0,1116155,-100.164794921875,-27.05140495300293,1.8515347242355347,-95.6907730102539
0,1116156,-92.42639923095703,-27.89316749572754,10.830459594726562,-185.36354064941406
0,1116159,85.48887634277344,21.09686279296875,-4.2501068115234375,172.31065368652344
0,1116162,31.786109924316406,-11.032378196716309,6.797368049621582,179.6533966064453
0,1116163,-19.203704833984375,-7.232485294342041,-15.631752014160156,-112.58135223388672
0,1116165,-17.158082962036133,11.293865203857422,-18.403779983520508,-57.1361198425293
0,1116167,-27.596986770629883,-7.201530933380127,13.957027435302734,-19.74057388305664
0,1116169,-6.418279647827148,-7.517466068267822,27.716997146606445,-78.24207305908203
0,1116171,38.076507568359375,2.8323264122009277,20.642845153808594,98.42608642578125
0,1116173,68.69947052001953,5.277098655700684,-17.646381378173828,129.7080078125
0,1116175,-48.106658935546875,32.84697723388672,-9.388903617858887,-127.16381072998047
0,1116177,-85.42398071289062,-6.739678382873535,4.25112771987915,-130.02474975585938
0,1116179,37.902896881103516,-45.304935455322266,-15.266111373901367,71.32032012939453
0,1116181,50.8613395690918,12.116626739501953,-13.894706726074219,65.93025970458984
0,1116183,8.963794708251953,33.742591857910156,1.4145584106445312,70.37889099121094
0,1116185,2.6142752170562744,11.231733322143555,52.707244873046875,36.70753479003906
0,1116187,-44.623634338378906,-16.524858474731445,-11.158203125,-191.48988342285156
0,1116189,-49.875823974609375,-43.53618621826172,-79.06232452392578,-53.52763366699219
0,1116191,60.30009078979492,-6.474842071533203,27.42952537536621,240.86854553222656
0,1116193,77.35981750488281,39.38821792602539,39.84333038330078,20.970205307006836
0,1116195,-83.23849487304688,3.2899117469787598,-23.225025177001953,-214.22418212890625
0,1116197,-104.00011444091797,-16.796140670776367,-13.216751098632812,-39.04926300048828
0,1116199,79.30999755859375,6.005388259887695,17.4871883392334,159.77647399902344
0,1116201,94.87641143798828,10.836543083190918,21.115915298461914,31.953222274780273
0,1116203,-19.40668296813965,6.1020050048828125,-19.391632080078125,-63.12763214111328
0,1116205,-37.37321853637695,-0.9098854064941406,0.5729956030845642,37.56275939941406
0,1116207,-39.06380844116211,-13.612844467163086,31.98133659362793,-35.331180572509766
0,1116209,-58.56026840209961,-12.941095352172852,-12.447057723999023,-69.19100189208984
0,1116211,79.27970123291016,18.38397789001465,-23.094127655029297,38.450374603271484
0,1116213,116.43867492675781,6.70020055770874,-1.0766173601150513,72.36214447021484
0,1116215,-108.47840118408203,-11.437581062316895,7.148056507110596,-62.658687591552734
0,1116217,-69.1568603515625,6.687749862670898,-11.428293228149414,-102.82767486572266
0,1116219,88.47798919677734,-21.94339942932129,7.061424732208252,122.93202209472656
0,1116221,17.519248962402344,-7.990688323974609,27.53508186340332,112.80831909179688
0,1116223,-18.36786651611328,27.832094192504883,-14.923796653747559,-64.77034759521484
0,1116225,-7.047739028930664,-13.65087890625,-34.666446685791016,-102.80443572998047
0,1116227,-53.52413558959961,-11.732351303100586,-6.153288841247559,-83.20774841308594
0,1116229,-14.745133399963379,23.244596481323242,50.84552764892578,78.29811096191406
0,1116231,91.03894805908203,-6.483366012573242,2.4776670932769775,166.05995178222656
0,1116233,59.73290252685547,-7.9450602531433105,-43.323787689208984,-51.71893310546875
0,1116235,-105.25399017333984,20.07975959777832,30.783409118652344,-194.413818359375
0,1116237,-86.1506576538086,-13.800089836120605,28.302812576293945,22.04482650756836
0,1116239,89.70121765136719,-23.104665756225586,-21.6123046875,186.48985290527344
0,1116241,47.0690803527832,16.67325210571289,-13.972290992736816,27.61857032775879
0,1116243,-20.359464645385742,35.83831024169922,-6.564896106719971,-83.78902435302734
0,1116245,2.895620346069336,4.001307964324951,-3.5290842056274414,-19.513566970825195
0,1116247,-48.26610565185547,-43.552791595458984,-16.201147079467773,-8.677776336669922
0,1116249,-25.065202713012695,-9.354776382446289,-2.871631622314453,-48.883384704589844
0,1116251,75.5998306274414,31.95867919921875,55.45452880859375,81.91593933105469
0,1116253,52.650604248046875,20.126258850097656,2.1892008781433105,105.62942504882812
0,1116255,-103.66352081298828,-27.57840919494629,-45.30099868774414,-167.41151428222656
0,1116257,-56.118682861328125,-28.610424041748047,-5.696505069732666,-79.06468200683594
0,1116259,116.24193572998047,38.97977828979492,19.480560302734375,155.2266082763672
0,1116261,22.235591888427734,10.054908752441406,17.7000732421875,42.21751403808594
0,1116263,-43.29847717285156,-35.63590621948242,-28.694374084472656,-98.85529327392578
0,1116265,-7.457267761230469,-2.3699615001678467,6.82354736328125,-56.0722770690918
0,1116267,-34.91441345214844,25.87908172607422,12.141275405883789,35.426597595214844
0,1116269,-12.397634506225586,1.8144574165344238,-43.05223846435547,53.40935134887695
0,1116271,51.84939956665039,-7.957557678222656,44.18082809448242,75.63780212402344
0,1116274,23.5709171295166,16.831710815429688,33.972503662109375,-143.45103454589844
0,1116275,-83.32452392578125,-31.76274871826172,-53.15351104736328,-166.15147399902344
0,1116277,-9.858381271362305,-30.28548240661621,-2.854156732559204,208.05877685546875
0,1116279,69.28506469726562,47.75318145751953,27.494970321655273,132.55055236816406
0,1116281,29.52997589111328,21.87698745727539,18.897869110107422,-86.32011413574219
0,1116283,8.26014232635498,-13.057061195373535,-22.248807907104492,4.051015853881836
0,1116285,-13.329293251037598,-4.042025089263916,-10.3688325881958,-35.45159912109375
0,1116287,-44.94374465942383,-14.488516807556152,41.22162628173828,-61.51994323730469
0,1116289,-33.340999603271484,-16.287612915039062,-38.5556526184082,97.68060302734375
0,1116291,55.747493743896484,-15.597968101501465,-47.825958251953125,98.24644470214844
0,1116293,64.010986328125,20.40418815612793,23.70165252685547,-23.142539978027344
0,1116295,-80.52106475830078,22.27029800415039,26.311796188354492,-225.74697875976562
0,1116297,-76.63536834716797,-6.535884380340576,-9.257817268371582,-96.87022399902344
0,1116299,97.9257583618164,22.345930099487305,-10.764819145202637,262.74560546875
0,1116301,44.40163803100586,3.78205943107605,33.721397399902344,59.17610549926758
0,1116303,-72.21683502197266,-34.74419403076172,-0.5899679064750671,-116.11248016357422
0,1116305,-15.62381362915039,1.9491047859191895,-14.864623069763184,-2.2059028148651123
0,1116307,8.099004745483398,32.909950256347656,27.734575271606445,-87.05142211914062
0,1116309,-16.015413284301758,-32.55397415161133,-1.4942922592163086,-45.32791519165039
0,1116311,54.04821014404297,-21.318157196044922,-44.60938262939453,183.9326171875
0,1116313,61.18868637084961,45.880775451660156,-16.90791893005371,102.57564544677734
0,1116315,-101.75381469726562,5.226680278778076,38.706966400146484,-200.29644775390625
0,1116317,-67.46379089355469,-40.490116119384766,14.194539070129395,-102.52351379394531
0,1116319,95.36299133300781,-14.696191787719727,-34.00939178466797,184.6813201904297
0,1116321,46.33818435668945,17.331279754638672,2.7578253746032715,47.52269744873047
0,1116323,-45.14261245727539,9.459029197692871,13.682600975036621,-62.43039321899414
0,1116325,-31.54951286315918,0.8366934061050415,-5.832319259643555,5.993785858154297
0,1116327,20.435016632080078,6.49802827835083,11.327326774597168,-81.60885620117188
0,1116329,-14.697519302368164,-0.15045422315597534,-10.320470809936523,16.874893188476562
0,1116331,17.319665908813477,-0.6420377492904663,-13.4056978225708,168.2896270751953
0,1116333,80.79106140136719,21.020057678222656,8.657180786132812,-34.60102462768555
0,1116335,-74.94868469238281,-10.274614334106445,28.34858512878418,-181.81431579589844
0,1116337,-69.59280395507812,-5.580276012420654,13.83598804473877,-23.620288848876953
0,1116339,70.84070587158203,4.519221782684326,-47.97804260253906,156.69509887695312
0,1116341,20.52549934387207,-17.390705108642578,-2.2383973598480225,35.991790771484375
0,1116343,1.292076826095581,7.276401042938232,38.579349517822266,-96.81092834472656
0,1116345,-8.894560813903809,7.350663661956787,-17.478811264038086,23.81784439086914
0,1116347,-33.03438186645508,-13.515910148620605,-4.057991981506348,-54.92695999145508
0,1116349,-15.67435359954834,1.0204429626464844,21.511436462402344,-35.38390350341797
0,1116351,36.54027557373047,0.8778720498085022,-8.059907913208008,168.10179138183594
0,1116353,77.23499298095703,-8.057415962219238,-14.367091178894043,39.648197174072266
0,1116355,-88.62593078613281,-10.35571575164795,-12.79106616973877,-194.85220336914062
0,1116357,-88.84098815917969,-11.909778594970703,-13.368026733398438,-30.77800178527832
0,1116359,102.44684600830078,43.720577239990234,39.38488006591797,187.1912384033203
0,1116361,38.080039978027344,29.901567459106445,23.9290714263916,-7.086385726928711
0,1116363,-35.83670425415039,-46.19379425048828,-66.38917541503906,-82.70950317382812
0,1116365,3.8490493297576904,-12.328378677368164,-7.498638153076172,-11.949782371520996
0,1116367,-48.42479705810547,22.518037796020508,44.46073532104492,-61.150577545166016
0,1116369,-16.91489601135254,3.188600778579712,5.79656457901001,24.3373966217041
0,1116371,86.17675018310547,11.52076244354248,6.698225021362305,132.35702514648438
0,1116373,8.491101264953613,-10.16489028930664,-9.061001777648926,24.18152618408203
0,1116375,-99.14581298828125,-21.136865615844727,-3.020022392272949,-172.9363250732422
0,1116377,-7.910387992858887,6.076760768890381,8.622160911560059,-77.9795150756836
0,1116379,78.07048034667969,3.9850499629974365,-22.585140228271484,146.1337127685547
0,1116381,-7.652233123779297,-15.407055854797363,-19.67222023010254,66.86907958984375
0,1116383,12.35053825378418,-2.423752546310425,6.122354984283447,-35.88007736206055
0,1116385,27.516780853271484,16.157920837402344,13.484543800354004,-40.2171516418457
0,1116388,-85.17432403564453,-5.2248640060424805,4.813460826873779,-58.02522277832031
0,1116389,-23.481698989868164,10.233830451965332,-4.803738117218018,50.31828308105469
0,1116390,103.38983917236328,24.4371395111084,9.521502494812012,125.05501556396484
0,1116393,18.55577278137207,-20.0040340423584,5.2193756103515625,-34.18266677856445
0,1116394,-54.64298629760742,1.287044882774353,-11.450996398925781,-116.00116729736328
0,1116397,-24.347938537597656,7.338590145111084,13.05532455444336,1.0450918674468994
0,1116398,-18.140735626220703,-16.83057975769043,22.60749626159668,58.51797103881836
0,1116403,82.89488983154297,17.823375701904297,-14.780892372131348,82.75990295410156
0,1116403,22.417892456054688,-10.569052696228027,-18.767866134643555,-69.17086029052734
0,1116404,-95.40974426269531,-25.38187026977539,12.027981758117676,-152.14215087890625
0,1116407,5.764526844024658,8.431964874267578,1.6520216464996338,44.25032424926758
0,1116408,-2.1667964458465576,-2.8849520683288574,-16.761730194091797,65.12390899658203
0,1116411,21.772539138793945,13.672392845153809,0.658656895160675,54.37664031982422
0,1116412,79.83282470703125,32.93605422973633,6.592861652374268,24.61237907409668
0,1116415,-95.5611801147461,-20.325782775878906,-10.702349662780762,-112.6729736328125
0,1116416,-87.64283752441406,-26.825748443603516,-5.865309715270996,2.048929452896118
0,1116419,115.91206359863281,-5.241009712219238,12.450146675109863,31.516464233398438
0,1116420,39.01204299926758,-9.309792518615723,-23.009767532348633,-80.315185546875
0,1116423,-67.70706176757812,24.5178165435791,-8.141157150268555,106.9281005859375
0,1116424,1.8339908123016357,22.746305465698242,50.06065368652344,117.8087158203125
0,1116427,4.116764545440674,0.22922393679618835,17.407670974731445,-137.70468139648438
0,1116428,-18.021419525146484,-4.131899833679199,-23.40688705444336,-83.2717514038086
0,1116431,36.99547576904297,-13.801830291748047,-16.53173828125,104.18608856201172
0,1116432,70.12105560302734,-19.186750411987305,5.3810343742370605,38.3055534362793
0,1116435,-69.68667602539062,-9.06209945678711,-9.570242881774902,-70.76663208007812
0,1116436,-85.9345932006836,7.6374077796936035,-0.08971592783927917,-14.904389381408691
0,1116439,103.52360534667969,30.58721160888672,34.34600830078125,54.6431884765625
0,1116440,44.42845153808594,14.88882827758789,-1.6284575462341309,5.689648628234863
0,1116443,-76.19485473632812,-22.1567325592041,-45.90666198730469,-10.43645191192627
0,1116444,-37.58864212036133,-8.203760147094727,-5.346282005310059,2.492368698120117
0,1116447,20.00739860534668,-1.5071643590927124,54.55282974243164,-95.22747039794922
0,1116448,17.130422592163086,16.508859634399414,6.841335773468018,-30.684133529663086
0,1116451,6.354373455047607,15.56975269317627,-48.66468048095703,145.14134216308594
0,1116452,53.164024353027344,-24.295499801635742,-15.68266773223877,72.7688980102539
0,1116455,-48.636417388916016,-54.27634048461914,10.340174674987793,-119.23365020751953
0,1116456,-92.06075286865234,6.017179012298584,18.866065979003906,-112.68135833740234
0,1116459,72.67723083496094,74.65848541259766,29.67486000061035,111.33866882324219
0,1116460,68.50536346435547,1.2571089267730713,-1.8708661794662476,124.15263366699219
0,1116463,-40.02309036254883,-22.656902313232422,-31.11602783203125,-63.95866394042969
0,1116464,-21.261356353759766,-3.3739500045776367,-1.8633688688278198,-87.83241271972656
0,1116467,-10.756705284118652,-7.973488807678223,31.743621826171875,-6.600711822509766
0,1116468,-13.95140552520752,9.342996597290039,-7.5385847091674805,34.146114349365234
0,1116471,74.23957061767578,-0.5200542211532593,-29.497079849243164,45.708641052246094
0,1116472,61.93968963623047,8.848937034606934,15.563604354858398,67.21504974365234
0,1116475,-127.93302917480469,-11.205084800720215,-9.338790893554688,-152.7338409423828
0,1116476,-85.42825317382812,-19.616369247436523,-17.451223373413086,-143.7160186767578
0,1116479,123.16312408447266,15.724559783935547,10.283363342285156,189.3216094970703
0,1116480,21.227521896362305,-10.605895042419434,4.388530731201172,104.4231948852539
0,1116483,-31.850019454956055,18.577173233032227,17.99769401550293,-41.57400894165039
0,1116484,39.36668014526367,38.6938591003418,11.941593170166016,-27.10375213623047
0,1116487,-49.30033874511719,-41.78175354003906,3.5863146781921387,-75.80491638183594
0,1116488,-37.246116638183594,-24.357276916503906,-9.371922492980957,-15.481704711914062
0,1116491,61.392578125,22.67905044555664,-11.040699005126953,106.51199340820312
0,1116492,53.808162689208984,7.460494518280029,15.118353843688965,28.533218383789062
0,1116495,-73.89389038085938,8.219534873962402,-9.538008689880371,-106.80659484863281
0,1116496,-75.40070343017578,2.491044282913208,-23.27766990661621,-5.172461032867432
0,1116499,87.70804595947266,6.278762340545654,28.925962448120117,64.20896911621094
0,1116500,52.77406692504883,-5.375048637390137,16.528642654418945,-59.96833801269531
0,1116503,-38.4141845703125,-39.61545944213867,-30.903837203979492,-9.857673645019531
0,1116504,-13.432363510131836,-18.58003044128418,-36.50098419189453,45.38665771484375
0,1116507,-42.03160095214844,-4.04587984085083,-9.450204849243164,-95.51702117919922
0,1116508,-27.3621883392334,-8.173890113830566,46.885597229003906,22.727392196655273
0,1116511,71.22307586669922,39.105079650878906,17.721725463867188,199.9373779296875
0,1116512,54.23094177246094,31.866695404052734,-31.181001663208008,10.044899940490723
0,1116515,-89.09452056884766,-16.01744270324707,16.123172760009766,-184.11978149414062
0,1116516,-43.84524154663086,4.282553195953369,21.716779708862305,-21.035934448242188
0,1116519,95.65515899658203,-1.7913836240768433,-23.626623153686523,135.25572204589844
0,1116520,2.5437026023864746,-42.494266510009766,-26.40399932861328,-123.14228057861328
0,1116523,-28.399709701538086,-32.09805679321289,-5.813029766082764,-86.05422973632812
0,1116524,6.621120452880859,44.80036163330078,24.95930290222168,196.61337280273438
0,1116527,-44.3037223815918,80.12715911865234,16.055301666259766,-39.96104049682617
0,1116529,-1.8672362565994263,5.665698528289795,-0.5639810562133789,-147.55731201171875
0,1116531,55.8913688659668,-55.083431243896484,2.353545904159546,152.16110229492188
0,1116533,44.09371566772461,-13.610554695129395,1.2864798307418823,84.78768157958984
0,1116535,-99.69317626953125,5.740171432495117,-1.208261251449585,-209.5304412841797
0,1116537,-43.59270477294922,-10.006094932556152,0.09368546307086945,-2.8796141147613525
0,1116539,137.39657592773438,29.65926742553711,8.175067901611328,238.9278564453125
0,1116541,-27.396556854248047,4.431519031524658,-24.989336013793945,29.621965408325195
0,1116545,-32.93457794189453,-22.188594818115234,-8.144740104675293,-69.84626770019531
0,1116545,57.080875396728516,2.8968358039855957,13.726125717163086,-51.365272521972656
0,1116546,-99.67475891113281,-8.800131797790527,-17.083492279052734,-132.62904357910156
0,1116549,-32.77853775024414,-5.904252529144287,21.553138732910156,3.7387149333953857
0,1116550,132.50901794433594,23.130470275878906,42.73208999633789,167.87982177734375
0,1116553,14.767236709594727,3.610365152359009,-35.8620491027832,-57.01707458496094
0,1116554,-77.06710052490234,-30.20631980895996,-63.59410095214844,-169.23976135253906
0,1116557,-20.52005958557129,-6.779813766479492,33.12255096435547,76.55479431152344
0,1116558,0.06252758949995041,6.144296646118164,48.248897552490234,67.26702880859375
0,1116561,20.850780487060547,-28.35201644897461,-31.44507598876953,-16.742801666259766
0,1116562,-7.795906066894531,5.792172908782959,-17.36509132385254,3.6670923233032227
0,1116565,11.780611038208008,51.790283203125,23.47856330871582,39.216026306152344
0,1116566,9.840272903442383,0.47109562158584595,2.733053684234619,0.6149789094924927
0,1116569,-33.08661651611328,-18.946699142456055,-2.230656385421753,-71.55697631835938
0,1116570,73.87355041503906,10.965977668762207,0.16465532779693604,93.47746276855469
0,1116573,11.629155158996582,-0.10661153495311737,-29.591787338256836,35.583335876464844
0,1116574,-86.37853240966797,-13.08715534210205,16.66297149658203,-113.54721069335938
0,1116577,22.284582138061523,32.375396728515625,47.91580581665039,-19.89832305908203
0,1116578,13.83929443359375,38.17105484008789,-26.73973846435547,2.136960029602051
0,1116581,-22.09166717529297,-41.023460388183594,-10.817160606384277,77.49776458740234
0,1116582,18.67212677001953,-59.31357192993164,12.312943458557129,84.39083862304688
0,1116585,8.742925643920898,21.48830795288086,-24.598257064819336,-159.81170654296875
0,1116586,-30.221895217895508,9.054925918579102,-6.861555099487305,-195.9533233642578
0,1116589,-23.245040893554688,-39.16826248168945,2.989439010620117,163.99766540527344
0,1116590,61.694129943847656,24.95046043395996,9.181516647338867,285.3799133300781
0,1116593,-1.464796781539917,29.91920280456543,15.756065368652344,-123.74739837646484
0,1116594,-52.16838836669922,-5.088265419006348,-4.819427967071533,-160.08164978027344
0,1116597,-3.438145160675049,11.80018138885498,-15.211677551269531,46.929832458496094
0,1116598,27.280168533325195,13.217225074768066,21.61613655090332,21.999652862548828
0,1116601,58.268646240234375,-20.12067985534668,6.963927745819092,93.76895141601562
0,1116602,-33.53679656982422,-38.191532135009766,-34.4492073059082,-5.503856658935547
0,1116605,-26.691865921020508,9.063645362854004,2.210538625717163,-92.71831512451172
0,1116606,-14.000125885009766,26.627490997314453,15.10952377319336,-17.026029586791992
0,1116609,0.4507308602333069,4.355557441711426,14.926055908203125,-0.8881427049636841
0,1116610,85.65271759033203,12.322469711303711,-14.829511642456055,85.37921905517578
0,1116613,-45.72206115722656,-46.1556396484375,-32.03739929199219,-1.22247314453125
0,1116614,-64.4072265625,-29.5313663482666,31.626991271972656,-96.1712417602539
0,1116617,60.21764373779297,64.7324447631836,13.353324890136719,5.383456230163574
0,1116618,15.653936386108398,0.49266618490219116,-8.517081260681152,9.404041290283203
0,1116621,-24.04084014892578,-42.85454177856445,5.618607044219971,-8.974628448486328
0,1116622,-27.659648895263672,8.131580352783203,-17.711227416992188,25.9152774810791
0,1116625,32.733154296875,72.2076416015625,41.04936981201172,62.94922637939453
0,1116626,22.397483825683594,15.74466609954834,20.609224319458008,-116.43289947509766
0,1116629,-62.87114715576172,-90.48057556152344,-76.84815216064453,-66.18817138671875
0,1116630,42.264869689941406,-3.3990752696990967,-25.19972801208496,268.6872863769531
0,1116633,31.790176391601562,18.45340919494629,36.535404205322266,-93.56871032714844
0,1116634,-50.53909683227539,-16.29706573486328,9.475228309631348,-236.2589111328125
0,1116637,-30.805252075195312,13.667549133300781,-15.366467475891113,185.11880493164062
0,1116638,13.655282020568848,-0.2527927756309509,3.779179573059082,70.98621368408203
0,1116641,72.2506332397461,18.58861541748047,23.869558334350586,-14.91756820678711
0,1116642,-13.840310096740723,25.208080291748047,4.129825592041016,26.88693618774414
0,1116645,-30.459667205810547,-13.191620826721191,-3.8356311321258545,-91.45037078857422
0,1116646,-11.635444641113281,-37.66728973388672,-2.509018659591675,-54.686859130859375
0,1116649,-35.15694808959961,10.66574478149414,-7.05199670791626,66.68829345703125
0,1116650,50.71580505371094,-13.72046184539795,-16.672950744628906,123.36377716064453
0,1116653,18.58383560180664,-20.94272804260254,-9.623443603515625,-49.20116424560547
0,1116654,-59.94038391113281,50.51616287231445,23.541839599609375,-114.18574523925781
0,1116657,-38.88554000854492,-21.120094299316406,19.0841121673584,-39.38389587402344
0,1116658,47.382659912109375,4.957664489746094,-40.4950065612793,-16.0401554107666
0,1116661,79.16175079345703,34.04315185546875,-22.658626556396484,118.78215789794922
0,1116662,-25.232677459716797,-15.048381805419922,64.3170394897461,36.128173828125
0,1116665,-3.003331184387207,15.841943740844727,4.985392093658447,-89.75106048583984
0,1116666,-3.1290671825408936,-12.808531761169434,-20.709640502929688,-16.52907371520996
0,1116669,-64.22551727294922,-47.33428192138672,12.160451889038086,-30.338518142700195
0,1116670,61.2928466796875,13.909214973449707,-11.041764259338379,101.22592163085938
0,1116673,10.688878059387207,34.09895706176758,9.847572326660156,61.969783782958984
0,1116674,-90.03675842285156,-26.384496688842773,2.970798969268799,-129.3412628173828
0,1116677,30.980030059814453,-15.390069007873535,-34.13928985595703,18.838966369628906
0,1116678,55.388389587402344,8.257667541503906,-4.398728370666504,88.06124114990234
0,1116681,18.471458435058594,33.65570831298828,21.50499725341797,-28.49790382385254
0,1116682,-19.637657165527344,13.647283554077148,-4.60891056060791,-64.70928192138672
0,1116685,-3.2894716262817383,-42.31739044189453,20.409799575805664,75.47847747802734
0,1116686,-9.559930801391602,14.511982917785645,13.981873512268066,34.28605651855469
0,1116689,-67.18699645996094,24.33931541442871,-28.979169845581055,-109.82109832763672
0,1116690,97.44890594482422,-30.641366958618164,-0.4403993487358093,-19.75948143005371
0,1116693,16.19881820678711,-23.33098602294922,13.237059593200684,19.27609634399414
0,1116694,-127.13947296142578,16.010190963745117,-17.527851104736328,20.50745391845703
0,1116697,54.87782669067383,42.92320251464844,-7.215244770050049,2.6759955883026123
0,1116699,37.71707534790039,-16.257537841796875,21.54945945739746,10.919259071350098
0,1116701,-35.8394889831543,-51.39237594604492,10.86589241027832,84.32937622070312
0,1116703,-0.7414801120758057,1.954060435295105,-25.933881759643555,-72.80511474609375
0,1116704,9.388937950134277,25.387006759643555,-25.702457427978516,-124.46556091308594
0,1116707,-39.72779846191406,-1.158658504486084,-8.697543144226074,54.643585205078125
0,1116708,-29.022836685180664,-20.244977951049805,22.968454360961914,17.148588180541992
0,1116711,131.81488037109375,65.55091857910156,60.30467224121094,80.32966613769531
0,1116712,83.44322204589844,78.60147094726562,-2.238626480102539,93.29659271240234
0,1116715,-139.5666046142578,-78.3967056274414,-52.94281768798828,-165.73976135253906
0,1116716,-73.4215087890625,-111.26851654052734,-23.34697914123535,-89.82044982910156
0,1116719,91.56318664550781,41.679656982421875,21.372983932495117,163.22286987304688
0,1116720,-17.692176818847656,35.735286712646484,25.076969146728516,44.92814636230469
0,1116723,-46.9432487487793,-27.64664649963379,-7.173936367034912,-138.95323181152344
0,1116724,41.06998062133789,38.330196380615234,-20.50287628173828,12.5874662399292
0,1116727,-12.889745712280273,-21.078866958618164,1.0293399095535278,40.540374755859375
0,1116728,-7.258266925811768,-29.16061019897461,22.328065872192383,-24.50685691833496
0,1116731,69.1758804321289,63.830665588378906,3.4325757026672363,66.5284194946289
0,1116732,14.862518310546875,3.4861972332000732,-6.305760860443115,61.929508209228516
0,1116735,-96.59302520751953,-43.816436767578125,6.016640663146973,-111.58453369140625
0,1116736,-27.09465980529785,20.853376388549805,-0.2986665368080139,-169.69326782226562
0,1116739,66.71939086914062,-13.178142547607422,-28.21738624572754,150.32369995117188
0,1116740,27.858129501342773,-33.946014404296875,-0.16572296619415283,177.98500061035156
0,1116743,4.488321304321289,54.12710952758789,56.29889678955078,-93.2347183227539
0,1116744,-18.393346786499023,14.740251541137695,14.146604537963867,-78.1628189086914
0,1116747,-40.375755310058594,-39.075687408447266,-58.44453811645508,-46.23340606689453
0,1116748,-23.03940200805664,9.869101524353027,-27.621395111083984,27.469158172607422
0,1116751,39.13496017456055,-38.622467041015625,10.22559642791748,50.58073425292969
0,1116752,49.25886535644531,-42.193424224853516,-5.9094038009643555,-11.109354972839355
0,1116755,-71.44568634033203,83.00492095947266,17.421083450317383,-16.880741119384766
0,1116756,-32.01112747192383,51.128536224365234,48.4162712097168,-24.657175064086914
0,1116759,98.11822509765625,-13.524199485778809,-3.5431406497955322,37.07020568847656
0,1116760,20.55030632019043,-13.719106674194336,-50.22979736328125,-33.64244079589844
0,1116763,-34.89333724975586,-12.499551773071289,-0.8801108002662659,58.17436599731445
0,1116764,-3.5028159618377686,6.594203948974609,33.25825119018555,132.01446533203125
0,1116767,-47.57676315307617,-27.885150909423828,2.8082292079925537,-216.26109313964844
0,1116768,-44.0147819519043,-17.180641174316406,-39.902740478515625,-111.7209243774414
0,1116771,62.591243743896484,20.40691566467285,-8.17182731628418,224.6770477294922
0,1116772,48.178897857666016,7.686915397644043,43.11265182495117,22.2458438873291
0,1116775,-61.6479377746582,12.937382698059082,3.814667224884033,-112.42810821533203
0,1116776,-20.21339225769043,-11.07812213897705,-6.8213348388671875,5.044286251068115
0,1116779,69.44570922851562,-22.934934616088867,2.8103597164154053,31.96865463256836
0,1116780,25.691898345947266,11.725687980651855,-10.17859935760498,29.32541275024414
0,1116783,-21.169513702392578,17.060016632080078,1.6423290967941284,-17.737110137939453
0,1116784,-23.887819290161133,8.755438804626465,-13.639788627624512,-59.105812072753906
0,1116787,-42.53488540649414,3.6928837299346924,7.1297993659973145,48.22711181640625
0,1116788,-17.85357093811035,-23.818172454833984,22.77766990661621,32.73290252685547
0,1116791,81.01069641113281,-23.215702056884766,5.838040828704834,4.423829078674316
0,1116792,58.02751159667969,-1.3517004251480103,-0.6004483699798584,-22.60756492614746
0,1116795,-120.69481658935547,-8.03286075592041,-47.928958892822266,-121.56531524658203
0,1116796,-25.968883514404297,32.01319122314453,-6.685257911682129,100.45660400390625
0,1116799,100.66757202148438,5.251674652099609,22.509492874145508,110.74940490722656
0,1116800,-45.29541778564453,-29.458019256591797,5.329643249511719,-129.6367645263672
0,1116803,-49.82366943359375,31.237648010253906,18.84080696105957,-52.774078369140625
0,1116804,46.80867385864258,31.024457931518555,-10.997374534606934,82.84741973876953
0,1116807,15.432805061340332,-35.637149810791016,-17.006755828857422,46.62340545654297
0,1116808,-25.46893310546875,-23.898191452026367,4.195652008056641,-9.09857177734375
0,1116811,50.68509292602539,10.99867057800293,5.236946105957031,25.046005249023438
0,1116812,58.26047897338867,8.328743934631348,-17.714719772338867,-47.218345642089844
0,1116815,-110.99189758300781,19.32653045654297,17.148569107055664,-125.07943725585938
0,1116816,-59.34232711791992,-22.095014572143555,33.12018966674805,17.181655883789062
0,1116819,83.5706787109375,-24.299650192260742,-21.15325355529785,172.20806884765625
0,1116820,11.917655944824219,38.64764404296875,-1.0258294343948364,0.31883150339126587
0,1116823,3.3078255653381348,41.48891830444336,21.19672203063965,-112.72974395751953
0,1116824,26.881986618041992,-1.0983868837356567,-28.09587287902832,17.15851402282715
0,1116827,-48.6640625,-60.47892379760742,-15.466222763061523,-57.82732009887695
0,1116828,-53.80709457397461,-24.19507598876953,15.041281700134277,-9.343664169311523
0,1116831,62.41862106323242,74.31523132324219,-0.685634434223175,161.551513671875
0,1116832,69.13024139404297,-0.4235702157020569,10.823793411254883,-6.648058891296387
0,1116835,-89.13167572021484,-55.480262756347656,14.345646858215332,-177.66282653808594
0,1116836,-49.32277297973633,13.961691856384277,-12.948498725891113,23.922880172729492
0,1116839,78.42523956298828,-8.471268653869629,-25.14338493347168,154.99107360839844
0,1116840,-6.98018217086792,-42.83287811279297,-6.19937801361084,-31.438844680786133
0,1116843,-28.83447265625,27.135284423828125,13.619324684143066,-31.72357940673828
0,1116844,28.46585464477539,27.3053035736084,3.331894874572754,57.533512115478516
0,1116847,-8.959430694580078,-7.675952434539795,-23.959150314331055,-126.16673278808594
0,1116848,-54.089969635009766,-11.183213233947754,-15.26754379272461,-26.73764419555664
0,1116851,59.01065444946289,-7.507993698120117,17.194223403930664,162.03831481933594
0,1116852,70.67778015136719,44.84580612182617,38.715267181396484,-55.059600830078125
0,1116855,-125.67066192626953,2.5058844089508057,1.1198787689208984,-145.20782470703125
0,1116856,-17.93106460571289,-20.25881576538086,-29.581533432006836,77.9484634399414
0,1116859,142.54269409179688,47.60565185546875,24.90850067138672,166.4082489013672
0,1116860,-3.448843240737915,-0.7845486402511597,20.75473403930664,-63.13373947143555
0,1116863,-86.22200012207031,-71.77249145507812,-23.99800682067871,-96.45913696289062
0,1116864,6.98980188369751,-14.573149681091309,-24.7629451751709,53.672115325927734
0,1116867,18.098941802978516,42.70791244506836,6.395265102386475,-67.1570053100586
0,1116869,-44.43120574951172,10.641883850097656,32.412635803222656,-52.83200454711914
0,1116871,45.26298522949219,0.47121140360832214,-5.05452299118042,135.14590454101562
0,1116874,4.357665061950684,-8.482895851135254,-7.610482215881348,-61.74360275268555
0,1116875,-107.03148651123047,-39.966888427734375,3.3556153774261475,-111.34577178955078
0,1116877,56.22883605957031,2.3848717212677,-25.805744171142578,148.2998046875
0,1116879,86.5980453491211,35.69063186645508,-2.107069730758667,112.54204559326172
0,1116881,-21.368122100830078,-12.027969360351562,6.747182369232178,-40.89996337890625
0,1116883,0.7327832579612732,-17.578426361083984,4.85550594329834,-135.18124389648438
0,1116885,-0.16204695403575897,32.907386779785156,21.864999771118164,-83.00639343261719
0,1116887,-63.16426086425781,5.118353366851807,-11.406023025512695,124.53611755371094
0,1116889,-21.47922134399414,2.6063640117645264,-20.485675811767578,159.26893615722656
0,1116891,107.11202239990234,16.423940658569336,23.79013442993164,-26.822101593017578
0,1116893,47.23698043823242,-11.819777488708496,28.213064193725586,-86.89226531982422
0,1116895,-160.96713256835938,-43.39985656738281,-59.442779541015625,-92.90959930419922
0,1116897,-67.7225341796875,-26.93328857421875,-37.53119659423828,-53.29511642456055
0,1116899,161.63156127929688,58.44010543823242,70.8115234375,155.9200439453125
0,1116901,61.884552001953125,38.49754333496094,27.33224105834961,0.5407673716545105
0,1116903,-64.601806640625,-24.575063705444336,-35.19163513183594,-112.83204650878906
0,1116905,-23.722320556640625,-44.37314987182617,-12.469599723815918,90.98200225830078
0,1116907,-35.96051025390625,18.280576705932617,-0.7478278279304504,-21.824108123779297
0,1116909,1.502822756767273,36.59798049926758,-6.079997539520264,-64.76490783691406
0,1116911,83.26918029785156,-37.17010498046875,32.395870208740234,119.4923324584961
0,1116913,-2.7575197219848633,-6.007012844085693,19.706401824951172,5.891932964324951
0,1116915,-116.32896423339844,9.116485595703125,-35.22379684448242,-178.1461944580078
0,1116917,-4.848053455352783,4.568321704864502,-13.213231086730957,20.931901931762695
0,1116919,103.5374755859375,23.836462020874023,13.834685325622559,199.46360778808594
0,1116921,-16.149932861328125,-44.42654037475586,-11.315478324890137,-11.760721206665039
0,1116923,-32.24531555175781,-50.14048767089844,6.6715216636657715,-49.27924346923828
0,1116925,15.614945411682129,65.52497100830078,25.308008193969727,14.019294738769531
0,1116927,-43.620582580566406,26.024288177490234,-40.542198181152344,-142.568115234375
0,1116929,0.8857014775276184,-56.64699172973633,2.4807894229888916,-43.44218826293945
0,1116931,118.5988540649414,25.936092376708984,67.37576293945312,181.8856658935547
0,1116933,36.067604064941406,22.141624450683594,-33.51753234863281,87.47494506835938
0,1116935,-164.46856689453125,-47.91043472290039,-55.19469451904297,-165.24853515625
0,1116937,-39.50764083862305,0.2731040120124817,9.495598793029785,-73.6208267211914
0,1116939,134.0849609375,72.51487731933594,29.10848045349121,138.0715789794922
0,1116941,-0.89637291431427,28.86194610595703,17.73906707763672,38.372032165527344
0,1116943,-50.70878219604492,-78.14513397216797,-43.0269889831543,-182.6865234375
0,1116945,22.790199279785156,-38.74217224121094,2.200230360031128,-115.66336822509766
0,1116947,-42.472686767578125,34.36943817138672,38.411293029785156,264.81591796875
0,1116949,-15.333226203918457,17.248027801513672,-18.551939010620117,173.3696746826172
0,1116951,90.30716705322266,9.016999244689941,17.471189498901367,-153.52200317382812
0,1116953,-13.939314842224121,6.131873607635498,34.997310638427734,-32.51097106933594
0,1116955,-94.5582504272461,6.055116653442383,0.7163529396057129,-41.83932876586914
0,1116957,16.88035774230957,-42.14714813232422,-49.134620666503906,-175.1800079345703
0,1116959,94.25643920898438,-25.10953712463379,-55.48541259765625,107.88386535644531
0,1116961,-24.604198455810547,30.121618270874023,1.4806660413742065,137.10235595703125
0,1116963,-35.20347213745117,-4.79774808883667,49.116241455078125,0.5825328230857849
0,1116965,39.659446716308594,30.548686981201172,53.175018310546875,49.076778411865234
0,1116967,-55.21269989013672,27.714902877807617,-33.314510345458984,-153.88124084472656
0,1116969,12.64291763305664,-13.089441299438477,-29.917266845703125,-26.55476951599121
0,1116971,69.92196655273438,-20.885391235351562,3.6868889331817627,94.36446380615234
0,1116973,-47.05802536010742,-26.395614624023438,-23.55006980895996,-92.43244934082031
0,1116975,-58.31241989135742,29.951902389526367,9.748650550842285,17.827268600463867
0,1116977,15.439529418945312,13.34558391571045,32.22025680541992,113.39179229736328
0,1116979,76.40841674804688,-30.060638427734375,15.784114837646484,26.61321449279785
0,1116981,-24.346847534179688,-50.1728630065918,-23.789064407348633,-173.96290588378906
0,1116983,-44.11149215698242,11.274203300476074,-23.733394622802734,-30.514768600463867
0,1116985,14.364072799682617,80.68453216552734,16.174583435058594,229.2495574951172
0,1116987,1.3470317125320435,-26.72268295288086,31.83698081970215,-29.98261260986328
0,1116989,38.49781036376953,-9.503437042236328,9.138282775878906,-101.10719299316406
0,1116991,-3.4295077323913574,27.979900360107422,-34.54292678833008,51.4398078918457
0,1116993,-44.19694900512695,-64.51810455322266,-25.796091079711914,-31.885276794433594
0,1116995,-69.1591796875,-2.988126277923584,3.9659311771392822,-53.75491714477539
0,1116997,12.67904281616211,37.43551254272461,18.873151779174805,65.71116638183594
0,1116999,159.58432006835938,-6.001239776611328,33.28231430053711,134.9856719970703
0,1117001,-11.236385345458984,-34.70600891113281,-9.645926475524902,-128.78575134277344
0,1117003,-112.67333221435547,11.912859916687012,-18.877971649169922,-165.84413146972656
0,1117005,30.410598754882812,71.24980163574219,12.764431953430176,103.95308685302734
0,1117007,13.861556053161621,-24.387256622314453,-16.018888473510742,48.46012878417969
0,1117009,20.855756759643555,-20.305219650268555,-22.410905838012695,32.305389404296875
0,1117011,21.648815155029297,-6.534679889678955,-13.464958190917969,30.687091827392578
0,1117013,-62.6281852722168,-61.131813049316406,8.390280723571777,-77.70818328857422
0,1117015,-41.18408203125,32.49040222167969,60.814208984375,-76.19728088378906
0,1117017,61.20655822753906,107.74482727050781,28.429744720458984,85.22373962402344
0,1117020,49.58261489868164,-9.546710014343262,-45.41182327270508,53.339027404785156
0,1117021,-60.40590286254883,-58.016788482666016,-14.74960994720459,-102.29515838623047
0,1117022,-12.263762474060059,34.93394088745117,6.887514114379883,54.82843017578125
0,1117025,22.614208221435547,-23.047714233398438,-8.614603042602539,54.49369430541992
0,1117026,-32.606143951416016,-32.19797134399414,25.11548614501953,-144.7549591064453
0,1117029,-1.1821032762527466,29.256298065185547,21.036680221557617,43.311946868896484
0,1117030,89.07861328125,-30.734384536743164,-42.45966720581055,187.86830139160156
0,1117033,7.88803768157959,24.757055282592773,-54.72247314453125,-113.34559631347656
0,1117034,-86.8860855102539,76.96003723144531,39.75502395629883,-100.88128662109375
0,1117037,24.902772903442383,-62.53689193725586,33.41667556762695,59.50336837768555
0,1117038,0.8919801115989685,-116.38797760009766,-71.40875244140625,-110.21009063720703
0,1117041,-17.721446990966797,39.57171630859375,32.136112213134766,68.99900817871094
0,1117042,37.60598373413086,95.09386444091797,79.04411315917969,208.2244110107422
0,1117045,-53.3159294128418,-59.30874252319336,-56.51927947998047,-97.53899383544922
0,1117046,-49.67475509643555,-76.46226501464844,-57.40305709838867,-173.9264678955078
0,1117049,69.35444641113281,92.8431396484375,37.81924819946289,71.65669250488281
0,1117050,112.11128234863281,103.93753051757812,83.21835327148438,208.89735412597656
0,1117053,-47.9316291809082,-38.846317291259766,-5.281160831451416,-140.20587158203125
0,1117054,-116.45901489257812,-47.44985580444336,-79.82625579833984,-195.5785675048828
0,1117060,22.57297706604004,-1.9408587217330933,-11.577698707580566,226.315185546875
0,1117060,53.53779983520508,-6.547329902648926,31.40546417236328,150.52438354492188
0,1117061,9.951029777526855,7.313110828399658,9.178705215454102,-157.2576446533203
0,1117062,-35.080230712890625,8.935328483581543,0.04968506470322609,-152.3542022705078
0,1117065,13.275726318359375,-26.626935958862305,-9.204167366027832,27.915536880493164
0,1117066,-17.824676513671875,-96.57211303710938,-47.60505294799805,-16.492918014526367
0,1117069,-40.14106750488281,-8.875166893005371,-8.587830543518066,34.90557098388672
0,1117070,125.65016174316406,150.6092987060547,33.01210021972656,150.9775848388672
0,1117073,-22.488922119140625,35.78321075439453,48.92890167236328,-166.78598022460938
0,1117074,-131.2766571044922,-73.84900665283203,62.763336181640625,-98.77349090576172
0,1117077,81.58181762695312,6.724606990814209,-44.256717681884766,197.91348266601562
0,1117078,64.60722351074219,24.354324340820312,-56.73227310180664,107.38034057617188
0,1117081,-31.2974910736084,-16.183555603027344,11.974910736083984,-93.01272583007812
0,1117082,-14.200394630432129,-16.236631393432617,6.7906365394592285,-136.261962890625
0,1117085,-51.865882873535156,-6.949545383453369,-48.769718170166016,87.20232391357422
0,1117086,-48.783424377441406,4.058157444000244,1.372074007987976,37.881595611572266
0,1117089,86.2928695678711,17.64027976989746,88.67467498779297,-29.975263595581055
0,1117090,95.36870574951172,-1.1069339513778687,-27.068761825561523,154.49069213867188
0,1117093,-114.23357391357422,-28.64206314086914,-65.50183868408203,-112.67608642578125
0,1117094,-91.72135162353516,2.101088523864746,51.136844635009766,-183.83958435058594
0,1117097,70.09814453125,-22.965408325195312,1.1686623096466064,87.21683502197266
0,1117098,49.50914001464844,-24.489349365234375,-51.990760803222656,9.244864463806152
0,1117101,11.603392601013184,112.41223907470703,48.82859420776367,77.28777313232422
0,1117102,-26.48030662536621,47.987220764160156,45.83966827392578,101.71214294433594
0,1117105,13.620529174804688,-83.30594635009766,-18.390274047851562,-113.61741638183594
0,1117106,-22.734710693359375,-67.12059783935547,-40.954593658447266,-174.21780395507812
0,1117109,-23.57228660583496,-11.268370628356934,-15.357965469360352,-15.364398002624512
0,1117110,92.42597961425781,29.763988494873047,0.970278799533844,259.84295654296875
0,1117113,-66.94354248046875,14.829363822937012,-12.783884048461914,79.51701354980469
0,1117114,-77.21473693847656,-0.6187339425086975,36.573951721191406,-185.29074096679688
0,1117117,79.80316925048828,27.786903381347656,8.667768478393555,-113.75987243652344
0,1117118,50.435218811035156,5.455931186676025,-33.74323272705078,-2.3910276889801025
0,1117121,20.806396484375,-41.343379974365234,42.77934646606445,194.00599670410156
0,1117122,-36.99799728393555,56.97941589355469,40.812076568603516,81.73262786865234
0,1117125,-53.985958099365234,56.851097106933594,-41.61368942260742,-186.4153289794922
0,1117126,-6.814877033233643,-35.626888275146484,-19.486146926879883,-112.03499603271484
0,1117129,34.93440246582031,-79.25444030761719,-2.5300140380859375,163.49888610839844
0,1117130,64.48976135253906,-53.68108367919922,-25.129451751708984,118.36803436279297
0,1117133,-47.88867950439453,46.37229919433594,29.504728317260742,-80.89901733398438
0,1117134,-71.09770965576172,18.978635787963867,5.748049259185791,-43.384239196777344
0,1117137,51.996315002441406,32.76748275756836,-6.298839092254639,-121.98214721679688
0,1117138,35.14297866821289,61.307960510253906,47.02132797241211,65.3090591430664
0,1117141,-51.620601654052734,-67.11180114746094,-33.88179016113281,199.4970245361328
0,1117142,-21.322406768798828,-36.21853256225586,-47.549198150634766,-106.92929077148438
0,1117145,54.99724197387695,36.81698989868164,7.125938892364502,-54.088130950927734
0,1117146,-33.76017761230469,-9.46518611907959,38.865970611572266,5.115171909332275
0,1117149,-12.749951362609863,10.004461288452148,30.646251678466797,-33.948814392089844
0,1117150,96.23938751220703,-5.071350574493408,-46.76637649536133,103.49348449707031
0,1117153,-47.46668243408203,-29.887409210205078,-0.2433711290359497,-39.22022247314453
0,1117154,-80.71821594238281,11.21729564666748,28.619863510131836,-99.08164978027344
0,1117157,49.54093933105469,11.079829216003418,-17.18412971496582,47.19979476928711
0,1117158,50.337432861328125,-3.8288843631744385,-15.211831092834473,47.827911376953125
0,1117161,-12.930269241333008,4.7734222412109375,-2.6704940795898438,53.608707427978516
0,1117162,-35.02958297729492,-28.564294815063477,2.9718735218048096,-8.257572174072266
0,1117165,10.049736022949219,16.662817001342773,2.3058853149414062,-112.24442291259766
0,1117166,-28.30673599243164,47.63743209838867,17.006017684936523,-105.5784683227539
0,1117169,-18.789382934570312,-35.68579864501953,-6.6126861572265625,137.8257598876953
0,1117170,100.38819122314453,1.716286301612854,-12.797402381896973,230.1250762939453
0,1117173,-10.867425918579102,44.83073806762695,20.58013343811035,-247.33888244628906
0,1117174,-107.00401306152344,-45.930328369140625,-12.686297416687012,-205.029541015625
0,1117177,35.526309967041016,-37.56562042236328,-9.237844467163086,216.70594787597656
0,1117178,84.88406372070312,32.17613220214844,4.8308186531066895,139.56787109375
0,1117181,-32.21829605102539,-12.48643684387207,0.3830220401287079,-14.234548568725586
0,1117182,-35.86318588256836,-7.611263275146484,35.51185989379883,-93.12377166748047
0,1117185,20.000104904174805,18.129819869995117,0.9801998734474182,0.8694143295288086
0,1117186,-30.403610229492188,5.185507297515869,-27.537946701049805,-73.156982421875
0,1117189,-11.129612922668457,-7.905523300170898,-2.70088529586792,-86.28215789794922
0,1117190,115.86581420898438,31.281883239746094,42.24701690673828,198.8076171875
0,1117193,-10.784074783325195,47.181983947753906,-62.55368423461914,-36.47797775268555
0,1117194,-164.05648803710938,-133.745361328125,-89.41424560546875,-118.84130096435547
0,1117197,26.651716232299805,-41.86072540283203,112.00187683105469,152.35781860351562
0,1117198,100.41451263427734,148.2602081298828,46.550697326660156,-13.063719749450684
0,1117201,-30.165178298950195,-59.79365921020508,-54.235816955566406,-50.14000701904297
0,1117202,-58.48932647705078,-89.71533203125,-17.105308532714844,79.69305419921875
0,1117205,65.50341796875,115.95143127441406,18.597126007080078,-30.31243896484375
0,1117206,19.26812171936035,101.8983154296875,32.66843795776367,-76.2333984375
0,1117209,-67.11529541015625,-65.1307144165039,-29.83911895751953,42.44770050048828
0,1117210,53.07640838623047,-103.45248413085938,-29.884366989135742,-57.83219909667969
0,1117213,4.777154922485352,56.1182861328125,30.12626838684082,14.680325508117676
0,1117214,-59.162841796875,57.25013732910156,44.8831787109375,196.92547607421875
0,1117217,15.469599723815918,-70.98734283447266,-10.953798294067383,-181.16464233398438
0,1117218,36.5296630859375,-29.03519630432129,-39.59722900390625,-136.75942993164062
0,1117221,19.55320930480957,71.58911895751953,1.8881551027297974,246.81271362304688
0,1117222,-18.989673614501953,34.55632400512695,35.83213424682617,-1.9008989334106445
0,1117225,-14.69376277923584,-72.57632446289062,-25.67401123046875,-175.33399963378906
0,1117226,-15.12604808807373,-19.92728614807129,-22.377437591552734,14.408631324768066
0,1117229,23.813201904296875,33.797584533691406,18.73578643798828,144.50067138671875
0,1117230,81.6230239868164,13.337308883666992,5.843419075012207,122.81610870361328
0,1117233,-80.06206512451172,-5.885217666625977,44.948814392089844,-183.64857482910156
0,1117236,-136.64926147460938,-26.548486709594727,-10.132509231567383,-173.6665496826172
0,1117236,62.974754333496094,16.290306091308594,-70.98629760742188,173.5670928955078
0,1117239,117.07079315185547,15.391376495361328,1.2442495822906494,133.61094665527344
0,1117240,-3.776371955871582,-26.51801872253418,20.958969116210938,-106.76207733154297
0,1117243,-41.428470611572266,-14.200544357299805,-38.75165557861328,-131.1388702392578
0,1117244,-25.94994354248047,16.438905715942383,29.330310821533203,19.684158325195312
0,1117247,-20.551876068115234,-3.3404605388641357,56.178062438964844,-17.847368240356445
0,1117248,8.486410140991211,0.39333128929138184,-51.10567092895508,45.972389221191406
0,1117251,53.82105255126953,11.930837631225586,27.149232864379883,194.16270446777344
0,1117252,14.962590217590332,-37.16720199584961,-8.663177490234375,-66.10706329345703
0,1117255,-94.19129943847656,14.99553108215332,-76.51142120361328,-216.9292755126953
0,1117256,21.213014602661133,67.92256164550781,81.6279296875,46.61288070678711
0,1117259,102.23223876953125,0.12806561589241028,19.95363998413086,164.38401794433594
0,1117260,-45.17995834350586,-66.81224822998047,-53.45876693725586,1.6245192289352417
0,1117263,-6.2284979820251465,-13.812301635742188,42.8054084777832,-64.10962677001953
0,1117264,17.740034103393555,80.64276123046875,3.498351573944092,-17.185405731201172
0,1117267,-107.49590301513672,-20.26683235168457,-32.072261810302734,33.57406234741211
0,1117268,41.32389450073242,-27.637718200683594,25.208847045898438,104.17289733886719
0,1117271,108.48567199707031,25.81968879699707,-4.676772117614746,-122.10061645507812
0,1117272,-38.22016906738281,-36.879432678222656,11.74036979675293,-207.40292358398438
0,1117275,-81.39830780029297,12.655040740966797,4.8010663986206055,127.5339584350586
0,1117276,-21.051658630371094,7.760275840759277,-36.14362716674805,165.34815979003906
0,1117279,111.51417541503906,-55.19646072387695,3.1213135719299316,20.884035110473633
0,1117280,13.787352561950684,16.70046043395996,-10.482548713684082,-80.81342315673828
0,1117283,-72.90855407714844,65.14643859863281,9.973413467407227,-55.10505294799805
0,1117284,-15.075153350830078,-48.322120666503906,3.911875009536743,16.773893356323242
0,1117287,-36.77717590332031,-26.654062271118164,-20.43791389465332,-37.6297607421875
0,1117288,48.47802734375,40.7995491027832,8.357391357421875,46.20744705200195
0,1117291,83.57685852050781,-15.360363006591797,19.63515281677246,91.27152252197266
0,1117292,-38.659244537353516,12.218377113342285,-6.931102275848389,-52.12313461303711
0,1117295,-103.564208984375,-27.611785888671875,-13.4423246383667,-187.03221130371094
0,1117296,37.90276336669922,3.8066136837005615,33.11930847167969,2.6980762481689453
0,1117299,114.801025390625,86.20433807373047,0.49013572931289673,257.58367919921875
0,1117300,-51.33948516845703,-34.36414337158203,-26.85813331604004,5.147329807281494
0,1117303,-33.268280029296875,-47.980873107910156,-2.7910592555999756,-188.1620330810547
0,1117304,3.915825605392456,30.505966186523438,-12.789131164550781,-39.55595016479492
0,1117307,-66.83688354492188,11.627384185791016,6.301191806793213,58.5579719543457
0,1117308,29.924270629882812,-31.734312057495117,26.636259078979492,85.45470428466797
0,1117311,104.15502166748047,86.09210968017578,51.711971282958984,68.1131591796875
0,1117312,102.51113891601562,79.20173645019531,5.777371883392334,-22.67327880859375
0,1117315,-176.0358428955078,-197.00234985351562,-99.7259292602539,-104.07604217529297
0,1117316,-215.82321166992188,-110.69587707519531,-14.950910568237305,12.285065650939941
0,1117319,234.76332092285156,161.92523193359375,50.55803680419922,-76.869140625
0,1117320,128.0671844482422,73.88113403320312,2.35148286819458,-105.91889953613281
0,1117323,-116.53042602539062,-79.23294830322266,4.155184268951416,248.1259002685547
0,1117324,-57.33858108520508,-46.813846588134766,-12.49354362487793,79.74931335449219
0,1117327,-27.885608673095703,-12.120185852050781,-6.460442543029785,-205.2454833984375
0,1117328,52.85932159423828,47.05510330200195,22.670948028564453,45.12804412841797
0,1117331,35.013755798339844,25.794401168823242,-37.794559478759766,133.0000762939453
0,1117332,-21.441450119018555,-38.43842315673828,-24.42965316772461,-76.65086364746094
0,1117335,-36.041038513183594,3.1865792274475098,42.76897430419922,-135.51095581054688
0,1117336,7.718780994415283,18.545087814331055,22.13099479675293,46.68886947631836
0,1117339,61.36475372314453,26.731304168701172,6.214159965515137,191.90737915039062
0,1117340,-22.373823165893555,-1.8363780975341797,-32.42921829223633,-23.148061752319336
0,1117343,-26.52556800842285,-36.31855010986328,0.13916924595832825,-149.23838806152344
0,1117344,10.430988311767578,-21.0893611907959,22.279129028320312,2.6241164207458496
0,1117347,-27.424039840698242,27.384504318237305,-20.370441436767578,24.00994110107422
0,1117348,16.18453025817871,-12.180802345275879,-3.4931187629699707,23.112831115722656
0,1117351,43.99650955200195,-24.501413345336914,0.46869173645973206,-1.2476704120635986
0,1117352,-12.745967864990234,76.2205581665039,23.68566131591797,-8.120841026306152
0,1117355,-55.44754409790039,4.814435958862305,35.45051956176758,-5.394626140594482
0,1117356,3.951724052429199,-44.764610290527344,-36.50319290161133,-45.362483978271484
0,1117359,64.18921661376953,12.893722534179688,-25.892559051513672,101.37864685058594
0,1117360,11.230289459228516,7.209081172943115,34.20376968383789,72.21678924560547
0,1117363,-24.671586990356445,-11.78776741027832,3.86348295211792,-147.8705596923828
0,1117364,-19.780256271362305,-10.537921905517578,-10.985445022583008,-103.74977111816406
0,1117367,-27.88520622253418,-8.335367202758789,-15.133837699890137,4.564704418182373
0,1117368,23.87216567993164,5.3995842933654785,-23.203691482543945,107.28491973876953
0,1117371,46.7202033996582,2.0160276889801025,-1.4319243431091309,147.36976623535156
0,1117372,-46.00663757324219,-35.57819747924805,6.688440799713135,-69.6018295288086
0,1117375,-43.468570709228516,24.18484878540039,14.018388748168945,-163.79473876953125
0,1117377,59.00407409667969,53.81602478027344,18.50885009765625,0.713202953338623
0,1117379,22.7737979888916,-16.22370147705078,6.414319038391113,157.5528106689453
0,1117381,-35.735416412353516,-17.621313095092773,1.4729430675506592,55.44025421142578
0,1117383,23.3562068939209,16.614187240600586,-7.855213165283203,-82.6182861328125
0,1117385,-9.896407127380371,-10.940481185913086,-19.823503494262695,-56.456809997558594
0,1117387,-34.90395736694336,-11.975836753845215,-4.097925186157227,-11.589753150939941
0,1117389,42.33578872680664,42.006858825683594,29.575441360473633,95.77165985107422
0,1117391,2.3878657817840576,-22.605134963989258,-13.984914779663086,-35.39562225341797
0,1117393,-37.48593521118164,-57.82508087158203,-44.02510070800781,-123.02141571044922
0,1117395,-36.885623931884766,10.334918022155762,32.67375946044922,60.87858581542969
0,1117397,5.678503036499023,31.033283233642578,30.644283294677734,89.41874694824219
0,1117399,74.7589340209961,41.57849884033203,-17.704267501831055,11.705683708190918
0,1117401,15.921064376831055,-5.920013904571533,-4.471034526824951,-37.85272216796875
0,1117403,-12.693211555480957,-40.979915618896484,-1.7425519227981567,-46.96829605102539
0,1117405,-37.042327880859375,-8.737128257751465,-9.666302680969238,-38.689552307128906
0,1117407,-54.28239059448242,-19.866674423217773,-3.409862995147705,-22.59299659729004
0,1117409,52.11799240112305,18.197437286376953,21.546945571899414,115.1175765991211
0,1117412,44.44061279296875,68.80795288085938,26.722341537475586,50.36615753173828
0,1117413,-42.260719299316406,-20.69474220275879,-22.098848342895508,-119.34184265136719
0,1117414,4.048459053039551,-31.129133224487305,-8.622992515563965,46.644081115722656
0,1117417,29.04962921142578,32.93097686767578,20.0863094329834,-13.758526802062988
0,1117418,-7.7991557121276855,-45.31819152832031,-47.94821548461914,-67.74468994140625
0,1117422,-6.416971683502197,-26.66261863708496,-7.603091239929199,132.45416259765625
0,1117423,-1.5858453512191772,42.66474914550781,40.8433837890625,3.1555190086364746
0,1117424,-42.616119384765625,-13.653841018676758,-25.208986282348633,-128.8931427001953
0,1117427,-28.28194808959961,0.2604603171348572,19.894311904907227,27.867830276489258
0,1117428,41.14236068725586,9.177020072937012,18.203393936157227,91.3803939819336
0,1117431,62.35883331298828,-12.73608112335205,-20.88623809814453,-5.712912559509277
0,1117432,23.561370849609375,7.083743572235107,16.05221176147461,-33.7851448059082
0,1117435,-103.2115249633789,7.176395416259766,-24.227949142456055,-45.81486511230469
0,1117436,-26.97150993347168,-6.657841682434082,-31.996049880981445,-7.9039716720581055
0,1117439,96.72091674804688,-20.059173583984375,15.447997093200684,56.26839828491211
0,1117440,-19.621938705444336,17.03661346435547,28.67438507080078,-16.272022247314453
0,1117443,-7.13032341003418,50.30669021606445,34.9552001953125,-10.343567848205566
0,1117444,13.2132568359375,-17.924644470214844,-15.012687683105469,16.812143325805664
0,1117447,-54.42349624633789,-24.061391830444336,-10.542318344116211,-26.220590591430664
0,1117448,19.788591384887695,24.55035972595215,13.852728843688965,-35.48771667480469
0,1117451,65.86125183105469,-19.78301239013672,-37.985809326171875,70.84269714355469
0,1117452,-17.800296783447266,-7.631992340087891,-9.167404174804688,121.46575927734375
0,1117455,-88.83671569824219,3.0480668544769287,13.749326705932617,-186.00970458984375
0,1117456,13.635945320129395,-18.42317771911621,9.280129432678223,-94.32058715820312
0,1117459,93.39344787597656,17.949268341064453,10.487102508544922,191.58755493164062
0,1117460,-26.215124130249023,22.367448806762695,-5.04911470413208,-46.152488708496094
0,1117463,-42.1695671081543,-5.561598777770996,-4.626964569091797,38.45720672607422
0,1117464,20.30978012084961,-24.738414764404297,-7.679964542388916,78.00037384033203
0,1117467,-33.90974426269531,-31.20354461669922,-11.696610450744629,-255.8638153076172
0,1117468,28.38545799255371,11.65447998046875,11.183712005615234,124.44153594970703
0,1117471,85.15290832519531,45.209388732910156,20.165740966796875,222.1123504638672
0,1117472,-44.5904426574707,13.327706336975098,-26.086040496826172,-240.5023956298828
0,1117475,-107.26068878173828,-6.9518914222717285,24.74694061279297,-82.76236724853516
0,1117476,-3.298414945602417,-23.529855728149414,19.83725929260254,84.7797622680664
0,1117479,88.32427978515625,-3.978233814239502,-63.905677795410156,99.00843048095703
0,1117480,-5.245116710662842,-9.286982536315918,-4.381903171539307,23.096302032470703
0,1117483,-14.557555198669434,-22.055313110351562,29.36542510986328,-108.22364044189453
0,1117484,14.968218803405762,47.42141342163086,5.831695556640625,3.0312273502349854
0,1117487,-56.719791412353516,28.311492919921875,4.813121318817139,-156.28338623046875
0,1117488,22.19550895690918,-24.870800018310547,11.105175971984863,-122.72005462646484
0,1117491,89.44657135009766,-13.333677291870117,1.0711150169372559,344.8067321777344
0,1117492,-3.5286777019500732,-30.8177490234375,-17.669607162475586,234.0449981689453
0,1117495,-111.98506927490234,-13.706648826599121,-19.137231826782227,-212.65118408203125
0,1117496,-18.131511688232422,48.15288543701172,16.311288833618164,-205.6864776611328
0,1117499,106.11235809326172,23.477981567382812,18.314205169677734,237.89952087402344
0,1117500,-10.092881202697754,-36.8680419921875,-30.114646911621094,212.0592041015625
0,1117503,-57.009620666503906,-31.085094451904297,-10.031031608581543,-415.6888122558594
0,1117504,15.874740600585938,26.027135848999023,18.749807357788086,-256.47998046875
0,1117507,-17.383665084838867,36.88919448852539,20.528846740722656,329.67169189453125
0,1117508,22.57649040222168,-9.988991737365723,5.485405445098877,190.8652801513672
0,1117511,96.60523986816406,-15.380491256713867,-21.231250762939453,-139.08253479003906
0,1117512,-42.92997360229492,7.635923862457275,-10.642248153686523,-113.38875579833984
0,1117515,-116.93511199951172,18.005386352539062,61.5384407043457,-0.3990848660469055
0,1117516,34.384796142578125,-0.5580182671546936,-1.2460263967514038,-8.375986099243164
0,1117519,93.81427001953125,-11.719704627990723,-96.32678985595703,13.196447372436523
0,1117520,-32.6474494934082,1.9172582626342773,21.424779891967773,166.73690795898438
0,1117523,-39.82587432861328,-26.810462951660156,44.94819641113281,117.88787841796875
0,1117524,16.249507904052734,-31.072795867919922,-22.337055206298828,-219.9022674560547
0,1117527,-44.7460823059082,18.794618606567383,9.637776374816895,-142.83154296875
0,1117528,13.847551345825195,6.708148002624512,6.310317039489746,119.30653381347656
0,1117531,79.14136505126953,8.017500877380371,-29.034931182861328,76.39974975585938
0,1117532,-12.24650764465332,29.534664154052734,1.4651587009429932,51.69502639770508
0,1117535,-73.88064575195312,-16.46900177001953,22.371429443359375,-49.882041931152344
0,1117536,2.982835292816162,-15.520536422729492,-0.627440869808197,-44.764076232910156
0,1117539,95.92794036865234,31.328649520874023,-6.393764019012451,35.2287483215332
0,1117540,0.9821547269821167,12.078433990478516,8.297256469726562,-112.82015991210938
0,1117543,-74.59676361083984,-37.87743377685547,-5.703858852386475,-41.58586120605469
0,1117544,-24.272672653198242,-4.500890731811523,-14.00222396850586,113.0965347290039
0,1117547,-21.78913116455078,30.209989547729492,5.771605968475342,76.38430786132812
0,1117548,38.8216667175293,-5.568892002105713,9.270241737365723,121.03143310546875
0,1117551,71.52632141113281,11.274553298950195,2.9574897289276123,-76.59880828857422
0,1117552,-38.00191879272461,4.582090854644775,-26.262720108032227,-183.26907348632812
0,1117555,-64.81035614013672,-57.65837860107422,2.885239601135254,-35.38780975341797
0,1117556,31.7658634185791,-19.221759796142578,29.708526611328125,12.40579605102539
0,1117559,48.75520706176758,63.75315475463867,5.41772985458374,132.97833251953125
0,1117560,-21.367565155029297,26.50899314880371,3.376214027404785,23.171838760375977
0,1117563,19.690139770507812,-29.617996215820312,3.492424726486206,-19.96824836730957
0,1117564,2.163245439529419,-2.9060816764831543,2.0141754150390625,-38.78773498535156
0,1117567,-76.08478546142578,-29.91332244873047,-40.78131866455078,-69.56977081298828
0,1117568,50.59210968017578,-44.165191650390625,-25.847332000732422,147.1697998046875
0,1117571,39.29220199584961,31.09309196472168,26.468141555786133,-13.388179779052734
0,1117572,-69.79519653320312,61.157100677490234,19.810749053955078,-148.28782653808594
0,1117575,-31.060781478881836,-3.0938384532928467,31.766319274902344,13.744176864624023
0,1117576,31.082387924194336,-21.4593448638916,0.5592865943908691,82.0667953491211
0,1117579,57.63933563232422,9.123204231262207,-42.99824905395508,62.61403274536133
0,1117580,-23.467247009277344,-18.774869918823242,-20.22591781616211,-81.73765563964844
0,1117583,-15.020691871643066,-13.87955379486084,19.403278350830078,-28.989051818847656
0,1117584,-2.127171516418457,-4.008111953735352,19.044858932495117,108.3533706665039
0,1117587,-31.22817039489746,33.55484390258789,-4.121387481689453,-18.139549255371094
0,1117588,59.1387939453125,49.763553619384766,-6.641998767852783,-3.947460174560547
0,1117591,49.107261657714844,-46.23476028442383,-11.327266693115234,-14.16786003112793
0,1117592,-46.3306999206543,-31.674625396728516,13.089784622192383,-123.64151000976562
0,1117595,-90.31494903564453,1.0406430959701538,-6.310041427612305,-46.29755401611328
0,1117596,18.45927619934082,-3.971515417098999,-23.53438377380371,39.59066390991211
0,1117599,90.44673919677734,32.68349838256836,10.635452270507812,128.3867950439453
0,1117600,-27.28564453125,-10.14007568359375,5.860893249511719,-8.337801933288574
0,1117603,6.560011863708496,-9.984657287597656,12.086221694946289,-29.58363151550293
0,1117604,9.410978317260742,15.944204330444336,-3.2040200233459473,58.91542434692383
0,1117607,-41.61284637451172,-9.523366928100586,-6.255101680755615,-54.30828857421875
0,1117609,30.449291229248047,-2.836293935775757,24.669029235839844,50.02560043334961
0,1117611,6.876916885375977,10.702516555786133,0.9338701963424683,-7.75172233581543
0,1117613,-36.31675720214844,1.4234483242034912,-22.63115692138672,-117.50802612304688
0,1117615,-54.08073425292969,-37.87836837768555,-21.67452049255371,-0.3564802408218384
0,1117617,37.59685134887695,13.716911315917969,22.437166213989258,52.83795166015625
0,1117622,154.4451446533203,61.642940521240234,33.551143646240234,185.5177764892578
0,1117622,-10.684683799743652,6.689019680023193,-17.686349868774414,26.303226470947266
0,1117623,-138.96592712402344,-15.528807640075684,-13.682329177856445,-215.9977569580078
0,1117625,-31.6743221282959,-50.39665222167969,6.841604709625244,-89.54901123046875
0,1117627,6.027615070343018,-42.070316314697266,-17.863142013549805,40.37053298950195
0,1117629,27.58685874938965,48.73748016357422,-17.443300247192383,116.81295013427734
0,1117631,29.241249084472656,12.12343978881836,25.0965633392334,-26.397762298583984
0,1117633,-36.29191970825195,-40.56648254394531,11.684447288513184,-114.23988342285156
0,1117635,-34.51529312133789,32.875186920166016,7.846729278564453,-1.9515866041183472
0,1117637,12.898157119750977,8.755313873291016,3.826439142227173,35.108821868896484
0,1117639,56.9007568359375,-28.675880432128906,-31.2823543548584,141.15916442871094
0,1117641,23.5147705078125,5.223721981048584,-2.4957942962646484,28.657732009887695
0,1117643,-0.2281368225812912,36.34477233886719,27.06883430480957,-96.23634338378906
0,1117645,-19.1328182220459,2.433228015899658,2.059619188308716,-6.829253673553467
0,1117647,-36.862754821777344,-36.488216400146484,-12.413200378417969,18.16289710998535
0,1117649,31.887617111206055,25.226829528808594,-14.672282218933105,-6.36752462387085
0,1117651,16.115663528442383,17.755615234375,-7.074248790740967,-146.9540557861328
0,1117653,-18.431596755981445,-19.715145111083984,27.01997947692871,11.839320182800293
0,1117655,-18.55624771118164,0.022304274141788483,29.13157844543457,228.01004028320312
0,1117657,-9.504071235656738,6.723670959472656,-13.862408638000488,-0.8183481693267822
0,1117659,38.47500991821289,-39.343360900878906,-44.07683181762695,-70.10153198242188
0,1117661,-7.934538841247559,-14.073111534118652,-11.176663398742676,-57.6522216796875
0,1117663,-1.5837366580963135,46.361793518066406,35.4086799621582,-40.39885330200195
0,1117665,2.368891477584839,20.01810073852539,4.0422444343566895,78.08812713623047
0,1117667,-38.3542366027832,-1.5327715873718262,10.552959442138672,-17.47027015686035
0,1117669,39.92662048339844,-31.47202491760254,-1.7483280897140503,70.76153564453125
0,1117671,52.010467529296875,1.5426608324050903,-25.802217483520508,19.760292053222656
0,1117673,-25.534461975097656,43.196876525878906,35.561370849609375,-176.84912109375
0,1117675,-66.8478012084961,-20.708478927612305,-12.625838279724121,72.41378021240234
0,1117677,-16.239604949951172,-18.2725887298584,-35.79197692871094,109.50756072998047
0,1117679,56.19784164428711,-6.184218883514404,9.966887474060059,-117.92402648925781
0,1117681,-6.917116165161133,-57.79161834716797,-8.026566505432129,-148.91200256347656
0,1117683,-12.778398513793945,26.176733016967773,19.56995391845703,180.445556640625
0,1117685,22.468507766723633,87.36556243896484,35.563514709472656,196.37332153320312
0,1117687,-38.6256217956543,-38.170204162597656,-19.155122756958008,-284.96392822265625
0,1117689,48.98225784301758,-35.535125732421875,-15.174296379089355,-84.26258087158203
0,1117691,12.689111709594727,27.263864517211914,3.450204372406006,243.13211059570312
0,1117693,-62.8408317565918,-2.6731505393981934,7.903928279876709,18.465545654296875
0,1117695,5.970005512237549,-7.807904243469238,5.304538726806641,-121.35844421386719
0,1117697,-21.53512954711914,-26.838090896606445,-25.88928985595703,-78.2825927734375
0,1117699,55.40585708618164,-8.646352767944336,-16.3926944732666,101.39971923828125
0,1117701,17.47926902770996,50.27265548706055,4.622705459594727,94.3736801147461
0,1117703,-34.309024810791016,31.479969024658203,24.15943717956543,-115.81944274902344
0,1117705,24.29936408996582,-53.825050354003906,3.8473916053771973,-87.08381652832031
0,1117707,-24.03748893737793,-2.405846357345581,-10.039979934692383,101.0751724243164
0,1117709,12.641404151916504,75.03294372558594,16.736324310302734,168.5019989013672
0,1117711,7.061899185180664,-32.65346145629883,-8.976675033569336,-106.44251251220703
0,1117713,-46.338661193847656,-45.468162536621094,-0.19049391150474548,-142.12294006347656
0,1117715,-4.483488082885742,32.005489349365234,21.0703125,115.06389617919922
0,1117717,34.37800598144531,12.902857780456543,-24.702735900878906,-24.114669799804688
0,1117719,37.522220611572266,-20.78421401977539,-15.710680961608887,-104.23753356933594
0,1117721,-23.283863067626953,-14.516845703125,17.46551513671875,62.634952545166016
0,1117723,-2.557507038116455,28.430330276489258,4.088805675506592,115.68865966796875
0,1117725,-1.1828320026397705,-0.9387322664260864,12.389689445495605,-25.18655776977539
0,1117727,-42.38722229003906,-42.7481689453125,-21.69268035888672,-129.54444885253906
0,1117729,43.98655700683594,8.555254936218262,-34.76889419555664,112.78401184082031
0,1117731,2.7047598361968994,31.634967803955078,35.55813980102539,29.996692657470703
0,1117733,-33.89230728149414,-17.813169479370117,8.34074878692627,-172.87522888183594
0,1117735,9.229503631591797,-23.704345703125,-13.658327102661133,57.9155158996582
0,1117737,14.003811836242676,19.55891990661621,37.813602447509766,95.6963119506836
0,1117739,17.460098266601562,11.958748817443848,-5.328125953674316,15.937267303466797
0,1117741,-36.91025161743164,-25.43828773498535,-22.86020851135254,-38.45511245727539
0,1117743,18.478294372558594,17.970504760742188,16.9385986328125,21.383102416992188
0,1117745,32.90061569213867,34.697181701660156,-2.473153591156006,0.19217640161514282
0,1117747,-45.379241943359375,-14.083438873291016,-15.090217590332031,-142.15219116210938
0,1117749,41.17513656616211,-15.786649703979492,11.912821769714355,121.22407531738281
0,1117751,3.3290276527404785,-22.280221939086914,-7.82598876953125,91.66822814941406
0,1117753,-87.18549346923828,-9.521529197692871,-30.813716888427734,-179.8771209716797
0,1117755,9.28696346282959,8.73641300201416,18.417943954467773,-83.05016326904297
0,1117757,65.34822845458984,36.05686950683594,30.135507583618164,71.94593811035156
0,1117759,12.9989595413208,29.82490348815918,-20.430057525634766,205.6572265625
0,1117761,-56.65359878540039,-34.758270263671875,-7.558053493499756,71.9714126586914
0,1117763,23.322799682617188,6.059097766876221,35.81321334838867,-146.98446655273438
0,1117765,23.570310592651367,7.8203840255737305,-3.301473379135132,-80.86288452148438
0,1117767,-82.86581420898438,-71.4758071899414,-48.13240432739258,-30.53971290588379
0,1117769,44.1301155090332,17.684144973754883,-4.676222324371338,53.91213607788086
0,1117771,65.79386901855469,70.14916229248047,24.829214096069336,67.9458236694336
0,1117773,-32.5807991027832,-39.738800048828125,2.250826597213745,-100.95040130615234
0,1117775,-31.55069923400879,-40.02557373046875,0.14862509071826935,-68.30730438232422
0,1117777,0.12836973369121552,32.560001373291016,-2.7762460708618164,55.25346755981445
0,1117779,54.84693908691406,30.1361083984375,8.179158210754395,31.463287353515625
0,1117781,-21.282550811767578,-19.49668312072754,-16.49018669128418,-74.74442291259766
0,1117783,-11.50883674621582,-0.9829063415527344,21.134963989257812,147.1046600341797
0,1117785,10.170565605163574,25.8408260345459,22.963306427001953,140.49618530273438
0,1117787,-78.38362884521484,-38.559696197509766,-53.532962799072266,-278.9389343261719
0,1117789,35.34588623046875,-22.222793579101562,-4.478427410125732,26.465824127197266
0,1117791,71.22351837158203,53.81745147705078,23.208805084228516,104.60831451416016
0,1117793,-56.78750991821289,-11.778050422668457,2.621371269226074,-148.48345947265625
0,1117795,-37.65839767456055,-40.52781677246094,-20.673917770385742,115.45476531982422
0,1117797,19.926280975341797,29.42208480834961,10.184070587158203,87.5075912475586
0,1117799,45.94599533081055,3.086984395980835,29.886579513549805,-33.11032485961914
0,1117801,14.685084342956543,-1.6654757261276245,-13.828908920288086,-46.886051177978516
0,1117804,-44.8213996887207,2.526676893234253,-2.755737543106079,-117.91783142089844
0,1117805,7.440818786621094,10.354787826538086,17.470426559448242,-21.15943145751953
0,1117806,-25.45047378540039,10.466791152954102,-0.05013606697320938,29.2235107421875
0,1117809,17.943012237548828,-31.118371963500977,-23.488788604736328,136.74742126464844
0,1117810,132.2055206298828,27.67711639404297,-0.02690431848168373,173.6413116455078
0,1117813,-82.50199127197266,5.9416913986206055,28.41819953918457,-103.7986831665039
0,1117814,-118.51634216308594,-47.71080017089844,3.152783155441284,-126.20699310302734
0,1117817,69.58390808105469,11.066007614135742,-26.67693328857422,-51.746089935302734
0,1117818,26.95099639892578,-19.198471069335938,-13.977282524108887,-58.12078857421875
0,1117821,-20.733400344848633,-13.613945960998535,8.719403266906738,66.76094818115234
0,1117822,-28.95978546142578,68.49786376953125,-5.286571025848389,30.463857650756836
0,1117825,4.4220290184021,6.594364643096924,-12.518403053283691,-41.20859146118164
0,1117826,6.351590156555176,-37.347530364990234,11.404415130615234,-17.24604606628418
0,1117829,29.191659927368164,4.297102451324463,-1.087939977645874,118.57553100585938
0,1117830,95.06845092773438,-10.559748649597168,1.9722031354904175,152.97706604003906
0,1117834,-109.64070129394531,-12.902742385864258,16.481595993041992,-194.41610717773438
0,1117835,-107.77852630615234,18.38177490234375,-16.551029205322266,-166.75746154785156
0,1117836,129.25222778320312,31.653215408325195,11.156567573547363,208.19485473632812
0,1117839,41.50700378417969,9.7767915725708,19.384790420532227,93.60582733154297
0,1117840,-55.400447845458984,-51.629180908203125,-24.998201370239258,-95.51349639892578
0,1117843,22.38878631591797,2.6397604942321777,-0.49200233817100525,-90.25668334960938
0,1117844,-38.41290283203125,5.954433917999268,-0.6592733860015869,-71.73595428466797
0,1117847,-67.53913879394531,-32.98750686645508,-13.131936073303223,94.57708740234375
0,1117848,106.52210998535156,46.24323654174805,20.83843994140625,181.4711456298828
0,1117851,39.61359405517578,7.357828140258789,17.361587524414062,-69.6831283569336
0,1117852,-71.24170684814453,2.14752197265625,-8.85299015045166,-152.8317108154297
0,1117855,-7.894525527954102,11.715824127197266,-8.495750427246094,-0.8221277594566345
0,1117856,0.7279506325721741,-12.61273193359375,-3.744704484939575,51.838802337646484
0,1117859,30.112585067749023,-9.872234344482422,-23.643007278442383,63.3267822265625
0,1117860,-13.81412410736084,-42.551876068115234,-13.39828109741211,1.889846682548523
0,1117863,8.156373977661133,16.065099716186523,44.99628829956055,-12.860589981079102
0,1117864,4.335708141326904,45.51881790161133,36.382869720458984,-53.21415328979492
0,1117867,-51.56399154663086,-12.93867015838623,-16.864465713500977,-14.081778526306152
0,1117868,47.3539924621582,-34.924678802490234,-23.684858322143555,78.9609146118164
0,1117871,30.14655303955078,12.571673393249512,-7.68607234954834,9.415840148925781
0,1117872,-45.97997283935547,4.991664409637451,-7.327178955078125,-48.85349655151367
0,1117875,-48.61147689819336,-14.8772554397583,-6.865784168243408,-112.91897583007812
0,1117876,44.025535583496094,22.905899047851562,5.824245929718018,-25.20020294189453
0,1117879,60.47505569458008,2.5474650859832764,10.160183906555176,191.3570098876953
0,1117880,-44.8299674987793,21.339357376098633,33.39525604248047,99.683349609375
0,1117883,-3.1874194145202637,10.787144660949707,-2.6943511962890625,-100.21681213378906
0,1117884,-0.5317524075508118,-56.66134262084961,-52.64178466796875,-152.6304931640625
0,1117887,-27.82777214050293,-6.04154109954834,31.34352684020996,-21.7540283203125
0,1117888,46.60590362548828,43.33833312988281,47.44227600097656,173.71104431152344
0,1117891,20.240367889404297,-21.867507934570312,-53.47805404663086,-6.602074146270752
0,1117892,-49.7385368347168,-5.045599937438965,-39.70276641845703,-85.15907287597656
0,1117895,-41.64802551269531,20.08568572998047,37.14541244506836,47.824703216552734
0,1117896,34.96167755126953,-7.280280590057373,18.325559616088867,25.11086654663086
0,1117899,44.854183197021484,-8.6550931930542,-41.3604621887207,-8.740777969360352
0,1117900,-51.097469329833984,-9.518829345703125,1.9041794538497925,-60.23493957519531
0,1117903,15.646193504333496,42.37834930419922,45.4716911315918,59.52537536621094
0,1117904,40.37281799316406,-5.01821756362915,-18.882848739624023,-4.928033828735352
0,1117907,-68.02791595458984,-57.013912200927734,-11.161153793334961,-120.86454772949219
0,1117908,40.67894744873047,22.022071838378906,24.97772979736328,134.01336669921875
0,1117911,57.51492691040039,24.742162704467773,-9.48970890045166,52.14580154418945
0,1117912,-68.89801788330078,11.402873992919922,5.556331157684326,-140.3456268310547
0,1117915,-35.17701721191406,-8.008779525756836,-12.441262245178223,3.5740609169006348
0,1117916,26.5573673248291,-48.95435333251953,-12.736885070800781,52.82546615600586
0,1117919,60.38069152832031,31.92363166809082,45.04876708984375,42.60712814331055
0,1117920,-4.1706342697143555,27.81495475769043,-17.775585174560547,-21.34809112548828
0,1117923,-37.37328338623047,-33.61014175415039,-36.09672546386719,-55.31160354614258
0,1117924,-16.001285552978516,-5.625511169433594,5.572824001312256,34.33050537109375
0,1117927,-8.44199275970459,8.607032775878906,18.52189064025879,-23.877155303955078
0,1117928,41.52347946166992,8.955269813537598,26.725412368774414,-22.730445861816406
0,1117931,-18.6825008392334,18.70688247680664,-18.830453872680664,80.05509948730469
0,1117932,-25.71889305114746,-1.775890827178955,-8.905336380004883,23.484485626220703
0,1117935,15.922685623168945,-48.571563720703125,-7.550910949707031,-181.86016845703125
0,1117936,0.9407137632369995,8.948399543762207,-9.919293403625488,-33.34016418457031
0,1117939,32.47944259643555,40.180686950683594,32.46712875366211,229.3208465576172
0,1117940,3.7271461486816406,-34.44498062133789,-16.21707534790039,4.116214275360107
0,1117943,-7.73887300491333,7.21796178817749,-15.598077774047852,-59.2288932800293
0,1117944,-28.100887298583984,34.523502349853516,25.45629119873047,-38.25695037841797
0,1117947,-35.0561637878418,-21.638587951660156,-8.533924102783203,-57.33616256713867
0,1117948,77.54228973388672,-4.345471382141113,-15.918334007263184,132.77935791015625
0,1117951,8.963939666748047,-0.07169908285140991,-21.50711441040039,3.2537777423858643
0,1117952,-77.7207260131836,-19.550655364990234,-2.3847599029541016,-70.73958587646484
0,1117955,-15.753907203674316,1.2808314561843872,49.01016616821289,16.469703674316406
0,1117956,36.488346099853516,15.86343765258789,3.1076183319091797,-64.80009460449219
0,1117959,39.992713928222656,10.212929725646973,-19.93583869934082,80.14681243896484
0,1117960,-36.28486251831055,-13.28964614868164,22.419172286987305,54.26846694946289
0,1117963,3.588702917098999,6.536021709442139,-10.719280242919922,-81.16246795654297
0,1117964,16.993484497070312,20.337100982666016,-15.93910026550293,-45.93349838256836
0,1117967,-74.14271545410156,-41.217437744140625,20.574630737304688,-30.14653205871582
0,1117968,45.6694450378418,3.0305287837982178,9.789802551269531,162.1171875
0,1117971,82.3143310546875,33.75959777832031,3.5199596881866455,61.42710494995117
0,1117972,-78.35157775878906,-46.80965042114258,-18.332576751708984,-164.2043914794922
0,1117975,-40.367488861083984,5.098909378051758,-2.8640506267547607,-95.28195190429688
0,1117976,63.768436431884766,54.37372589111328,23.117406845092773,14.88096809387207
0,1117979,24.38823890686035,-16.7827205657959,-30.060617446899414,155.1581268310547
0,1117980,-49.59825897216797,-31.16742515563965,-11.004531860351562,-21.764150619506836
0,1117983,-1.205489158630371,-10.601378440856934,24.949214935302734,-44.79651641845703
0,1117984,32.151920318603516,30.02060317993164,2.2302796840667725,156.2932586669922
0,1117987,-51.414886474609375,-11.583772659301758,-23.919803619384766,-167.2353515625
0,1117988,33.77430725097656,-17.15294075012207,-7.890212535858154,-59.55463790893555
0,1117991,57.41069030761719,61.573326110839844,30.502330780029297,111.85177612304688
0,1117992,-63.369808197021484,-37.898956298828125,-7.789340972900391,-136.4423828125
0,1117995,-8.149308204650879,-25.384321212768555,-12.104364395141602,75.43946838378906
0,1117996,38.82103729248047,53.273319244384766,44.78584671020508,136.50198364257812
0,1117999,0.6441924571990967,-7.096457004547119,-0.22699618339538574,-5.418773174285889
0,1118000,-59.672916412353516,-27.37505531311035,-52.70021438598633,-42.078487396240234
0,1118003,7.5579447746276855,6.765807628631592,8.600491523742676,-93.16424560546875
0,1118004,49.78803253173828,13.012714385986328,0.2975696623325348,-34.220741271972656
0,1118007,-28.8800048828125,13.96313190460205,-16.02845573425293,53.338897705078125
0,1118008,40.90612030029297,-0.4388055205345154,37.42473602294922,8.916446685791016
0,1118011,8.575470924377441,-61.28615188598633,13.840188026428223,-80.92595672607422
0,1118013,-50.295406341552734,17.99723243713379,-34.006736755371094,53.44071960449219
0,1118015,-7.7976226806640625,49.74367141723633,0.6448543667793274,120.84969329833984
0,1118017,19.156784057617188,-16.72474479675293,23.66023826599121,-11.733595848083496
0,1118019,17.463953018188477,-28.239944458007812,-23.691713333129883,-76.90653228759766
0,1118021,-39.99863815307617,-26.014909744262695,-10.369444847106934,-51.7063102722168
0,1118023,24.877763748168945,59.223575592041016,25.801666259765625,58.980403900146484
0,1118025,-2.6637799739837646,11.057300567626953,5.725315570831299,15.274161338806152
0,1118027,-60.624473571777344,-84.03692626953125,-10.470406532287598,-54.801429748535156
0,1118029,71.97543334960938,9.182490348815918,-8.097672462463379,64.93978118896484
0,1118031,11.969038963317871,34.22174072265625,-13.051307678222656,13.772300720214844
0,1118033,-66.90391540527344,7.850543975830078,19.46647834777832,-83.63207244873047
0,1118035,0.6588063836097717,20.114185333251953,30.593555450439453,63.32827377319336
0,1118037,15.19359016418457,-16.681678771972656,-31.534019470214844,71.70318603515625
0,1118039,38.863983154296875,-12.61582088470459,-14.743117332458496,-158.33631896972656
0,1118041,-21.0802059173584,-1.6305015087127686,20.447433471679688,-57.448490142822266
0,1118043,6.1446123123168945,24.528905868530273,21.44930076599121,176.1373748779297
0,1118045,30.708003997802734,12.435596466064453,19.5749568939209,-37.15291213989258
0,1118048,-41.185665130615234,-46.68547058105469,-44.23196029663086,-101.54985809326172
0,1118049,35.911048889160156,-5.647820472717285,-16.642972946166992,156.01852416992188
0,1118050,50.63134765625,43.36878204345703,12.647584915161133,62.171810150146484
0,1118053,-80.80138397216797,24.719240188598633,-31.150209426879883,-150.94631958007812
0,1118054,-59.737098693847656,-29.540433883666992,14.140535354614258,-78.63768005371094
0,1118057,75.21051788330078,-10.616880416870117,75.71124267578125,119.92909240722656
0,1118058,29.625158309936523,17.333803176879883,15.709877967834473,108.95975494384766
0,1118061,-19.194692611694336,-20.316938400268555,-104.94652557373047,-180.8595733642578
0,1118063,-28.275291442871094,-21.196914672851562,-34.36293029785156,-113.3853530883789
0,1118065,-24.765993118286133,-4.980264186859131,55.184356689453125,144.9998321533203
0,1118067,-13.464985847473145,33.135860443115234,18.053630828857422,47.92938232421875
0,1118069,42.954715728759766,29.532207489013672,13.133503913879395,5.698417663574219
0,1118071,71.48033142089844,-20.433197021484375,-7.646422386169434,-56.94446563720703
0,1118073,-99.03630065917969,-19.191112518310547,-31.136091232299805,-76.61620330810547
0,1118075,-50.00946044921875,-15.186412811279297,-8.678512573242188,101.97521209716797
0,1118077,107.49427032470703,-2.6877737045288086,21.977876663208008,78.40093231201172
0,1118079,17.525896072387695,16.022375106811523,18.482309341430664,-31.057886123657227
0,1118081,-24.002246856689453,28.581167221069336,-10.221450805664062,-40.90543746948242
0,1118083,0.12675264477729797,-8.52340316772461,3.8111605644226074,-64.34584045410156
0,1118085,-44.66378402709961,-28.621057510375977,7.392711162567139,50.922943115234375
0,1118087,-47.69952392578125,4.594720840454102,-16.217525482177734,108.86982727050781
0,1118089,69.6285400390625,29.684371948242188,24.273746490478516,-19.575387954711914
0,1118091,72.16301727294922,-2.570805072784424,4.848672389984131,-80.6714859008789
0,1118093,-112.89382934570312,-77.40296173095703,-39.1865348815918,-256.3528747558594
0,1118095,-42.14859390258789,8.960726737976074,2.3897953033447266,3.503309488296509
0,1118097,109.68045043945312,93.00955200195312,5.484508037567139,433.5523681640625
0,1118099,40.363433837890625,-12.995482444763184,12.744973182678223,3.558293581008911
0,1118101,-20.990650177001953,-38.955318450927734,9.01356029510498,-238.2446746826172
0,1118103,-35.43932342529297,24.187402725219727,-34.813941955566406,-25.473651885986328
0,1118105,-56.3401985168457,-0.6364507079124451,-9.731376647949219,0.29859986901283264
0,1118107,-20.43895721435547,-24.7285213470459,14.508220672607422,62.23505783081055
0,1118109,111.98692321777344,18.10742950439453,21.272436141967773,89.58988189697266
0,1118111,70.57994079589844,22.477672576904297,23.855234146118164,2.0134966373443604
0,1118113,-126.70823669433594,-7.201571464538574,2.0183355808258057,-131.6299591064453
0,1118115,-62.492637634277344,-2.9002180099487305,-20.953693389892578,-27.015779495239258
0,1118117,72.59844970703125,-40.617706298828125,-27.201257705688477,159.24098205566406
0,1118119,20.917442321777344,-33.64652633666992,-11.290946006774902,-25.497983932495117
0,1118121,-10.793344497680664,46.866065979003906,20.53216552734375,-125.83760833740234
0,1118123,11.428525924682617,24.672794342041016,11.907379150390625,47.64717483520508
0,1118125,-16.062244415283203,-9.271940231323242,-20.614389419555664,2.0125346183776855
0,1118127,-38.64010238647461,-20.9259090423584,19.359519958496094,-44.54570770263672
0,1118129,42.85038375854492,-15.2457275390625,15.954424858093262,135.7828826904297
0,1118131,57.47298049926758,11.089866638183594,-38.32347106933594,45.541770935058594
0,1118133,-114.83563232421875,-11.082701683044434,-6.15713357925415,-218.5818328857422
0,1118135,-35.2912483215332,38.58196258544922,45.50932693481445,-24.14681625366211
0,1118137,131.2100372314453,14.957561492919922,0.12404171377420425,227.30857849121094
0,1118139,3.0167152881622314,-21.525238037109375,-21.713651657104492,-4.157155513763428
0,1118141,-40.55772399902344,27.286863327026367,20.134483337402344,-98.86209106445312
0,1118143,-18.421823501586914,-25.355260848999023,-7.339487075805664,19.816303253173828
0,1118145,-33.038734436035156,-30.904813766479492,-21.951326370239258,-116.0030288696289
0,1118147,-1.3215506076812744,28.353153228759766,6.070359230041504,-19.37395477294922
0,1118149,42.281463623046875,26.909778594970703,-4.594903469085693,228.0638885498047
0,1118151,55.08913803100586,2.4296579360961914,-4.290910243988037,3.3302717208862305
0,1118153,-76.16114044189453,-41.520957946777344,13.133234977722168,-210.1565704345703
0,1118155,-35.50535202026367,-11.497688293457031,22.5223331451416,52.22804641723633
0,1118157,98.51557922363281,20.19378662109375,-16.299285888671875,145.70529174804688
0,1118159,-8.993056297302246,-28.587961196899414,-40.854148864746094,-126.8499984741211
0,1118161,-29.305477142333984,35.87681198120117,29.187772750854492,-43.45016860961914
0,1118163,15.770994186401367,44.44331359863281,19.18588638305664,111.59765625
0,1118165,-36.28342819213867,-62.57185745239258,-6.249878883361816,-22.21245574951172
0,1118167,-2.714160919189453,-20.306745529174805,24.75993537902832,6.110963344573975
0,1118169,51.45241165161133,60.3726692199707,-16.32163429260254,-51.12403869628906
0,1118171,30.928546905517578,21.91714859008789,-24.98006248474121,-11.940731048583984
0,1118173,-86.96992492675781,-54.00705337524414,-1.78252112865448,45.42954635620117
0,1118175,-75.13760375976562,-40.08746337890625,-0.8028061389923096,-126.45846557617188
0,1118177,105.53921508789062,35.72019577026367,3.5025901794433594,107.62423706054688
0,1118179,60.5712890625,18.993366241455078,-0.11175913363695145,105.32771301269531
0,1118181,-39.088417053222656,-28.040773391723633,-8.222020149230957,-103.9223403930664
0,1118183,-25.11897087097168,-21.20244026184082,4.75905704498291,7.8473124504089355
0,1118185,-53.93136978149414,16.296234130859375,-0.29551267623901367,-21.457721710205078
0,1118187,13.175910949707031,33.116554260253906,9.070630073547363,17.872344970703125
0,1118189,91.64859008789062,-3.286771774291992,26.13585090637207,34.696693420410156
0,1118191,6.024130344390869,19.455556869506836,-28.093032836914062,-75.73834991455078
0,1118193,-87.02273559570312,0.46668684482574463,-14.171388626098633,-26.29654312133789
0,1118195,-29.624378204345703,-42.42595672607422,36.264190673828125,68.55693054199219
0,1118197,84.40827941894531,11.116340637207031,4.333639144897461,53.458587646484375
0,1118199,8.484225273132324,24.472835540771484,-8.347099304199219,-22.33644676208496
0,1118201,-49.03235626220703,-21.071605682373047,-12.48338794708252,26.645875930786133
0,1118203,1.3619556427001953,-20.21110725402832,-7.200160980224609,-5.638303756713867
0,1118205,-10.884295463562012,21.55805015563965,17.307537078857422,-144.9191131591797
0,1118207,-3.111079692840576,-4.967939376831055,-20.196449279785156,-10.413238525390625
0,1118209,58.24726867675781,-2.3107666969299316,-1.1894032955169678,133.8886260986328
0,1118211,33.16143798828125,19.419158935546875,18.52351951599121,23.010866165161133
0,1118213,-115.75523376464844,-33.12459945678711,-10.414538383483887,-57.09922790527344
0,1118215,-34.846439361572266,5.782529830932617,21.10628890991211,5.2451605796813965
0,1118217,117.01627349853516,55.87025833129883,15.20969295501709,51.86519241333008
0,1118219,8.654623031616211,-26.807437896728516,-28.19930648803711,-63.033470153808594
0,1118221,-22.070955276489258,-36.55806350708008,0.6460487246513367,-18.997882843017578
0,1118223,20.51958465576172,7.323509216308594,5.072895050048828,79.9917221069336
0,1118225,-51.102474212646484,22.651485443115234,-18.441314697265625,-78.04049682617188
0,1118227,-46.038780212402344,8.773541450500488,8.26851749420166,18.01495361328125
0,1118229,69.59168243408203,-36.914207458496094,-9.754977226257324,129.04151916503906
0,1118231,44.538238525390625,-5.425051689147949,-15.707531929016113,-94.1603775024414
0,1118233,-68.09268951416016,36.51752853393555,24.8486385345459,-150.27658081054688
0,1118235,-8.179786682128906,22.51045799255371,11.79673957824707,89.58216857910156
0,1118237,63.22065734863281,-2.9228899478912354,-16.091386795043945,131.77871704101562
0,1118239,-5.303248405456543,-16.00684356689453,-12.896108627319336,-103.0171127319336
0,1118241,-70.29268646240234,-30.80083465576172,-12.574295997619629,-56.2922248840332
0,1118243,-4.014492034912109,13.622267723083496,5.127519607543945,13.673081398010254
0,1118245,24.605932235717773,31.04631996154785,43.70427703857422,-52.65606689453125
0,1118247,-21.578989028930664,-34.58448028564453,12.119098663330078,72.20279693603516
0,1118249,60.48206329345703,-36.67757034301758,-30.804540634155273,149.58970642089844
0,1118251,32.88334274291992,9.869344711303711,-9.858980178833008,-1.5018326044082642
0,1118253,-117.52102661132812,22.73468017578125,6.892679691314697,-172.89193725585938
0,1118255,7.669982433319092,16.564411163330078,23.945070266723633,-32.13333511352539
0,1118257,118.41242218017578,6.106197834014893,-4.279096603393555,102.58235931396484
0,1118259,-22.392175674438477,-1.081786870956421,-24.692184448242188,-25.472984313964844
0,1118261,-32.13417053222656,0.5762909650802612,6.332881927490234,49.209163665771484
0,1118263,25.36160659790039,-10.881610870361328,-2.015324592590332,59.91001510620117
0,1118265,-65.51019287109375,-21.27566146850586,8.538874626159668,-120.9515380859375
0,1118267,-56.20570755004883,-24.98440170288086,-9.762468338012695,-64.43265533447266
0,1118269,116.4879150390625,28.939855575561523,-6.782015323638916,100.6126480102539
0,1118271,50.007232666015625,55.04277038574219,27.775001525878906,81.5296630859375
0,1118273,-135.352783203125,-37.428955078125,-8.981818199157715,-145.91763305664062
0,1118275,-23.72019386291504,-17.970003128051758,-9.994962692260742,-30.979496002197266
0,1118277,114.22211456298828,43.03771209716797,9.857939720153809,142.7625274658203
0,1118279,8.103906631469727,-0.038304876536130905,15.905985832214355,-3.480529308319092
0,1118281,-51.87843704223633,-24.621780395507812,-14.221941947937012,-16.051063537597656
0,1118283,19.30377197265625,-31.095991134643555,-34.64609146118164,-72.54495239257812
0,1118286,-25.588279724121094,-0.32139480113983154,6.711026668548584,-68.84004211425781
0,1118287,-25.759037017822266,23.460960388183594,22.962909698486328,122.83370208740234
0,1118288,75.51300048828125,14.738996505737305,-3.1641430854797363,130.10964965820312
0,1118291,8.671894073486328,5.375748634338379,0.9593064188957214,-112.6055908203125
0,1118292,-50.69076919555664,1.262802004814148,18.430055618286133,-158.26126098632812
0,1118295,-15.719165802001953,-19.38205337524414,-21.640241622924805,41.57023620605469
0,1118296,-22.549724578857422,-7.473317623138428,-16.871212005615234,74.63591766357422
0,1118302,79.1015625,27.893022537231445,28.405141830444336,149.1638946533203
0,1118302,54.32209777832031,-23.165964126586914,4.497225761413574,-19.708269119262695
0,1118303,-106.38040161132812,-4.694438457489014,-22.913034439086914,-243.5872802734375
0,1118304,-56.29828643798828,24.464406967163086,7.616257190704346,-16.237560272216797
0,1118307,56.49069595336914,-3.6386940479278564,14.304043769836426,147.47915649414062
0,1118308,79.59405517578125,16.424657821655273,-13.223687171936035,117.46985626220703
0,1118311,-40.822818756103516,-20.979312896728516,3.220215082168579,-125.79460144042969
0,1118312,-80.07815551757812,-47.33292007446289,-8.280919075012207,-186.0954132080078
0,1118315,25.17062759399414,10.67013168334961,-29.66937255859375,84.75750732421875
0,1118316,23.200193405151367,46.83460998535156,27.467788696289062,115.62153625488281
0,1118319,-5.765713214874268,-4.836627960205078,34.43649673461914,29.701602935791016
0,1118320,5.705280780792236,-43.42043685913086,-10.656539916992188,-9.898233413696289
0,1118323,17.400978088378906,24.505626678466797,-8.522963523864746,-48.74672317504883
0,1118324,-33.668514251708984,16.516481399536133,-5.613397598266602,-96.97257995605469
0,1118327,-1.7217200994491577,-1.2733081579208374,-8.143667221069336,16.84249496459961
0,1118328,110.2099609375,37.22726058959961,18.312240600585938,220.7764129638672
0,1118331,-22.962312698364258,-16.10694694519043,8.090437889099121,-23.341609954833984
0,1118332,-116.48551177978516,-47.975242614746094,-33.27385330200195,-180.00477600097656
0,1118335,-4.369871616363525,-14.479268074035645,-5.180150032043457,57.45737075805664
0,1118336,37.105411529541016,11.765085220336914,13.80180549621582,9.876486778259277
0,1118339,50.05060577392578,23.714200973510742,9.328363418579102,-0.7715128064155579
0,1118340,2.7607383728027344,19.208019256591797,8.414306640625,37.21625518798828
0,1118343,-51.19422912597656,-29.36262321472168,-14.802291870117188,-67.30120849609375
0,1118344,-5.9235615730285645,-13.436455726623535,12.977675437927246,-53.39419174194336
0,1118347,36.36153030395508,28.69357681274414,2.3715882301330566,53.59624099731445
0,1118348,41.39128875732422,-2.648404836654663,-25.636831283569336,185.6968536376953
0,1118351,-36.13995361328125,3.224229097366333,6.077055931091309,-73.02007293701172
0,1118352,-51.26848602294922,-11.29162311553955,-5.253082752227783,-191.15419006347656
0,1118355,16.295177459716797,-7.090920925140381,4.551753520965576,27.29853057861328
0,1118356,14.084033966064453,5.763620853424072,2.390936851501465,60.783870697021484
0,1118359,32.463623046875,8.004443168640137,-11.217123031616211,70.71759033203125
0,1118360,20.93197250366211,44.10052490234375,42.98021697998047,7.754271984100342
0,1118363,-44.49022674560547,-24.98265266418457,-10.967435836791992,-44.02037811279297
0,1118364,-57.15028381347656,-42.85740280151367,-53.228153228759766,-105.13006591796875
0,1118367,42.874061584472656,27.348846435546875,22.013582229614258,-1.8795446157455444
0,1118368,88.0141372680664,3.8836357593536377,28.823795318603516,239.60008239746094
0,1118371,-64.07752227783203,-30.60835838317871,4.9215874671936035,-40.647457122802734
0,1118372,-49.131385803222656,-0.3331456184387207,-2.4703457355499268,-219.6335906982422
0,1118375,29.2083797454834,20.999544143676758,-20.475177764892578,76.71222686767578
0,1118376,-12.067462921142578,0.6043962240219116,4.879692554473877,83.41319274902344
0,1118379,30.025903701782227,-16.913816452026367,11.6157808303833,-39.07173538208008
0,1118380,-2.3652093410491943,1.5746583938598633,-22.19432258605957,-4.26658296585083
0,1118383,-28.677053451538086,38.412540435791016,12.584019660949707,27.143051147460938
0,1118384,1.4218429327011108,-7.6494927406311035,7.814617156982422,-63.62208938598633
0,1118387,26.576419830322266,-11.609914779663086,-12.661458015441895,-55.8850212097168
0,1118388,51.96525573730469,21.032835006713867,7.696343898773193,157.79136657714844
0,1118391,-44.3565673828125,-39.30303192138672,-16.184751510620117,7.229835033416748
0,1118392,-52.00528335571289,-21.617273330688477,4.893636226654053,-112.34449005126953
0,1118395,28.975181579589844,24.807214736938477,17.93830108642578,42.857059478759766
0,1118396,23.999950408935547,0.00037646107375621796,-40.91537857055664,-58.66904830932617
0,1118399,13.679506301879883,7.558642864227295,5.871272563934326,36.5312385559082
0,1118400,-13.57266902923584,18.12526512145996,72.80068969726562,106.38488006591797
0,1118403,-19.324495315551758,-22.969188690185547,-20.925884246826172,-70.506103515625
0,1118404,-30.705272674560547,-6.056244850158691,-33.93339538574219,-51.90632247924805
0,1118407,3.1210968494415283,26.120756149291992,23.40280532836914,38.90910720825195
0,1118408,95.07068634033203,-0.3007236123085022,-21.69358253479004,92.89594268798828
0,1118411,-33.291866302490234,-13.63879108428955,-10.351773262023926,-77.4352798461914
0,1118412,-90.44114685058594,-4.384728908538818,21.29383087158203,-145.63299560546875
0,1118415,41.732093811035156,16.03571891784668,-7.451171875,43.08977508544922
0,1118416,32.771156311035156,5.683732509613037,-22.974502563476562,91.48863983154297
0,1118419,-8.727429389953613,-20.83123207092285,11.803153038024902,25.3372745513916
0,1118420,-10.791613578796387,-5.107024192810059,47.87689208984375,-10.393940925598145
0,1118423,-6.594779968261719,18.575592041015625,-27.30204200744629,-2.170138359069824
0,1118424,-15.7388334274292,-13.95660400390625,-36.91865539550781,-58.208900451660156
0,1118427,16.362659454345703,-7.692265033721924,41.78561019897461,-0.8418803811073303
0,1118428,65.2195053100586,39.61479568481445,5.286691665649414,143.7178192138672
0,1118431,-33.56049346923828,-19.077865600585938,-23.190176010131836,-65.46775817871094
0,1118432,-56.285953521728516,-18.475509643554688,21.772972106933594,-171.46368408203125
0,1118435,24.810712814331055,33.19160842895508,11.775375366210938,29.73184585571289
0,1118436,18.881319046020508,-16.111066818237305,-55.34083938598633,87.7422866821289
0,1118439,25.696212768554688,-17.894046783447266,0.9939215183258057,101.29994201660156
0,1118440,-16.392227172851562,-4.8520026206970215,33.1842041015625,-0.3380608558654785
0,1118443,-21.652807235717773,9.152064323425293,-10.358789443969727,-56.98881149291992
0,1118444,-3.759289026260376,36.24617385864258,15.492213249206543,-53.78884506225586
0,1118447,-22.3491153717041,-31.20294761657715,-25.412174224853516,-58.71247863769531
0,1118448,62.13365936279297,-40.7841682434082,-23.547914505004883,123.2665786743164
0,1118451,-7.471447944641113,31.0997371673584,52.244361877441406,37.62615966796875
0,1118452,-72.7017593383789,23.968639373779297,4.3075151443481445,-154.70404052734375
0,1118455,30.704708099365234,-6.7364935874938965,-44.89257049560547,15.095864295959473
0,1118456,40.06691360473633,-8.905330657958984,5.154463291168213,131.23855590820312
0,1118459,3.190645933151245,11.843656539916992,12.572301864624023,-16.48502540588379
0,1118460,-18.1221981048584,18.018449783325195,20.96698760986328,-90.2650375366211
0,1118463,4.2404375076293945,-19.380523681640625,19.917152404785156,35.9411735534668
0,1118464,-26.481409072875977,-21.083452224731445,-41.68460464477539,-15.652307510375977
0,1118467,-27.05657386779785,13.321301460266113,-32.93937301635742,-43.00738525390625
0,1118468,72.277587890625,4.7699103355407715,32.64078903198242,66.336669921875
0,1118471,-13.62964153289795,-21.684043884277344,26.74628448486328,-22.947187423706055
0,1118472,-58.96913146972656,9.974183082580566,-6.074373722076416,18.069915771484375
0,1118475,31.635087966918945,14.309475898742676,4.746033668518066,29.384502410888672
0,1118476,37.95621871948242,-14.912995338439941,-8.189689636230469,-19.43458366394043
0,1118479,3.2268197536468506,1.1215217113494873,-20.25098419189453,32.74006271362305
0,1118480,-34.53117752075195,-4.25898551940918,-0.7240862250328064,-36.975128173828125
0,1118483,-1.4639416933059692,13.826383590698242,26.628562927246094,-67.46793365478516
0,1118484,-17.743831634521484,2.030834436416626,5.869438648223877,-55.608219146728516
0,1118487,10.191041946411133,-18.44137191772461,-25.240522384643555,57.40724182128906
0,1118488,52.31266403198242,64.16250610351562,22.400096893310547,192.05368041992188
0,1118491,-54.610191345214844,-33.7012939453125,-1.8665963411331177,-55.97625732421875
0,1118492,-41.9552116394043,-50.49491882324219,-23.14361572265625,-152.57608032226562
0,1118495,23.96997833251953,61.311012268066406,-0.16841033101081848,49.892059326171875
0,1118496,61.30794143676758,-30.679540634155273,5.174871444702148,-8.4378080368042
0,1118499,35.34587478637695,-4.435661792755127,26.14797019958496,20.142393112182617
0,1118501,-50.82681655883789,21.325822830200195,-15.175909996032715,87.87149810791016
0,1118503,-31.776992797851562,-29.60967445373535,-30.949308395385742,-1.0702970027923584
0,1118505,-10.827296257019043,-15.6879243850708,-3.2652335166931152,-122.30709838867188
0,1118507,18.16788101196289,3.9025685787200928,21.20052146911621,-62.771358489990234
0,1118509,79.16397857666016,49.97673416137695,20.866153717041016,174.57913208007812
0,1118511,-18.151424407958984,-2.899418592453003,-5.952854633331299,-11.099053382873535
0,1118513,-89.9253921508789,-40.41749954223633,-22.56382942199707,-124.94788360595703
0,1118515,18.043167114257812,17.346681594848633,6.9955596923828125,51.24027633666992
0,1118517,44.93326187133789,3.29494047164917,20.21062469482422,24.468935012817383
0,1118519,-1.6524240970611572,-2.3058063983917236,-9.70700740814209,84.09647369384766
0,1118521,-29.73954963684082,9.358004570007324,-14.977180480957031,46.98680114746094
0,1118523,-13.283987998962402,-7.108291149139404,8.209016799926758,-216.04586791992188
0,1118525,-5.947114944458008,-9.147007942199707,7.356021881103516,-119.53358459472656
0,1118527,20.122459411621094,-2.5745832920074463,-39.67434310913086,220.33175659179688
0,1118529,62.871158599853516,21.689327239990234,10.579737663269043,158.44752502441406
0,1118531,-56.83598327636719,-0.49644163250923157,48.150299072265625,-182.14334106445312
0,1118533,-60.351707458496094,4.380613327026367,7.348910331726074,-117.4011001586914
0,1118536,40.6268196105957,25.1290283203125,-19.101816177368164,107.21134185791016
0,1118537,51.4439582824707,-30.911054611206055,-13.7139253616333,59.750938415527344
0,1118538,17.98524284362793,-35.96366500854492,1.8553091287612915,-33.58753204345703
0,1118541,-40.96059036254883,-12.027205467224121,-25.182857513427734,-41.662818908691406
0,1118542,-10.614232063293457,9.080324172973633,11.919205665588379,28.989688873291016
0,1118545,-27.339405059814453,39.42692947387695,21.665159225463867,-60.06673812866211
0,1118546,-47.95381546020508,-7.305502414703369,-11.236536026000977,-27.783218383789062
1,1118552,4.339183807373047,-35.39644241333008,4.097156524658203,14.767473220825195
1,1118552,48.72694778442383,31.56281089782715,-1.1538457870483398,-14.076032638549805
1,1118553,42.47081756591797,29.693740844726562,-12.130670547485352,141.21951293945312
1,1118555,3.363463878631592,-34.162803649902344,4.621901988983154,-0.29254430532455444
1,1118557,27.76589584350586,19.775785446166992,16.99311065673828,-43.286163330078125
1,1118559,3.551133632659912,51.18798828125,15.132231712341309,87.13949584960938
1,1118561,-15.370400428771973,-42.17453384399414,-13.35184383392334,-33.34525680541992
1,1118563,-12.590091705322266,-46.34279251098633,-17.585166931152344,-47.54530334472656
1,1118565,-32.53617858886719,10.790438652038574,19.764379501342773,-50.62063217163086
1,1118567,21.50339126586914,8.499872207641602,-2.1034998893737793,2.836544990539551
1,1118569,52.4431037902832,-7.599018573760986,-6.006751537322998,141.5018310546875
1,1118571,-13.363861083984375,17.598535537719727,19.99870491027832,-12.190519332885742
1,1118573,-102.77241516113281,2.851473808288574,-20.986852645874023,-182.96115112304688
1,1118575,-31.383041381835938,-37.65667724609375,-38.462615966796875,-40.500152587890625
1,1118577,91.29241943359375,3.1947414875030518,8.516874313354492,163.93626403808594
1,1118579,7.4620747566223145,35.13914489746094,27.603290557861328,6.428749084472656
1,1118581,-21.965625762939453,15.75505256652832,12.584359169006348,-82.83912658691406
1,1118583,36.48969650268555,-19.323902130126953,-12.9330415725708,3.126206874847412
1,1118585,-53.69126510620117,-14.928576469421387,-8.725314140319824,-53.46445846557617
1,1118587,-10.965198516845703,34.05579376220703,3.4522645473480225,67.68114471435547
1,1118589,107.38922119140625,3.1275076866149902,-1.999056339263916,152.86270141601562
1,1118591,0.22147591412067413,-32.89943313598633,12.754003524780273,-12.492935180664062
1,1118593,-119.44841003417969,-9.93193531036377,-6.40634822845459,-205.8534393310547
1,1118595,-42.59159469604492,-21.43875503540039,-15.293447494506836,-49.42621994018555
1,1118597,109.2786865234375,25.66343879699707,18.971500396728516,180.45169067382812
1,1118599,24.21967124938965,42.50630187988281,0.660028338432312,-20.881208419799805
1,1118601,-58.9581413269043,-12.167130470275879,-6.288364410400391,-29.77743911743164
1,1118603,18.7840576171875,-22.26219940185547,2.417297601699829,104.20033264160156
1,1118605,-33.52452850341797,-12.303717613220215,-9.536962509155273,-127.95781707763672
1,1118607,-1.6852902173995972,31.9581298828125,11.139983177185059,-86.9382553100586
1,1118609,80.97786712646484,35.210567474365234,18.255016326904297,217.83367919921875
1,1118611,-1.3354806900024414,-39.833885192871094,-1.7988439798355103,15.091231346130371
1,1118613,-78.83361053466797,-40.344032287597656,-12.973158836364746,-242.4286651611328
1,1118615,-18.534534454345703,3.7700204849243164,-10.302167892456055,-22.022865295410156
1,1118617,68.63230895996094,18.373008728027344,-6.788137912750244,198.78997802734375
1,1118619,-0.35067179799079895,15.555357933044434,-4.601997375488281,17.84651756286621
1,1118621,-14.634369850158691,-0.930053174495697,16.758724212646484,-112.85379028320312
1,1118623,19.09271812438965,-1.6491225957870483,21.72329330444336,-3.8318469524383545
1,1118625,-60.64042282104492,-35.91251754760742,-14.188504219055176,-3.9314563274383545
1,1118880,-50.52431106567383,-3.61930775642395,-20.453357696533203,-15.258899688720703
1,1118882,101.42961883544922,51.76155090332031,11.989315032958984,133.33299255371094
1,1118884,130.26100158691406,27.38920021057129,9.261218070983887,227.24981689453125
1,1118886,-60.559776306152344,-24.706069946289062,-15.5167236328125,-146.5965118408203
1,1118888,-85.17040252685547,-35.147438049316406,6.107563495635986,-267.8795471191406
1,1120175,-8.696929931640625,-2.258028984069824,5.244598865509033,69.76566314697266
1,1120175,-10.51425552368164,7.35919189453125,-10.870295524597168,85.96317291259766
1,1120177,-2.912385940551758,16.311689376831055,10.0716552734375,-104.0522232055664
1,1120179,-39.38811111450195,-30.972013473510742,1.5918588638305664,-101.11161804199219
1,1120181,5.805834770202637,-2.419888496398926,5.684765815734863,82.35005950927734
1,1120183,11.837677955627441,36.29761505126953,4.55571985244751,27.75751304626465
1,1120185,41.97539138793945,-10.02810287475586,-27.681169509887695,109.53309631347656
1,1120187,143.06185913085938,15.822102546691895,-24.874725341796875,210.07504272460938
1,1120189,-43.06968688964844,7.943645477294922,17.55574607849121,-134.30076599121094
1,1120191,-131.94895935058594,-30.88275909423828,38.370262145996094,-199.3531951904297
1,1120193,20.018178939819336,3.85886287689209,-2.1017377376556396,-1.4511409997940063
1,1120195,-0.9210869073867798,4.862621307373047,-42.65364074707031,42.70021438598633
1,1120197,-29.071884155273438,-30.432113647460938,13.241745948791504,43.744319915771484
1,1120199,-18.143821716308594,12.480478286743164,38.42588806152344,-34.6829948425293
1,1120201,12.061132431030273,32.92790222167969,-18.15684700012207,-51.413124084472656
1,1120203,36.4319953918457,-16.327247619628906,3.1636803150177,35.86004638671875
1,1120205,31.590686798095703,-34.06682586669922,-11.749794006347656,48.47513961791992
1,1120207,78.17958068847656,9.438551902770996,-29.485898971557617,38.25536346435547
