Aktueller Finger,timestamp_ms,sensor_0,sensor_1,sensor_2,sensor_3
0,220483,292.4682312011719,-261.1398620605469,-96.21724700927734,-48.02501678466797
0,220483,524.9503173828125,-291.5770568847656,-0.11614967882633209,-7.874956130981445
0,220483,-169.8276824951172,111.48855590820312,93.37101745605469,-8.576410293579102
0,220484,-266.2346496582031,153.03872680664062,32.69960021972656,16.91668128967285
0,220484,-95.56285095214844,95.25003814697266,-21.093828201293945,9.588467597961426
0,220484,-202.2830352783203,163.4248809814453,5.998806476593018,-15.57979965209961
0,220484,-134.20437622070312,138.26641845703125,-7.607001304626465,-1.9742910861968994
0,220484,-57.93241882324219,53.4320068359375,-26.58491325378418,22.563552856445312
0,220484,-0.056823570281267166,-64.79017639160156,-19.752330780029297,13.710186958312988
0,220485,52.21630096435547,-43.59323501586914,3.4425547122955322,6.535336494445801
0,220485,74.48900604248047,-32.92335891723633,20.751026153564453,21.839006423950195
0,220485,65.098388671875,-72.02467346191406,10.081012725830078,6.924684047698975
0,220485,20.61635971069336,-18.57200813293457,15.136033058166504,-5.884044170379639
0,220485,-15.232906341552734,36.444908142089844,22.301836013793945,14.323901176452637
0,220485,-35.43308639526367,49.93976593017578,-15.703348159790039,3.590822696685791
0,220486,-76.9181137084961,26.95505714416504,-35.41727066040039,-19.175785064697266
0,220486,-60.215904235839844,24.485084533691406,2.88504958152771,12.960323333740234
0,220487,-44.39316177368164,86.96744537353516,9.905929565429688,43.79399871826172
0,220487,-20.98411750793457,3.837800979614258,-23.874507904052734,10.755000114440918
0,220489,41.73884201049805,-120.12334442138672,-30.522811889648438,-69.62079620361328
0,220490,20.877145767211914,-2.6471574306488037,-14.06093978881836,-47.1002082824707
0,220491,25.507299423217773,45.19670867919922,22.095935821533203,64.8603515625
0,220746,190.41482543945312,-175.46336364746094,51.27254104614258,-2.1501352787017822
0,220747,123.76084899902344,-99.11458587646484,13.819245338439941,-81.1788330078125
0,220748,-191.16864013671875,171.38475036621094,-35.30553436279297,15.474527359008789
0,220751,-129.01292419433594,120.84239959716797,-27.501272201538086,47.509193420410156
0,220752,31.3021297454834,68.679443359375,-6.941333770751953,-15.732054710388184
0,244671,38.03096008300781,-49.448081970214844,14.043684005737305,-47.19409942626953
0,244671,60.50708770751953,-143.8456573486328,-4.25872802734375,-4.495974540710449
0,244671,26.385297775268555,16.715055465698242,9.2098970413208,32.10404586791992
0,244671,25.151662826538086,37.705162048339844,26.34749984741211,6.462644577026367
0,244671,35.46025466918945,-49.462432861328125,-15.652498245239258,-10.214468955993652
0,244671,-27.100080490112305,-1.085213541984558,4.518458843231201,12.148725509643555
0,244671,-32.91181945800781,49.98820877075195,20.794429779052734,23.48809051513672
0,244672,8.514036178588867,1.2930636405944824,-5.099541187286377,-18.773149490356445
0,244672,-25.81937026977539,-16.070877075195312,-9.554730415344238,-10.912751197814941
0,244672,-46.24223327636719,10.02688217163086,11.316895484924316,31.45350456237793
0,244672,-6.831079483032227,15.326730728149414,-11.756497383117676,-13.83188533782959
0,244672,32.69507598876953,-8.691271781921387,-25.108076095581055,-18.512527465820312
0,244673,11.599349975585938,-33.246273040771484,18.16143035888672,31.215452194213867
0,244673,1.4886362552642822,-17.852598190307617,2.495851993560791,2.767524003982544
0,244673,6.650163650512695,5.012392997741699,-15.009238243103027,-1.1699894666671753
0,244673,-20.371551513671875,-0.6635714173316956,16.70734214782715,28.622400283813477
0,244673,-9.4150972366333,-7.858494281768799,9.611589431762695,-4.687482833862305
0,244673,4.619937896728516,0.1789322793483734,-4.77926778793335,-18.735273361206055
0,244674,5.549620628356934,10.675620079040527,1.410061001777649,-13.09061336517334
0,244675,-0.6004917621612549,-51.66756057739258,-33.11369323730469,-10.58315658569336
0,244675,11.875442504882812,-83.54473876953125,-34.52287673950195,23.044921875
0,244676,95.82978820800781,-29.802696228027344,12.347156524658203,22.75005531311035
0,244678,144.41732788085938,-93.1351547241211,1.6700738668441772,-19.413122177124023
0,244680,175.34963989257812,-275.98681640625,25.546428680419922,-61.54050064086914
0,244682,82.01024627685547,-75.8047866821289,74.93795013427734,14.197568893432617
0,244684,-262.77630615234375,369.1173095703125,26.912174224853516,59.55211639404297
0,244686,-234.32664489746094,247.45059204101562,-25.755077362060547,-48.431304931640625
0,244688,0.7415537238121033,1.379667043685913,-45.745086669921875,-49.577754974365234
0,244690,-24.632022857666016,35.57713317871094,-2.2596895694732666,28.625415802001953
0,244692,-55.86766052246094,158.4100341796875,29.694181442260742,43.965850830078125
0,244694,-127.6314468383789,174.6277618408203,-15.335593223571777,8.157742500305176
0,244696,24.712099075317383,-144.86732482910156,-49.472808837890625,3.154078960418701
0,244698,206.70237731933594,-270.72918701171875,-44.60872268676758,5.021761894226074
0,244700,194.48434448242188,-217.11903381347656,34.25914001464844,-24.266286849975586
0,244702,85.60054016113281,-82.1136474609375,62.735843658447266,-3.0118842124938965
0,244755,-477.0147399902344,565.1836547851562,-29.18050765991211,22.16392707824707
0,244755,-368.4823303222656,372.91204833984375,-61.34907150268555,8.776381492614746
0,244755,411.3480224609375,-510.31561279296875,24.628883361816406,-1.0317761898040771
0,244755,245.1693878173828,-251.7140655517578,40.59477233886719,-8.09357738494873
0,244755,-81.53510284423828,107.65760040283203,0.7582343220710754,-3.736684560775757
0,244755,-11.86865520477295,9.317030906677246,11.634464263916016,7.831839084625244
0,244756,-56.89966583251953,71.94281005859375,3.1047544479370117,-20.389076232910156
0,244756,-68.34573364257812,81.13394165039062,-18.254281997680664,4.232056617736816
0,244756,16.598325729370117,30.94060707092285,-7.014066696166992,21.841360092163086
0,244756,62.929351806640625,-55.1524658203125,-9.837444305419922,-33.62892150878906
0,244756,51.854434967041016,-108.2044677734375,-7.90007209777832,2.7393107414245605
0,244756,92.45721435546875,-98.09254455566406,7.034859657287598,17.14193344116211
0,244757,90.19664001464844,-95.94115447998047,3.5045480728149414,-25.043054580688477
0,244757,12.738974571228027,-47.717166900634766,19.79006576538086,-3.8616867065429688
0,244757,-16.384443283081055,29.936277389526367,6.804232120513916,-8.354034423828125
0,244757,-34.80031204223633,54.845855712890625,-3.3908979892730713,-13.260734558105469
0,244757,-74.49824523925781,63.827632904052734,3.7396647930145264,9.703341484069824
0,244757,-64.95726013183594,88.48554992675781,-4.0379414558410645,14.762693405151367
0,244758,-19.872102737426758,34.90559768676758,7.48903751373291,-1.0379371643066406
0,244758,5.712113857269287,-66.03092193603516,-20.15971565246582,1.7241171598434448
0,244758,33.9915771484375,-50.993995666503906,-17.398469924926758,16.601449966430664
0,244758,57.17028045654297,-33.800411224365234,15.96996784210205,-2.826446294784546
0,244758,24.539039611816406,-64.73179626464844,-1.7063583135604858,17.304899215698242
0,244758,8.414234161376953,3.877737283706665,-8.253705024719238,13.436545372009277
0,244759,3.5035226345062256,53.401065826416016,3.1736900806427,-31.699804306030273
0,244759,-40.49204635620117,27.845157623291016,26.961559295654297,6.1829609870910645
0,244760,23.992671966552734,-30.983009338378906,36.4075813293457,-13.31128978729248
0,244760,41.128841400146484,6.422015190124512,8.180323600769043,-44.2420768737793
0,244760,-66.40697479248047,108.58817291259766,-11.02504825592041,15.067861557006836
0,244762,-33.43172073364258,36.25685119628906,17.677963256835938,-2.545727491378784
0,244765,-114.03262329101562,69.80459594726562,21.242494583129883,-0.2965940833091736
0,244766,-146.95111083984375,112.34229278564453,-30.313629150390625,26.11311912536621
0,244769,64.42279815673828,20.27886962890625,-25.406497955322266,2.1253411769866943
0,244770,65.00575256347656,18.716388702392578,3.8053019046783447,17.556007385253906
0,244773,-115.41975402832031,106.00100708007812,-13.780657768249512,-20.692405700683594
0,244774,-136.41619873046875,105.14701080322266,-21.601943969726562,-32.30160140991211
0,244777,125.55286407470703,-259.7777099609375,-48.49208450317383,50.53987503051758
0,244778,219.32347106933594,-330.12939453125,-44.647071838378906,49.42985534667969
0,244779,108.06770324707031,-49.16887664794922,38.56745910644531,19.72498321533203
0,244782,105.90316009521484,-25.82503890991211,92.87764739990234,-57.90346908569336
0,244783,-33.86967849731445,32.09328079223633,39.4417610168457,-84.97197723388672
0,244786,-161.68568420410156,117.95072937011719,-57.94974136352539,30.21866798400879
0,244787,-49.51313018798828,2.0817997455596924,-40.33174514770508,47.50824737548828
0,244852,-2.67846941947937,98.70747375488281,29.748966217041016,6.4643964767456055
0,244852,-22.7474308013916,200.12374877929688,29.467844009399414,-18.602985382080078
0,244852,-2.564772129058838,-61.68851852416992,-12.573951721191406,-16.237140655517578
0,244852,-79.56194305419922,-23.649456024169922,5.206623077392578,12.264558792114258
0,244852,-76.29167938232422,125.03453826904297,9.167755126953125,3.2569990158081055
0,244853,3.693826198577881,34.02421188354492,-42.19551467895508,-2.58453369140625
0,244853,7.200620174407959,-50.0283203125,-36.8892822265625,0.4530055820941925
0,244853,44.51911544799805,-97.91522979736328,-8.14401626586914,6.66918420791626
0,244853,78.7096939086914,-129.05038452148438,10.799673080444336,11.931020736694336
0,244853,71.68018341064453,-136.693359375,10.023926734924316,-8.143837928771973
0,244854,72.00143432617188,-56.093467712402344,-3.2740318775177,-14.976203918457031
0,244854,31.9647159576416,-14.693300247192383,2.8525052070617676,7.742185115814209
0,244854,-38.18421173095703,-5.209115505218506,19.733829498291016,13.748978614807129
0,244854,-47.49871826171875,88.96414947509766,12.584692001342773,-9.099525451660156
0,244854,-41.068050384521484,108.63105010986328,-16.329992294311523,-18.890071868896484
0,244854,-31.372600555419922,19.102062225341797,-22.50998878479004,14.75109577178955
0,244855,2.4692699909210205,1.5501528978347778,12.77331256866455,22.741182327270508
0,244855,18.30474281311035,-22.186321258544922,17.106355667114258,-4.128622531890869
0,244855,55.424278259277344,-64.6176528930664,-20.420936584472656,-14.661075592041016
0,244855,71.50621795654297,-48.916568756103516,0.40396255254745483,2.6373376846313477
0,244855,36.0380744934082,-32.7380256652832,25.607343673706055,19.610994338989258
0,244855,1.0170106887817383,-7.604310035705566,7.415234088897705,-25.075193405151367
0,244856,-21.832294464111328,12.260991096496582,6.742969036102295,-14.983847618103027
0,244856,-44.92555236816406,57.46772003173828,0.5842025279998779,37.070030212402344
0,244856,-35.49872589111328,69.89839172363281,-2.4294817447662354,-0.44563329219818115
0,244856,-11.755988121032715,14.583888053894043,-2.535266160964966,-19.57183074951172
0,244856,0.4054703712463379,-11.218024253845215,-16.00387954711914,6.000159740447998
0,244857,26.236522674560547,-20.52349853515625,-22.346864700317383,5.4844069480896
0,244857,17.051170349121094,-21.010488510131836,9.503918647766113,11.035367012023926
0,244857,5.26317024230957,-36.39485168457031,32.25364685058594,0.8385408520698547
0,244857,19.939422607421875,-49.430240631103516,-2.566493511199951,-25.769563674926758
0,244857,0.302443265914917,-9.21665096282959,3.055034637451172,-13.332879066467285
0,244859,68.1493911743164,-83.84446716308594,-7.617705821990967,15.257219314575195
0,244859,68.49412536621094,-62.32675552368164,-23.983409881591797,-0.890903651714325
0,244859,-106.94938659667969,127.21748352050781,17.068418502807617,-25.013015747070312
0,244860,11.007596015930176,-0.36184239387512207,24.735795974731445,2.5049095153808594
0,244861,103.57659912109375,-57.53801345825195,33.29572677612305,1.9275351762771606
0,244864,-162.04803466796875,211.68751525878906,43.17333221435547,-36.24875259399414
0,244865,-203.87765502929688,158.52374267578125,-19.92717742919922,-21.368358612060547
0,244868,-9.745859146118164,7.417788505554199,-54.0686149597168,52.62155532836914
0,244870,22.581178665161133,11.099357604980469,-9.145268440246582,60.826515197753906
0,244872,-78.84657287597656,77.43067169189453,-3.3102731704711914,-37.17039108276367
0,244874,-89.75263214111328,153.93577575683594,-15.352694511413574,-51.179073333740234
0,244876,85.34899139404297,-156.09158325195312,-37.25735092163086,71.14027404785156
0,244878,194.6872100830078,-297.9065856933594,-19.494443893432617,56.499996185302734
0,244880,209.6487274169922,-227.5652618408203,49.07183837890625,-59.54965591430664
0,244882,106.6871337890625,-75.99800872802734,39.12542724609375,-30.472036361694336
0,244884,-237.6719207763672,330.25750732421875,10.665935516357422,1.4808639287948608
0,244886,-198.05010986328125,161.1659698486328,-13.154952049255371,14.396090507507324
0,244888,119.12725067138672,-179.78195190429688,-32.43696594238281,8.34239673614502
0,244890,79.65888977050781,-39.629539489746094,-2.38820481300354,-35.05878829956055
0,244967,23.829429626464844,-8.406206130981445,38.896915435791016,15.495695114135742
0,244967,17.779794692993164,-18.639204025268555,16.64410400390625,15.162449836730957
0,244967,-114.40626525878906,147.0375518798828,-25.521419525146484,-20.098302841186523
0,244967,-114.79926300048828,124.8449478149414,-13.44636058807373,11.335956573486328
0,244968,-20.41913414001465,10.273585319519043,-12.251123428344727,13.599374771118164
0,244968,1.841897964477539,-22.25440788269043,-14.901719093322754,2.396061897277832
0,244968,57.991519927978516,-74.9129409790039,-25.201196670532227,-8.026164054870605
0,244968,87.40496063232422,-90.94847869873047,-10.38837718963623,-9.282665252685547
0,244968,36.646400451660156,-57.313629150390625,38.98991394042969,4.442464351654053
0,244968,51.9803581237793,-42.24916076660156,19.70654296875,-1.3901290893554688
0,244969,17.608610153198242,0.6840283870697021,-6.262556552886963,-8.857023239135742
0,244969,-66.26215362548828,43.0258903503418,16.10636329650879,-12.114684104919434
0,244969,-64.39955139160156,44.42062759399414,21.73143768310547,-11.757407188415527
0,244969,-37.968570709228516,57.84928512573242,-23.138731002807617,13.185004234313965
0,244969,-21.52202606201172,50.13227081298828,-31.386873245239258,18.579713821411133
0,244969,-15.707107543945312,-16.039941787719727,-2.087775468826294,6.0334296226501465
0,244970,26.527406692504883,-56.06227493286133,-3.39947509765625,12.258407592773438
0,244970,60.12809371948242,-34.26860046386719,8.353801727294922,3.0639257431030273
0,244970,49.83317184448242,-27.514801025390625,6.274718284606934,1.7566291093826294
0,244970,19.801315307617188,-17.570323944091797,-1.1486148834228516,5.923246383666992
0,244970,-18.10900115966797,36.95964050292969,0.37929078936576843,-22.87489128112793
0,244971,-12.245649337768555,37.24419403076172,4.4903998374938965,-15.163627624511719
0,244971,-39.978271484375,24.31352996826172,26.07961082458496,8.690633773803711
0,244971,-58.427452087402344,63.78709030151367,10.885148048400879,-5.040266513824463
0,244971,-2.1104025840759277,38.74666976928711,-30.492589950561523,-0.6031514406204224
0,244971,1.4790600538253784,-12.784406661987305,-17.888734817504883,-1.0855275392532349
0,244971,-12.006237983703613,-27.43704605102539,20.82236671447754,-7.912255764007568
0,244972,34.704898834228516,-22.845468521118164,-0.6093639135360718,-0.7358905076980591
0,244972,31.106807708740234,-37.979732513427734,-8.150212287902832,0.3592950403690338
0,244972,-13.987955093383789,-34.41472625732422,4.267617225646973,8.808591842651367
0,244972,-8.140830993652344,-0.6859878897666931,11.08887767791748,2.438051700592041
0,244972,2.2330331802368164,5.591981887817383,18.410123825073242,-6.274685859680176
0,244972,-22.030643463134766,38.22639465332031,-8.823556900024414,10.47065258026123
0,244973,-18.097097396850586,27.61594009399414,-16.112106323242188,4.428155422210693
0,244973,12.274758338928223,-17.996349334716797,-7.7634406089782715,3.7320847511291504
0,244973,4.549230575561523,-20.38347625732422,-1.7029390335083008,21.470006942749023
0,244973,12.134465217590332,-21.042510986328125,5.582390785217285,-7.007539749145508
0,244973,33.78834915161133,-6.094868183135986,-11.903132438659668,-20.412078857421875
0,244975,27.00969123840332,-41.53424072265625,-32.51393127441406,34.94644546508789
0,244975,25.103939056396484,-50.284908294677734,0.9371001124382019,39.16592025756836
0,244975,20.393447875976562,13.819842338562012,20.75174903869629,-31.13981056213379
0,244975,-7.102681636810303,-8.147876739501953,-10.133167266845703,-34.16302490234375
0,244976,30.20698356628418,-57.50850296020508,-14.112704277038574,-6.179059028625488
0,244978,110.89484405517578,-107.80960083007812,6.602713584899902,30.10040283203125
0,244980,211.2602996826172,-227.79298400878906,57.75804138183594,-0.8279498219490051
0,244982,40.522850036621094,-38.90148162841797,61.907920837402344,-80.23577117919922
0,244984,-338.2262268066406,356.6824645996094,-2.7938084602355957,-7.532407760620117
0,244986,-195.55615234375,221.30702209472656,-21.91668128967285,37.651065826416016
0,244988,60.63091278076172,-13.610456466674805,-31.02592658996582,13.565786361694336
0,244990,-0.34647035598754883,4.356542110443115,-26.11302947998047,-9.864886283874512
0,244992,-113.54550170898438,142.310302734375,17.654071807861328,-28.742984771728516
0,244994,-138.4054412841797,172.3005828857422,4.827427864074707,22.162002563476562
0,244996,95.29841613769531,-219.92263793945312,-65.4717025756836,49.308746337890625
0,244998,211.63893127441406,-256.8178405761719,-31.621845245361328,26.036334991455078
0,245000,180.95301818847656,-112.2455825805664,66.53155517578125,-13.094280242919922
0,245002,51.3037223815918,-28.139345169067383,68.56918334960938,-38.60383987426758
0,245004,-253.60409545898438,285.761474609375,-11.227450370788574,-21.65131950378418
0,245006,-142.0823211669922,96.45816040039062,-44.1663932800293,20.74614715576172
0,245009,104.90799713134766,-143.72744750976562,-8.309832572937012,11.13717269897461
0,245096,29.028038024902344,4.023575305938721,-55.11100387573242,-20.562536239624023
0,245097,15.386087417602539,1.0149047374725342,-22.60646629333496,-25.583873748779297
0,245097,23.3659610748291,-16.96492576599121,68.54802703857422,-20.20229721069336
0,245097,-73.35153198242188,65.1258773803711,16.511104583740234,7.85420036315918
0,245097,-72.2762222290039,80.11038970947266,-9.964606285095215,22.86341667175293
0,245097,-22.3953914642334,26.265850067138672,-3.6620876789093018,19.283782958984375
0,245097,26.219459533691406,-33.11616897583008,-20.76265525817871,-3.2442362308502197
0,245098,76.5800552368164,-113.82271575927734,-15.330222129821777,-5.871521472930908
0,245098,93.1536865234375,-143.91836547851562,14.49363899230957,21.199813842773438
0,245098,109.98320007324219,-84.49445343017578,27.50615882873535,9.442972183227539
0,245098,59.711204528808594,-45.05082702636719,19.226795196533203,-15.01469612121582
0,245098,-33.1743049621582,-21.437278747558594,31.321521759033203,10.952614784240723
0,245099,-52.2432746887207,41.8068733215332,14.839996337890625,20.645654678344727
0,245099,-49.078216552734375,105.54049682617188,-19.92898178100586,-15.099326133728027
0,245099,-84.9879150390625,80.13703155517578,-15.487797737121582,-12.664657592773438
0,245099,-51.37122344970703,47.96528244018555,-6.561751365661621,8.428299903869629
0,245099,11.142511367797852,33.399566650390625,-38.80110549926758,3.0715343952178955
0,245099,16.615032196044922,-8.277314186096191,-23.395029067993164,7.779870986938477
0,245100,55.380043029785156,-27.716842651367188,29.302270889282227,11.762447357177734
0,245100,57.744876861572266,-79.26866149902344,29.72925567626953,-0.9146264791488647
0,245100,1.867858648300171,-45.25820541381836,13.794266700744629,-16.969438552856445
0,245100,-11.571589469909668,38.014373779296875,1.4364056587219238,-16.598033905029297
0,245100,-17.37177085876465,37.957969665527344,9.765766143798828,13.153562545776367
0,245100,-50.377017974853516,71.85027313232422,17.842145919799805,-14.110934257507324
0,245101,-45.55841064453125,81.97358703613281,-9.995380401611328,-21.37142562866211
0,245101,-22.016454696655273,35.97194290161133,-22.662952423095703,17.407943725585938
0,245101,-21.290340423583984,8.022579193115234,-5.7192535400390625,-19.475093841552734
0,245101,7.254189968109131,-39.787879943847656,-9.176529884338379,-21.533052444458008
0,245101,26.503536224365234,-59.340736389160156,-3.275592565536499,37.28587341308594
0,245101,21.103723526000977,-13.525589942932129,21.070697784423828,15.006930351257324
0,245102,9.919519424438477,-8.250913619995117,10.480528831481934,-32.63336944580078
0,245102,3.26810359954834,-10.913243293762207,-26.449077606201172,-4.069912433624268
0,245102,-13.776663780212402,20.100013732910156,-15.49721622467041,8.030779838562012
0,245102,-47.64705276489258,6.98635721206665,23.406747817993164,9.379278182983398
0,245102,-27.0239315032959,2.1729252338409424,6.047451972961426,20.73444938659668
0,245102,3.319842576980591,22.87725067138672,-27.17413902282715,-18.34099578857422
0,245103,0.6927400231361389,9.077020645141602,-6.957064628601074,-9.492412567138672
0,245103,14.673670768737793,-5.63151216506958,18.31415557861328,24.123416900634766
0,245103,32.72673034667969,-27.344295501708984,-25.155086517333984,4.669674873352051
0,245103,11.312124252319336,-25.29076385498047,-8.852143287658691,-6.950257301330566
0,245103,6.4564032554626465,-8.07870864868164,39.530799865722656,-12.121603012084961
0,245103,11.18657398223877,-15.933913230895996,-4.784140110015869,0.911287784576416
0,245104,-15.97737979888916,12.143918991088867,-11.346335411071777,18.17707061767578
0,245104,-26.615087509155273,22.99770164489746,1.9719533920288086,-19.587881088256836
0,245105,-54.20994186401367,53.77981185913086,-25.896072387695312,-21.413616180419922
0,245105,-14.847085952758789,60.103546142578125,-13.881041526794434,3.811828851699829
0,245106,48.41751480102539,-38.5708122253418,18.132848739624023,2.4348957538604736
0,245106,13.911046981811523,-40.942832946777344,14.197722434997559,21.538002014160156
0,245107,-23.51948356628418,16.422060012817383,16.013450622558594,4.191617488861084
0,245108,-8.032110214233398,26.524263381958008,-21.152027130126953,-10.864496231079102
0,245110,24.874982833862305,10.257475852966309,-36.7880973815918,11.622991561889648
0,245112,-63.56412124633789,141.28271484375,40.34001922607422,21.834054946899414
0,245114,-103.6884994506836,127.3435287475586,12.759139060974121,43.42977523803711
0,245116,156.73345947265625,-346.5947265625,-87.17163848876953,-27.506629943847656
0,245118,262.6847839355469,-372.587890625,-26.557876586914062,-116.85145568847656
0,245120,149.4053192138672,-38.60761260986328,102.96133422851562,37.80006408691406
0,245122,10.447834968566895,64.0830078125,82.7241439819336,118.28581237792969
0,245124,-293.5860595703125,235.43875122070312,-12.89188003540039,-53.97502136230469
0,245126,-198.6873779296875,175.3214569091797,-30.507095336914062,-52.2758674621582
0,245128,117.55904388427734,-36.1490592956543,-13.061509132385254,39.05656051635742
0,245130,43.21253967285156,-46.83638000488281,-12.733511924743652,-12.93624210357666
0,245132,-161.59506225585938,134.80337524414062,-1.3370169401168823,-38.30376052856445
0,245134,-127.01321411132812,160.5453643798828,-4.360620975494385,16.662599563598633
0,245136,197.08074951171875,-231.37855529785156,-41.93224334716797,42.65989685058594
0,245138,225.7215118408203,-314.9466247558594,-25.055395126342773,14.528721809387207
0,245141,75.57184600830078,-54.53466033935547,67.55594635009766,-21.452816009521484
0,245239,-43.29831314086914,162.43798828125,21.392913818359375,66.00406646728516
0,245239,-161.54293823242188,146.1515655517578,-77.94855499267578,80.94140625
0,245239,57.32295227050781,-138.84942626953125,9.512110710144043,-94.2176513671875
0,245239,143.37307739257812,-138.717041015625,56.941688537597656,-67.47067260742188
0,245240,16.1284122467041,-13.07175064086914,-5.015780448913574,2.53106951713562
0,245240,-21.376888275146484,11.504847526550293,4.865154266357422,-18.102981567382812
0,245240,-54.44259262084961,87.87678527832031,39.8553466796875,-12.735567092895508
0,245240,-90.46857452392578,128.44207763671875,22.007558822631836,-20.276105880737305
0,245240,-99.37055969238281,129.69117736816406,-2.236260414123535,1.7302123308181763
0,245241,-53.210548400878906,71.50748443603516,-22.4862003326416,-10.643930435180664
0,245241,-36.03413009643555,0.5102063417434692,-27.40229606628418,-16.523954391479492
0,245241,-0.28806591033935547,-23.29259490966797,-0.7218179106712341,5.597275733947754
0,245241,81.6470947265625,-74.83969116210938,-3.74652099609375,-23.228239059448242
0,245241,54.04629135131836,-92.22777557373047,1.6127277612686157,-6.580328464508057
0,245241,9.855027198791504,-20.762359619140625,-0.4041014015674591,51.571136474609375
0,245242,10.451879501342773,18.0172176361084,-6.492452621459961,26.1885986328125
0,245242,-46.55275344848633,19.796621322631836,16.207242965698242,1.1902955770492554
0,245242,-72.37738800048828,49.690608978271484,1.0640839338302612,7.503844261169434
0,245242,-38.594261169433594,59.971683502197266,-27.52666473388672,-13.861495971679688
0,245242,-29.432392120361328,48.12266159057617,-19.994956970214844,-14.079788208007812
0,245242,-9.076348304748535,21.215845108032227,6.135706424713135,0.9609977006912231
0,245243,24.903608322143555,-35.364585876464844,5.814083099365234,-2.345102310180664
0,245243,37.4449348449707,-48.403114318847656,-2.7880465984344482,19.397886276245117
0,245243,60.345882415771484,-48.06806564331055,5.306557655334473,19.115018844604492
0,245243,44.41417694091797,-39.156227111816406,7.922624111175537,-7.98079252243042
0,245243,2.542912721633911,4.844803333282471,-3.1879284381866455,-3.592475414276123
0,245243,-23.393312454223633,9.643595695495605,2.8582568168640137,21.44368553161621
0,245244,-21.862369537353516,35.27276611328125,17.246858596801758,20.451473236083984
0,245244,-6.225423336029053,29.88509750366211,-16.62740135192871,4.231693744659424
0,245244,-22.894535064697266,4.5223493576049805,-14.14183521270752,20.62102699279785
0,245244,-4.37567663192749,14.07693862915039,16.888368606567383,-6.881567478179932
0,245244,23.62398338317871,-47.29475402832031,-21.124887466430664,-18.457551956176758
0,245245,1.2291152477264404,-47.918212890625,-23.47524070739746,0.33507204055786133
0,245245,12.154746055603027,-22.62558937072754,10.108804702758789,3.9412882328033447
0,245245,26.5621395111084,-20.39430046081543,23.63441276550293,10.959819793701172
0,245245,10.748513221740723,19.657371520996094,13.748795509338379,-17.622726440429688
0,245245,1.977909803390503,18.110755920410156,-9.572636604309082,-15.897496223449707
0,245245,-24.153676986694336,39.49307632446289,4.457991600036621,8.130110740661621
0,245245,-30.44758415222168,35.8779411315918,1.8656198978424072,17.292402267456055
0,245246,7.013431549072266,0.18952012062072754,-16.09797477722168,7.810281753540039
0,245246,8.391644477844238,12.749934196472168,0.44096100330352783,-20.253856658935547
0,245246,2.523256778717041,-2.397796630859375,-8.154722213745117,4.116238117218018
0,245246,25.750247955322266,-26.336639404296875,-11.634819030761719,20.36817741394043
0,245246,0.16990771889686584,-23.390609741210938,22.057363510131836,10.23320198059082
0,245246,3.0561816692352295,-7.264110088348389,8.311933517456055,-0.4582348167896271
0,245247,33.20901107788086,-8.597039222717285,-13.270453453063965,-23.77973175048828
0,245247,-21.391984939575195,-16.410419464111328,1.0239139795303345,-9.584567070007324
0,245247,-29.727991104125977,15.957555770874023,14.415626525878906,-11.309558868408203
0,245247,-10.716729164123535,2.9129750728607178,6.448329925537109,-0.79056715965271
0,245248,-54.2503662109375,5.6473798751831055,-26.6572265625,-2.048055648803711
0,245249,-7.16262674331665,48.604515075683594,-6.240777015686035,-28.095230102539062
0,245249,47.0127067565918,-18.269073486328125,27.143768310546875,-9.838472366333008
0,245249,14.850468635559082,-60.61927795410156,-2.306899309158325,-9.713833808898926
0,245249,-5.595180034637451,-3.766221046447754,-18.67514991760254,13.667153358459473
0,245250,-21.827356338500977,90.48641967773438,10.435144424438477,3.717808246612549
0,245252,-74.36334991455078,158.75254821777344,15.871391296386719,-60.66564178466797
0,245254,-35.478851318359375,13.362661361694336,-62.14280700683594,-36.643531799316406
0,245256,152.146240234375,-244.62327575683594,-30.634912490844727,80.81686401367188
0,245258,269.09832763671875,-396.9805603027344,53.92831039428711,140.8477325439453
0,245260,115.58612060546875,-176.6397705078125,23.589191436767578,6.929900169372559
0,245262,-167.15989685058594,332.5538635253906,71.98833465576172,-162.8333282470703
0,245264,-181.27186584472656,305.2254638671875,32.26298141479492,-56.21477508544922
0,245267,-78.14464569091797,-18.233516693115234,-81.30120849609375,123.70069122314453
0,245268,-19.944091796875,22.251060485839844,-21.33091163635254,49.67164611816406
0,245271,20.722379684448242,69.5196304321289,13.246862411499023,-57.622074127197266
0,245272,-87.62276458740234,85.1274185180664,11.151820182800293,-15.33876895904541
0,245275,-79.95441436767578,-0.5613749623298645,-24.877273559570312,36.65985870361328
0,245276,102.63540649414062,-165.11744689941406,-77.07217407226562,-92.40743255615234
0,245279,269.86920166015625,-271.5637512207031,6.136597156524658,-64.89212799072266
0,245280,161.81468200683594,-190.2906494140625,74.52574920654297,121.88917541503906
0,245281,-145.80335998535156,220.286376953125,51.030548095703125,61.434967041015625
0,245284,-223.530517578125,340.00958251953125,12.937100410461426,-26.739665985107422
0,245285,-83.55827331542969,56.926124572753906,-0.5533626079559326,-38.77001953125
0,245395,30.66806983947754,-125.63829040527344,-87.9966812133789,40.10030746459961
0,245396,34.21357727050781,-105.68647766113281,-82.50792694091797,72.39498138427734
0,245396,78.52924346923828,-56.01908874511719,76.11024475097656,-38.380393981933594
0,245396,4.575525760650635,62.61088562011719,58.56906509399414,-18.45063018798828
0,245396,-105.70777893066406,121.88673400878906,-18.442962646484375,-8.609898567199707
0,245396,-52.394981384277344,69.7818603515625,-26.31612777709961,-46.96368408203125
0,245396,-5.815317630767822,17.36067771911621,-11.859850883483887,15.82103157043457
0,245397,31.069923400878906,-74.19931030273438,-10.136580467224121,0.6130133867263794
0,245397,74.59941101074219,-126.48767852783203,-19.60616683959961,-38.69536209106445
0,245397,116.23289489746094,-137.60487365722656,14.699758529663086,4.214841365814209
0,245397,96.46670532226562,-128.7007598876953,24.800756454467773,15.280191421508789
0,245397,41.11870574951172,-48.368797302246094,20.3804874420166,-1.8516385555267334
0,245397,5.597682952880859,56.495052337646484,27.520048141479492,15.057619094848633
0,245398,-52.57148742675781,72.08264923095703,22.2661190032959,32.35551834106445
0,245398,-76.4599380493164,83.64661407470703,5.852326393127441,-5.830584526062012
0,245398,-43.533992767333984,107.36808776855469,-16.202659606933594,-30.971036911010742
0,245398,-37.68582534790039,58.98936462402344,-20.804399490356445,14.63815689086914
0,245398,-17.080907821655273,-22.092435836791992,-20.9530086517334,13.135820388793945
0,245398,44.264915466308594,-55.02730178833008,-7.363528728485107,-43.94355392456055
0,245399,51.80878448486328,-50.08811950683594,7.583973407745361,-19.0206241607666
0,245399,36.817779541015625,-52.98981857299805,1.5351166725158691,20.82176399230957
0,245399,19.82698631286621,-27.0462703704834,18.98163604736328,11.192002296447754
0,245399,-27.131437301635742,32.4010124206543,21.502605438232422,0.28647151589393616
0,245399,-34.16487121582031,71.95087432861328,2.5839169025421143,8.289046287536621
0,245400,-41.38924026489258,56.71552276611328,-5.0734758377075195,17.70078468322754
0,245400,-68.59774780273438,33.68900680541992,-1.3475078344345093,-13.476311683654785
0,245400,-21.515600204467773,48.94047546386719,-3.786461353302002,-20.42793083190918
0,245400,14.388406753540039,33.786224365234375,-35.521366119384766,13.14233112335205
0,245400,0.7136691212654114,-31.01451873779297,0.5686504244804382,9.639883041381836
0,245400,21.483068466186523,-62.56558609008789,26.59957504272461,-8.225631713867188
0,245401,31.848783493041992,-25.46829605102539,-22.60083770751953,-12.862549781799316
0,245401,8.230270385742188,-15.6590576171875,4.3031325340271,-9.596208572387695
0,245401,-14.156389236450195,-16.552480697631836,31.447355270385742,-0.5121002793312073
0,245401,-26.37515640258789,45.38108444213867,4.308043479919434,-3.263812303543091
0,245401,-32.7521858215332,37.45403289794922,-23.3588809967041,7.131912708282471
0,245401,-37.58561706542969,-8.31619930267334,-20.454669952392578,16.881601333618164
0,245402,-15.785666465759277,20.99843406677246,12.27867317199707,7.759902000427246
0,245402,23.73187828063965,11.466063499450684,-5.027783393859863,-7.184926986694336
0,245402,23.924970626831055,-27.687482833862305,-19.13642120361328,11.304414749145508
0,245402,5.456945419311523,-22.271873474121094,10.171116828918457,33.636104583740234
0,245402,26.128965377807617,-24.545804977416992,20.238895416259766,1.2076212167739868
0,245402,22.097509384155273,-9.330114364624023,-0.7543367743492126,-12.043952941894531
0,245403,-3.6388001441955566,13.603239059448242,0.006579444743692875,-5.583226203918457
0,245403,-7.4517822265625,2.734668016433716,3.5464823246002197,-8.344332695007324
0,245403,-29.472545623779297,8.137258529663086,-11.874529838562012,11.053515434265137
0,245403,-14.455228805541992,33.19472122192383,-14.154426574707031,2.805582046508789
0,245403,0.44282135367393494,15.359428405761719,1.277211308479309,-19.70283317565918
0,245403,-7.310766220092773,-45.331398010253906,15.693163871765137,6.512473106384277
0,245404,14.2498140335083,-28.86132049560547,-8.992566108703613,10.641892433166504
0,245404,6.270174503326416,17.421201705932617,-12.653751373291016,-30.063318252563477
0,245404,11.055502891540527,-26.937223434448242,-0.8899111151695251,-24.12152671813965
0,245404,16.815826416015625,-25.89743995666504,-17.81664276123047,5.690855979919434
0,245404,-8.828045845031738,27.627235412597656,21.93701934814453,4.748210430145264
0,245404,10.111233711242676,31.30425262451172,33.59650802612305,12.187453269958496
0,245405,1.861212968826294,43.34189987182617,-25.031042098999023,31.91645622253418
0,245406,-57.82914733886719,7.202040672302246,-36.09564208984375,4.589293956756592
0,245406,-26.30947494506836,-35.402801513671875,-8.655203819274902,-26.119487762451172
0,245406,41.26655197143555,14.577651023864746,14.050711631774902,-9.351396560668945
0,245406,24.441808700561523,13.084662437438965,24.518611907958984,-27.69367790222168
0,245407,3.6248514652252197,-20.058074951171875,21.849050521850586,-26.443758010864258
0,245408,1.623766303062439,30.168437957763672,-17.44407844543457,15.198152542114258
0,245409,3.8556289672851562,16.439289093017578,-32.57965087890625,-84.15750885009766
0,245412,-84.92180633544922,184.64259338378906,22.94243621826172,-34.30675506591797
0,245413,-115.65259552001953,138.6434783935547,-10.301863670349121,347.0206298828125
0,245416,165.6111297607422,-441.9173889160156,-90.49762725830078,50.36207962036133
0,245417,252.1454620361328,-378.497802734375,-3.378913640975952,-563.275146484375
0,245420,135.01629638671875,-6.504388332366943,118.67535400390625,44.72271728515625
0,245421,10.65827465057373,122.70191192626953,113.4401626586914,499.09686279296875
0,245424,-279.379150390625,298.63055419921875,-2.1340889930725098,-92.13914489746094
0,245425,-179.14793395996094,64.63604736328125,-100.27960205078125,-174.3396453857422
0,245428,61.34878921508789,-116.21572875976562,-51.211585998535156,111.56805419921875
0,245429,21.55942726135254,90.05567932128906,40.76946258544922,35.5496711730957
0,245432,-85.45372009277344,178.80577087402344,35.786014556884766,-79.8635025024414
0,245433,-127.12799835205078,47.82712173461914,-28.340656280517578,-66.66732788085938
0,245436,155.45204162597656,-247.8791961669922,-66.66844177246094,4.389543056488037
0,245437,236.68141174316406,-237.76321411132812,-19.270902633666992,77.91986846923828
0,245440,107.22808837890625,9.898174285888672,96.50210571289062,-21.23611068725586
0,245441,-21.51422882080078,78.54959106445312,78.61905670166016,-105.7309341430664
0,245444,-290.4706726074219,159.6630096435547,-57.34165573120117,8.451485633850098
0,245445,-112.45035552978516,52.737449645996094,-76.4510498046875,66.1457748413086
0,245567,174.20986938476562,-111.72016906738281,8.982150077819824,-63.789878845214844
0,245567,80.24707794189453,-75.43903350830078,43.396690368652344,-102.44026947021484
0,245567,-23.08188247680664,-22.153945922851562,3.5655136108398438,72.69017791748047
0,245568,-38.23595428466797,85.57960510253906,-0.08455681055784225,79.3266372680664
0,245568,-71.50658416748047,130.362060546875,9.427244186401367,24.618465423583984
0,245568,-90.20952606201172,74.79586029052734,-16.162416458129883,71.21270751953125
0,245568,-47.54785919189453,38.52684783935547,-14.035510063171387,85.02190399169922
0,245568,9.306355476379395,-17.16619300842285,-13.317763328552246,63.670406341552734
0,245569,57.49235916137695,-70.84132385253906,-31.733654022216797,40.72980499267578
0,245569,108.14862823486328,-89.8863525390625,5.543124198913574,40.88249588012695
0,245569,91.11599731445312,-87.48892974853516,42.33823776245117,28.444047927856445
0,245569,24.060888290405273,-55.08159255981445,5.021733283996582,-29.086971282958984
0,245569,8.049074172973633,-2.2674777507781982,4.228089332580566,-39.75871658325195
0,245569,-33.762027740478516,86.05691528320312,28.062990188598633,-29.17543601989746
0,245570,-78.51656341552734,119.52018737792969,-8.145262718200684,-66.38906860351562
0,245570,-54.093589782714844,63.690486907958984,-15.618195533752441,-66.20174407958984
0,245570,-23.174470901489258,24.504716873168945,7.042294025421143,-75.29020690917969
0,245570,-1.5635385513305664,-7.759228229522705,-17.69611358642578,-85.34452819824219
0,245570,13.250569343566895,-41.68587112426758,-21.827314376831055,-49.120277404785156
0,245571,18.33368492126465,-73.0629653930664,-7.816147327423096,-9.395451545715332
0,245571,16.09980010986328,-60.4906005859375,-7.223188400268555,9.33360767364502
0,245571,24.117679595947266,-20.461362838745117,21.475055694580078,9.003141403198242
0,245571,20.182941436767578,-3.6455695629119873,16.5800838470459,5.569326400756836
0,245571,-22.973352432250977,18.45346450805664,-18.617517471313477,25.628658294677734
0,245571,-54.487884521484375,44.24181365966797,-7.53837251663208,5.932290554046631
0,245571,-44.240562438964844,40.04612731933594,6.318480014801025,-20.366851806640625
0,245572,-10.627252578735352,15.005074501037598,3.4001991748809814,-9.164041519165039
0,245572,12.385137557983398,2.186037302017212,-11.101799964904785,-28.55352783203125
0,245572,29.07805824279785,-28.334699630737305,-13.442837715148926,-22.756383895874023
0,245572,49.31694030761719,-49.4826545715332,17.90997886657715,-20.61832618713379
0,245572,34.009422302246094,-55.54180908203125,-1.4742977619171143,-38.647605895996094
0,245572,12.580229759216309,-28.834535598754883,-12.815263748168945,-47.742801666259766
0,245573,10.388378143310547,13.123946189880371,14.410051345825195,-63.396183013916016
0,245573,-3.7849485874176025,3.977409601211548,3.827854633331299,-26.92666244506836
0,245573,-22.3381290435791,4.863543510437012,-3.805232048034668,0.10833937674760818
0,245573,-34.1715202331543,17.813953399658203,-0.4495832920074463,-4.622674465179443
0,245573,-8.3472900390625,28.854433059692383,-8.606019020080566,16.40558624267578
0,245574,30.35540199279785,0.5071196556091309,-8.017574310302734,37.179317474365234
0,245574,19.804550170898438,-49.931396484375,-3.5157153606414795,49.330745697021484
0,245574,9.90412425994873,-30.954553604125977,4.220566749572754,54.99598693847656
0,245574,35.06660842895508,-10.659919738769531,15.873800277709961,63.28701400756836
0,245574,22.109434127807617,-3.5599169731140137,11.461053848266602,68.94415283203125
0,245574,0.8663643002510071,8.301514625549316,7.238708972930908,71.48274993896484
0,245575,3.0981054306030273,-8.625219345092773,4.797094821929932,73.06285858154297
0,245575,-16.393308639526367,7.2189483642578125,-3.7629928588867188,67.10263061523438
0,245575,-23.802913665771484,16.683313369750977,7.023041725158691,28.221330642700195
0,245575,16.18360710144043,4.639946937561035,-4.564796447753906,-0.46529027819633484
0,245575,17.21813201904297,13.53980541229248,-18.861764907836914,17.869773864746094
0,245575,-20.576215744018555,-7.947023868560791,6.9916205406188965,17.529569625854492
0,245576,13.409551620483398,-3.6592302322387695,-0.7195298671722412,12.065509796142578
0,245576,12.556798934936523,-6.39760684967041,2.994983196258545,5.308417320251465
0,245576,-18.987407684326172,-31.325639724731445,20.179065704345703,8.039212226867676
0,245576,-7.753593444824219,25.61580467224121,5.150710105895996,1.4236114025115967
0,245576,7.60311222076416,37.28558349609375,-8.006416320800781,-57.027069091796875
0,245576,4.4636688232421875,-0.827822744846344,-19.78181266784668,-38.92560958862305
0,245577,-44.8604736328125,22.300430297851562,-1.4089953899383545,0.5624730587005615
0,245577,-16.953754425048828,8.74851131439209,15.649383544921875,-38.617759704589844
0,245577,27.637008666992188,-27.593856811523438,-0.38582611083984375,-49.238338470458984
0,245577,5.026156902313232,-24.891990661621094,3.386514663696289,-25.59680938720703
0,245577,11.900341987609863,5.833484172821045,-1.7686692476272583,-21.288494110107422
0,245579,94.61875915527344,-48.60823440551758,-6.088312149047852,71.70396423339844
0,245579,61.98023986816406,-82.94949340820312,12.569429397583008,76.42403411865234
0,245579,-94.20794677734375,61.81636047363281,5.332911491394043,-74.07996368408203
0,245579,-26.718305587768555,66.76787567138672,-7.283743858337402,-45.7412109375
0,245579,22.52140998840332,-12.362494468688965,9.044489860534668,24.4715576171875
0,245579,-46.30603790283203,12.645610809326172,1.8187823295593262,-11.941743850708008
0,245581,1.9338405132293701,39.51100158691406,32.327449798583984,9.125840187072754
0,245582,-47.28464889526367,95.92857360839844,65.2528305053711,69.72237396240234
0,245583,-162.0964813232422,89.19107055664062,-50.72467803955078,-25.33403968811035
0,245586,-104.52017211914062,72.4475326538086,-69.90092468261719,-95.6195297241211
0,245587,13.898204803466797,33.383968353271484,26.744373321533203,-32.42249298095703
0,245590,27.35538673400879,0.028064243495464325,3.3988687992095947,-35.193965911865234
0,245591,-69.91460418701172,134.31683349609375,-26.11568832397461,-64.29167175292969
0,245594,-55.82322692871094,7.881912708282471,-64.34412384033203,-97.32280731201172
0,245595,137.84320068359375,-301.2532958984375,-63.801734924316406,128.82827758789062
0,245598,348.0273132324219,-406.0145568847656,39.425567626953125,253.38926696777344
0,245599,252.4690704345703,-150.56068420410156,44.98409652709961,-115.88363647460938
0,245602,-150.67665100097656,283.2696533203125,76.87464904785156,-205.32350158691406
0,245603,-239.46661376953125,163.61929321289062,53.02228546142578,-3.185997247695923
0,245606,-66.48844909667969,-26.46283531188965,-76.92622375488281,80.58213806152344
0,245607,36.06941223144531,66.22576904296875,-28.48560333251953,86.29149627685547
0,245610,12.491673469543457,35.9822998046875,11.110817909240723,70.94385528564453
0,245611,-115.9732437133789,101.55602264404297,1.3191287517547607,35.39352035522461
0,245614,-68.33182525634766,23.553844451904297,-8.718310356140137,-87.40888214111328
0,245615,95.7970199584961,-185.35057067871094,-52.14988708496094,-62.091896057128906
0,245618,235.69993591308594,-306.7491149902344,3.2805068492889404,48.752349853515625
0,245619,158.18040466308594,-137.13438415527344,46.125160217285156,-5.267440319061279
0,245752,-468.01617431640625,686.30126953125,17.806184768676758,-61.7451057434082
0,245752,-414.6518859863281,467.8133239746094,-30.206287384033203,18.348093032836914
0,245752,395.19891357421875,-540.8662109375,-22.576961517333984,50.20121383666992
0,245752,266.9910583496094,-272.4372253417969,21.142677307128906,-3.1988773345947266
0,245752,-65.90696716308594,82.8171615600586,3.60365891456604,-5.446160793304443
0,245753,-8.432382583618164,-20.550189971923828,22.15553855895996,-2.899080991744995
0,245753,-66.62040710449219,62.97740173339844,40.561031341552734,1.834915041923523
0,245753,-59.594425201416016,111.556396484375,-11.587921142578125,20.69551658630371
0,245753,-4.2728352546691895,47.0621452331543,-19.715505599975586,5.331949234008789
0,245753,16.925945281982422,-64.87871551513672,-10.485404014587402,2.6764142513275146
0,245753,49.39472579956055,-82.23916625976562,-37.59695816040039,28.982210159301758
0,245754,99.33940124511719,-81.35086822509766,-10.154950141906738,1.2710789442062378
0,245754,97.08088684082031,-108.71024322509766,4.907425880432129,-19.08307647705078
0,245754,54.001625061035156,-66.57305145263672,5.609163284301758,-7.656282901763916
0,245754,9.286125183105469,-17.988510131835938,49.12089538574219,-10.70826244354248
0,245754,-41.737979888916016,52.67682647705078,24.882308959960938,-18.83586883544922
0,245755,-65.341552734375,116.61067199707031,-8.33284854888916,-26.27907371520996
0,245755,-57.44104766845703,50.65928649902344,-11.424165725708008,5.937428951263428
0,245755,-26.861085891723633,21.736520767211914,1.7020612955093384,18.71407127380371
0,245755,-3.9214305877685547,27.423532485961914,18.446308135986328,7.656589984893799
0,245755,30.018938064575195,-46.401039123535156,-31.186073303222656,7.488653182983398
0,245755,51.90617752075195,-72.91243743896484,-32.9830207824707,-9.096820831298828
0,245756,8.927191734313965,-62.18082046508789,9.93663501739502,-2.0019495487213135
0,245756,7.76347017288208,-33.61144256591797,21.76321029663086,2.8758814334869385
0,245756,23.04503059387207,14.44960880279541,17.486539840698242,-12.963141441345215
0,245756,-15.857062339782715,10.036328315734863,-5.692043304443359,-21.05826187133789
0,245756,-33.291526794433594,30.62604522705078,0.7521581053733826,-4.2859344482421875
0,245756,-36.91339874267578,59.59701156616211,8.150886535644531,18.7611026763916
0,245757,-26.84880828857422,15.088921546936035,-18.914783477783203,-0.10274964570999146
0,245757,-4.1868062019348145,-22.165502548217773,-22.982515335083008,-13.384295463562012
0,245757,4.064183712005615,-18.18879508972168,-5.5476393699646,11.424674987792969
0,245757,29.770458221435547,-13.310210227966309,11.104942321777344,17.648681640625
0,245757,36.92210388183594,-37.6163444519043,5.614716529846191,-23.650285720825195
0,245757,24.634952545166016,-19.441038131713867,-27.32245445251465,-13.116097450256348
0,245758,-2.5578391551971436,25.42876434326172,-1.863598346710205,31.957015991210938
0,245758,-31.276172637939453,7.794405460357666,46.01022720336914,12.481038093566895
0,245758,-27.29654312133789,38.06465530395508,29.87680435180664,-31.918033599853516
0,245758,-16.59078598022461,53.173030853271484,-2.7351455688476562,-2.2342522144317627
0,245758,-14.467655181884766,11.157594680786133,-21.515399932861328,47.072998046875
0,245758,3.4504518508911133,20.11545753479004,-9.362812995910645,0.4027472734451294
0,245759,19.410554885864258,-14.491227149963379,12.101968765258789,-0.5830349922180176
0,245759,-11.495981216430664,-28.294849395751953,17.482784271240234,36.41916275024414
0,245759,-13.033275604248047,-19.81537628173828,-3.8505043983459473,-19.463104248046875
0,245759,22.952733993530273,-25.114276885986328,-21.800607681274414,-33.52247619628906
0,245759,3.2384989261627197,50.057861328125,11.846383094787598,15.093430519104004
0,245760,-29.825092315673828,56.47115707397461,6.137455940246582,0.3293338716030121
0,245760,-3.1379497051239014,-0.8025893568992615,-24.81488800048828,-20.03107452392578
0,245760,-7.796431541442871,17.129911422729492,8.527959823608398,5.762341022491455
0,245760,-42.50907897949219,27.60012435913086,18.988143920898438,-1.3061822652816772
0,245760,-7.382293224334717,9.409125328063965,-14.578902244567871,-15.875798225402832
0,245760,24.0244083404541,3.9630727767944336,-8.25891399383545,20.65059471130371
0,245760,9.689069747924805,16.002710342407227,17.117368698120117,3.7870283126831055
0,245761,4.678469657897949,12.944604873657227,3.0570712089538574,-26.775774002075195
0,245761,-3.5185108184814453,-32.339515686035156,-22.16318702697754,13.554281234741211
0,245761,-21.102479934692383,3.524768829345703,8.679292678833008,39.793968200683594
0,245761,-12.208791732788086,29.092811584472656,14.588050842285156,8.110917091369629
0,245761,11.33261489868164,-24.033100128173828,-15.278919219970703,-14.201986312866211
0,245761,18.197994232177734,-17.352489471435547,3.7879114151000977,16.63716697692871
0,245762,-16.20545768737793,-19.4719295501709,2.662446975708008,17.448219299316406
0,245762,-24.946290969848633,-31.258981704711914,-26.321956634521484,-14.09653091430664
0,245762,18.356164932250977,-8.122435569763184,-6.491162300109863,-27.57172393798828
0,245762,15.638985633850098,-7.325283527374268,18.52164077758789,-35.554840087890625
0,245762,16.07243537902832,-28.548419952392578,-14.36048698425293,-25.6647891998291
0,245763,11.815184593200684,-18.8681640625,-13.54079532623291,2.148282766342163
0,245763,-15.34142017364502,32.260765075683594,21.22403907775879,-20.959304809570312
0,245763,5.771280765533447,15.591401100158691,-1.303507924079895,-31.344493865966797
0,245764,-45.86994171142578,31.369112014770508,-9.870321273803711,-57.051212310791016
0,245764,-54.44287872314453,76.94824981689453,1.6538325548171997,-53.59785842895508
0,245764,30.226999282836914,-19.928970336914062,10.898865699768066,64.5406723022461
0,245765,21.443889617919922,-36.74267578125,-0.18053553998470306,41.03601837158203
0,245765,-7.394448757171631,12.180755615234375,-16.460737228393555,-38.961917877197266
0,245765,2.106869697570801,-3.444612503051758,6.70453405380249,-41.96400451660156
0,245766,3.50541090965271,19.3384952545166,-7.021328449249268,-45.38017654418945
0,245768,4.760440349578857,14.902800559997559,-2.9082677364349365,303.94403076171875
0,245770,-62.394371032714844,81.871337890625,-11.211577415466309,361.49859619140625
0,245772,-127.49895477294922,105.33367919921875,-24.414535522460938,-344.7674865722656
0,245774,83.29620361328125,-114.71173858642578,5.384949207305908,-345.8813781738281
0,245776,255.0189666748047,-240.9549102783203,-29.62399673461914,129.79795837402344
0,245778,229.43569946289062,-359.1667175292969,14.46712589263916,257.8553161621094
0,245780,115.7012710571289,-156.83290100097656,97.3310317993164,198.2369842529297
0,245782,-231.31130981445312,467.71453857421875,47.14674377441406,-180.99192810058594
0,245784,-260.7007141113281,372.0069274902344,0.3442572057247162,-274.0662841796875
0,245786,14.1790771484375,-181.21978759765625,-44.19710159301758,96.65169525146484
0,245788,7.62652587890625,-180.47036743164062,-52.44198989868164,190.0498809814453
0,245790,-64.96475982666016,211.41102600097656,27.499006271362305,-180.630859375
0,245792,-87.43074798583984,229.15582275390625,34.475830078125,-307.5873107910156
0,245794,7.975826740264893,-221.03158569335938,-71.36518096923828,390.42034912109375
0,245796,165.1738739013672,-263.5114440917969,-72.2950439453125,528.89306640625
0,245798,220.10980224609375,-92.11965942382812,55.100765228271484,-758.9830932617188
0,245800,94.84544372558594,-77.86006927490234,52.87000274658203,-623.693115234375
0,245803,-265.03363037109375,275.98565673828125,18.727657318115234,768.4075927734375
0,245804,-215.14234924316406,239.47840881347656,17.180633544921875,387.67242431640625
0,245807,106.57459259033203,-144.5827178955078,-31.47418975830078,-398.9234924316406
0,245808,85.87033081054688,-76.40727233886719,-32.15180969238281,-88.8345947265625
0,245950,13.629837989807129,56.852935791015625,14.691214561462402,120.79325866699219
0,245950,-24.367982864379883,86.23238372802734,33.58828353881836,-7.932234287261963
0,245950,-61.5533332824707,68.50875091552734,18.574892044067383,-21.197202682495117
0,245950,-81.54739379882812,76.70014190673828,-5.871843338012695,24.104999542236328
0,245950,-87.0052719116211,86.394287109375,-27.816871643066406,41.45195770263672
0,245950,-23.821788787841797,-9.227424621582031,-23.380613327026367,-9.312012672424316
0,245951,42.32435989379883,-87.19932556152344,-32.21650314331055,-26.348451614379883
0,245951,90.8455810546875,-101.47154998779297,-13.677129745483398,-8.512240409851074
0,245951,114.96430969238281,-136.63876342773438,27.764633178710938,-23.283689498901367
0,245951,74.53445434570312,-109.4310302734375,7.629220008850098,-23.188817977905273
0,245951,14.607584953308105,-40.306575775146484,3.905514717102051,8.631364822387695
0,245951,-13.351091384887695,-1.3542201519012451,26.31069564819336,28.025432586669922
0,245952,-51.020408630371094,67.21070861816406,10.439501762390137,10.824872016906738
0,245952,-45.89823913574219,87.26920318603516,-23.448074340820312,-3.622624397277832
0,245952,-31.251741409301758,22.644594192504883,-23.976341247558594,1.7238653898239136
0,245952,-47.514244079589844,0.824774444103241,-4.094820022583008,21.632827758789062
0,245952,12.117456436157227,5.851790904998779,2.3630495071411133,11.863513946533203
0,245953,69.22805786132812,-53.42494583129883,7.42585563659668,-20.915233612060547
0,245953,59.97848129272461,-99.3075180053711,0.1714925318956375,-22.800588607788086
0,245953,51.571495056152344,-45.70638656616211,-17.51691246032715,-13.01508617401123
0,245953,9.113917350769043,10.825003623962402,24.694372177124023,-2.7781388759613037
0,245953,-27.888458251953125,1.8217765092849731,40.1845817565918,10.19760799407959
0,245953,-6.937716007232666,27.95758056640625,-15.425200462341309,5.520715713500977
0,245954,-12.094072341918945,63.01285934448242,-13.722824096679688,6.030332565307617
0,245954,-50.13776397705078,48.72665023803711,-4.470400810241699,15.999848365783691
0,245954,-24.473501205444336,1.05925714969635,-12.726996421813965,2.559488296508789
0,245954,24.36261558532715,-12.193257331848145,11.623891830444336,-6.725870132446289
0,245954,32.26699447631836,-22.546154022216797,-1.3411235809326172,-17.16572380065918
0,245954,21.221586227416992,-42.91535949707031,-20.006284713745117,-16.772235870361328
0,245955,10.509355545043945,-6.309685230255127,6.878013610839844,-9.915138244628906
0,245955,16.934776306152344,-19.793455123901367,9.968183517456055,-7.592007160186768
0,245955,-3.502185106277466,-15.121220588684082,-0.11675816774368286,26.697580337524414
0,245955,-25.531564712524414,56.687522888183594,11.741584777832031,23.698118209838867
0,245955,-14.347369194030762,49.498199462890625,2.949007511138916,-6.054418087005615
0,245955,-35.34007263183594,-5.758323669433594,-14.662325859069824,0.6294273138046265
0,245956,-12.632684707641602,-14.771784782409668,5.076678276062012,11.4522123336792
0,245956,48.21760177612305,-5.092905521392822,-3.635392665863037,-2.7556986808776855
0,245956,14.07501220703125,-23.20284080505371,-0.4787580966949463,4.226755619049072
0,245956,-3.170597791671753,-28.87020492553711,13.710827827453613,7.89016580581665
0,245956,26.070463180541992,-38.40842819213867,-2.3204996585845947,-27.9916934967041
0,245956,19.022354125976562,-27.78685760498047,17.53798484802246,-16.74413299560547
0,245957,8.421308517456055,30.75367546081543,10.724398612976074,2.5639963150024414
0,245957,-21.48395538330078,34.9276237487793,-8.944039344787598,6.057041168212891
0,245957,-25.812101364135742,13.343135833740234,-7.373142242431641,2.927340507507324
0,245957,10.43722915649414,30.26980209350586,-8.23117446899414,-0.2717827260494232
0,245957,4.1949262619018555,20.370758056640625,8.04509162902832,12.714144706726074
0,245957,-17.253339767456055,-3.354820728302002,10.94577407836914,10.042109489440918
0,245958,-0.2543446719646454,20.876811981201172,-1.623207688331604,4.381223201751709
0,245958,26.978870391845703,27.716054916381836,-4.68021821975708,-7.517847061157227
0,245958,2.4130876064300537,-31.200380325317383,0.8532811403274536,1.3153643608093262
0,245958,-21.78080940246582,-17.85262680053711,4.6933512687683105,3.2228217124938965
0,245958,9.886898040771484,32.094627380371094,-2.36460542678833,-16.252635955810547
0,245958,3.3342020511627197,8.329214096069336,-1.1773302555084229,-4.547579765319824
0,245959,-35.698097229003906,9.128128051757812,2.6695468425750732,11.598666191101074
0,245959,-12.814677238464355,13.434403419494629,0.2760937213897705,-5.513669013977051
0,245959,-12.706145286560059,-20.67464256286621,-11.180389404296875,-35.512943267822266
0,245959,-19.091148376464844,-18.650653839111328,-9.542045593261719,-11.898351669311523
0,245959,4.298058032989502,9.163755416870117,19.178630828857422,22.871219635009766
0,245960,-3.2928466796875,-1.583306908607483,5.328855514526367,-12.120918273925781
0,245960,-0.043287426233291626,-14.334722518920898,-18.473369598388672,-14.422091484069824
0,245960,-10.366971969604492,9.892243385314941,4.31852912902832,5.227240085601807
0,245960,-18.746519088745117,24.619152069091797,16.242630004882812,-16.945968627929688
0,245960,-14.430195808410645,-9.610583305358887,8.069784164428711,23.7425594329834
0,245960,-14.344552040100098,-5.627664566040039,-4.804560661315918,28.639171600341797
0,245960,-2.214463233947754,33.49542999267578,-10.3019380569458,-10.940220832824707
0,245961,-0.7400696873664856,1.7502557039260864,-18.026023864746094,-2.053671360015869
0,245961,3.9894957542419434,-12.042123794555664,-11.189373016357422,-5.7314863204956055
0,245961,0.4129943549633026,12.405616760253906,18.297771453857422,10.609453201293945
0,245961,2.44575572013855,-8.765778541564941,-0.04506393149495125,16.720989227294922
0,245961,22.144433975219727,-16.345882415771484,-24.091869354248047,-13.542586326599121
0,245961,-4.772510051727295,9.849662780761719,-11.436086654663086,-3.7678747177124023
0,245963,-64.72148132324219,44.88798141479492,8.421991348266602,54.088478088378906
0,245963,-38.2904052734375,38.22093200683594,15.11011791229248,35.64663314819336
0,245963,50.231449127197266,-19.675125122070312,-4.716276168823242,-34.993568420410156
0,245963,41.49556350708008,-11.605111122131348,-9.236730575561523,-6.800349712371826
0,245963,-12.243794441223145,10.372293472290039,8.59837818145752,13.497773170471191
0,245964,4.983997821807861,-14.129937171936035,9.321115493774414,-14.1689453125
0,245965,6.568970203399658,17.01702880859375,-3.3556158542633057,-2.9487545490264893
0,245966,-35.239967346191406,21.999004364013672,-26.090999603271484,-36.40267562866211
0,245968,-8.135722160339355,-21.816160202026367,-25.693540573120117,-36.5934944152832
0,245970,-21.166934967041016,131.0236358642578,27.72794532775879,44.577110290527344
0,245972,-79.36593627929688,160.15509033203125,17.433876037597656,16.862024307250977
0,245974,76.31881713867188,-252.99632263183594,-68.98053741455078,8.250360488891602
0,245976,223.7803955078125,-340.4187927246094,-26.9952392578125,28.763721466064453
0,245978,233.63258361816406,-164.13217163085938,95.10350036621094,-40.900638580322266
0,245980,82.67808532714844,-53.680416107177734,81.09263610839844,-40.922386169433594
0,245982,-296.17388916015625,287.9110412597656,1.6150059700012207,-0.8713399767875671
0,245984,-258.0018005371094,184.32150268554688,-34.755226135253906,-19.97513198852539
0,245986,53.59980392456055,-62.19765090942383,-46.93655776977539,22.734371185302734
0,245988,62.09809112548828,33.20958709716797,-6.493685722351074,74.65916442871094
0,245990,-31.28907012939453,206.80796813964844,52.56772994995117,-35.08815383911133
0,245992,-101.51350402832031,154.80740356445312,1.9330912828445435,-46.77149963378906
0,245994,7.018887042999268,-263.9754943847656,-89.00814056396484,36.31663131713867
0,245996,164.44752502441406,-247.4188995361328,-31.851503372192383,8.886519432067871
0,245998,198.7340850830078,-166.7262420654297,62.72103500366211,-29.5006160736084
0,246000,87.85484313964844,-51.673439025878906,58.292823791503906,-26.145294189453125
0,246002,-276.2058410644531,360.80035400390625,-12.536764144897461,21.224416732788086
0,246004,-219.16189575195312,187.37530517578125,-31.660051345825195,21.604740142822266
0,246006,140.2666473388672,-143.03956604003906,10.88990306854248,10.826497077941895
0,246008,84.77674102783203,-102.31866455078125,-1.2621784210205078,17.76102638244629
0,246159,241.05943298339844,-285.6278076171875,16.605438232421875,-26.32522964477539
0,246160,204.44607543945312,-188.94520568847656,32.199623107910156,-43.60614013671875
0,246160,-309.02398681640625,338.3219299316406,0.160353884100914,10.578798294067383
0,246160,-224.18934631347656,260.3428649902344,-3.0081212520599365,20.108705520629883
0,246160,13.255115509033203,55.47288513183594,-18.93597412109375,-5.1757683753967285
0,246160,-32.65442657470703,44.8487434387207,-33.2966423034668,19.504589080810547
0,246160,4.763740539550781,-53.157955169677734,-21.16748809814453,16.257522583007812
0,246161,51.51983642578125,-90.67021179199219,-11.917819023132324,12.538980484008789
0,246161,49.79525375366211,-76.30318450927734,21.67084312438965,8.346067428588867
0,246161,19.88094139099121,-27.681894302368164,18.87497901916504,-26.15989112854004
0,246161,-21.918846130371094,-0.5053518414497375,-8.52911376953125,-21.546754837036133
0,246161,-68.80430603027344,46.239322662353516,13.908556938171387,-5.511781215667725
0,246162,-80.60480499267578,98.72911834716797,5.775778770446777,-4.9137654304504395
0,246162,-32.49452209472656,85.03276062011719,-16.743967056274414,-9.748918533325195
0,246162,-9.863791465759277,-1.5749982595443726,-1.6706700325012207,18.361427307128906
0,246162,3.523223400115967,-28.557950973510742,-14.959013938903809,11.459805488586426
0,246162,53.58835220336914,-21.774892807006836,-24.830080032348633,-27.586246490478516
0,246162,62.077369689941406,-73.4564437866211,3.276780128479004,10.816243171691895
0,246163,40.70562744140625,-73.69497680664062,12.0302095413208,23.12211036682129
0,246163,34.56390380859375,-8.99289321899414,14.322136878967285,-9.403398513793945
0,246163,-16.276330947875977,23.053524017333984,-0.10932210087776184,2.495285987854004
0,246163,-37.509708404541016,17.910049438476562,10.575582504272461,13.65650749206543
0,246163,-9.319741249084473,56.13445281982422,14.054423332214355,-6.754702568054199
0,246163,-26.68202018737793,42.627098083496094,-5.037156581878662,-4.75892448425293
0,246164,-20.708301544189453,-5.467685222625732,18.158287048339844,4.716386795043945
0,246164,18.186208724975586,-3.642479419708252,-6.307607173919678,-13.349241256713867
0,246164,36.24421310424805,-18.27824592590332,-34.23737716674805,-9.698823928833008
0,246164,27.143165588378906,-42.52513885498047,-0.20481747388839722,13.138427734375
0,246164,21.8394832611084,-47.58182907104492,17.929048538208008,1.5065839290618896
0,246164,8.454813957214355,-14.092243194580078,6.642068862915039,2.568791389465332
0,246165,-14.334187507629395,17.596799850463867,-0.10916718095541,12.585040092468262
0,246165,-10.866229057312012,23.573495864868164,-3.469191312789917,-10.671984672546387
0,246165,-13.892948150634766,35.48759460449219,-20.113245010375977,-12.921045303344727
0,246165,-33.0142936706543,26.961214065551758,-8.5372314453125,17.151668548583984
0,246165,-15.926020622253418,-0.4569299817085266,18.017765045166016,18.001686096191406
0,246166,9.84166145324707,-9.804056167602539,5.431480407714844,-7.498851299285889
0,246166,13.684983253479004,-8.11060619354248,-15.786630630493164,-16.437103271484375
0,246166,34.35253143310547,-21.731464385986328,-16.504724502563477,-11.242107391357422
0,246166,13.161578178405762,-37.153160095214844,19.509531021118164,10.109557151794434
0,246166,-17.737598419189453,-16.657020568847656,25.92151641845703,-5.853035926818848
0,246166,-4.494053840637207,0.3634973466396332,-21.140405654907227,-12.39498233795166
0,246167,-15.707926750183105,-5.536320209503174,-1.3138829469680786,21.04764175415039
0,246167,-16.37333869934082,27.35796546936035,23.70787239074707,0.48136985301971436
0,246167,8.960233688354492,37.7637825012207,-12.406826972961426,-20.7686767578125
0,246167,-6.734625339508057,-8.637317657470703,-18.397602081298828,13.87488079071045
0,246167,-18.650720596313477,-12.032401084899902,7.355432987213135,31.885271072387695
0,246167,12.891002655029297,0.5155729651451111,15.222288131713867,-6.683502197265625
0,246168,22.938318252563477,10.277780532836914,-9.495279312133789,-15.503985404968262
0,246168,13.743511199951172,0.7926245927810669,-16.097646713256836,-13.063035011291504
0,246168,11.254944801330566,-26.849260330200195,1.1687091588974,-1.9670816659927368
0,246168,-7.035061836242676,-5.60493803024292,4.830721378326416,18.01459312438965
0,246168,1.5423080921173096,27.1723690032959,9.16790771484375,-17.357309341430664
0,246168,-2.1108717918395996,29.975387573242188,-0.2342485934495926,-17.1693115234375
0,246169,-20.52794647216797,-0.27642038464546204,-7.232850551605225,15.194165229797363
0,246169,-0.5155594348907471,15.964384078979492,18.87409210205078,1.3615739345550537
0,246169,9.916341781616211,27.085609436035156,16.473712921142578,-6.03904390335083
0,246169,-1.6625462770462036,6.9580183029174805,-13.12478256225586,11.646052360534668
0,246169,-10.443877220153809,17.59438133239746,-21.15843391418457,-11.583715438842773
0,246169,-2.147570848464966,-19.735031127929688,13.678703308105469,-10.512382507324219
0,246170,-23.856918334960938,-23.25448989868164,24.636606216430664,9.868966102600098
0,246170,-11.908282279968262,19.26126480102539,-28.768104553222656,-12.270456314086914
0,246170,24.265851974487305,-8.840654373168945,-18.027297973632812,4.538823127746582
0,246170,-1.7386009693145752,-0.9512865543365479,32.35098648071289,20.33049201965332
0,246170,-16.008371353149414,20.75375747680664,0.719109296798706,-4.312662124633789
0,246170,1.0056959390640259,-16.95906639099121,-23.657339096069336,2.4569554328918457
0,246171,6.0821733474731445,-18.053617477416992,-1.3959579467773438,2.852839946746826
0,246171,-3.922762393951416,-11.736209869384766,-6.656561374664307,-9.210762023925781
0,246171,14.590880393981934,-11.004924774169922,9.119513511657715,-2.5530343055725098
0,246171,27.864051818847656,-0.7800781726837158,10.745840072631836,-2.170471429824829
0,246171,0.028236333280801773,-17.44753074645996,-12.448949813842773,7.685626029968262
0,246171,-4.850006103515625,-15.901061058044434,10.427395820617676,19.406469345092773
0,246172,9.972079277038574,37.46792984008789,7.881016254425049,13.226509094238281
0,246172,5.544798374176025,35.198307037353516,-22.911252975463867,-6.207437992095947
0,246172,4.566524028778076,-15.753965377807617,-7.948665142059326,-5.176428318023682
0,246172,12.022869110107422,-16.558122634887695,7.991384983062744,-0.7410610318183899
0,246172,-6.218830108642578,-23.4885196685791,-6.100752830505371,1.9750511646270752
0,246174,45.917625427246094,-130.17083740234375,-20.652873992919922,45.919593811035156
0,246174,84.63531494140625,-113.53650665283203,-6.1873674392700195,26.96303367614746
0,246174,-16.84354019165039,41.308475494384766,19.752422332763672,-25.913854598999023
0,246174,-30.253246307373047,9.260074615478516,10.091776847839355,-22.695947647094727
0,246174,4.251330375671387,-22.29044532775879,4.989076614379883,-8.211509704589844
0,246174,-13.7550630569458,26.06836700439453,10.361303329467773,1.503157615661621
0,246175,-0.7929445505142212,4.428589820861816,-6.4243693351745605,-14.879508018493652
0,246176,25.523622512817383,-130.56866455078125,-21.892105102539062,-34.3309326171875
0,246179,144.5452880859375,-224.3744659423828,38.76359176635742,-29.621124267578125
0,246180,71.8092269897461,89.21527862548828,98.22686004638672,-12.474647521972656
0,246183,-286.0360107421875,399.2616882324219,5.20943021774292,-5.76125955581665
0,246184,-228.0369873046875,182.699462890625,-77.43144226074219,9.36034870147705
0,246185,60.70295715332031,-31.415348052978516,-21.389698028564453,0.2330487072467804
0,246188,24.915512084960938,63.80672836303711,12.077059745788574,3.1014840602874756
0,246189,-30.256834030151367,114.88662719726562,-3.2552404403686523,37.10817337036133
0,246192,-90.46045684814453,57.831581115722656,-44.568199157714844,4.310953617095947
0,246193,-52.83929443359375,-82.42363739013672,-76.8168716430664,25.321979522705078
0,246196,263.02294921875,-318.2324523925781,11.697610855102539,23.793811798095703
0,246197,266.81634521484375,-288.8114013671875,61.62180709838867,-37.73141860961914
0,246200,-12.52962589263916,122.77046203613281,68.15771484375,-7.773604393005371
0,246201,-141.0620574951172,233.0509490966797,39.23358154296875,-9.99679946899414
0,246204,-166.29571533203125,21.607662200927734,-74.23704528808594,13.712796211242676
0,246205,-32.155818939208984,-45.22122573852539,-27.856019973754883,25.394014358520508
0,246208,75.77713775634766,-35.268165588378906,30.69258689880371,-27.255159378051758
0,246209,3.3015658855438232,105.95211791992188,4.484497547149658,-2.7690658569335938
0,246212,-130.10499572753906,192.65040588378906,-12.8992919921875,7.211568355560303
0,246213,-69.77893829345703,-21.352962493896484,-40.72010040283203,14.134174346923828
0,246216,241.76132202148438,-287.7920227050781,-5.103676795959473,-0.6326140761375427
0,246217,219.39810180664062,-216.06256103515625,18.525146484375,-24.438016891479492
0,246220,-77.92626953125,104.46795654296875,51.040016174316406,-1.4550915956497192
0,246221,-146.5860137939453,153.9030303955078,27.308805465698242,-1.839616060256958
0,246384,-115.67305755615234,63.229888916015625,-54.94746398925781,14.476176261901855
0,246384,33.413970947265625,-47.07985305786133,-15.981575965881348,1.3833024501800537
0,246384,161.0802764892578,-160.47113037109375,36.40502166748047,-35.088279724121094
0,246385,35.9932861328125,-32.89360809326172,24.667619705200195,-13.048912048339844
0,246385,-71.09919738769531,59.609615325927734,-0.08647935837507248,14.949432373046875
0,246385,-97.76312255859375,85.7320785522461,-9.03329849243164,0.17958465218544006
0,246385,-89.77301788330078,135.1222686767578,-14.688523292541504,-3.885296583175659
0,246385,-58.66714859008789,98.25025177001953,-14.820765495300293,15.206548690795898
0,246386,-12.280984878540039,35.927486419677734,-19.96149253845215,30.41649627685547
0,246386,57.98474884033203,-37.29645538330078,-21.10071563720703,10.68591594696045
0,246386,92.9862289428711,-108.86395263671875,-4.517106056213379,-11.367926597595215
0,246386,93.41578674316406,-112.28254699707031,-2.8220715522766113,6.177581310272217
0,246386,41.62995910644531,-75.49407958984375,30.636974334716797,9.625713348388672
0,246386,0.9251214265823364,-10.439043045043945,34.92365264892578,-9.731852531433105
0,246387,-6.172799587249756,50.06159973144531,-4.6975579261779785,-22.8201904296875
0,246387,-58.75923538208008,45.82548522949219,-8.584318161010742,-0.4697357416152954
0,246387,-78.06354522705078,64.25392150878906,-0.6269885897636414,19.93965721130371
0,246387,-29.898208618164062,58.77801513671875,-5.175418853759766,9.225679397583008
0,246387,7.609715461730957,21.519454956054688,-19.563430786132812,-9.929015159606934
0,246387,31.66930389404297,-33.748077392578125,-14.401163101196289,1.6384694576263428
0,246388,37.2159309387207,-78.59326934814453,2.8944242000579834,15.062809944152832
0,246388,37.4239387512207,-27.958492279052734,17.363971710205078,-16.610788345336914
0,246388,37.346771240234375,-22.9537410736084,11.532405853271484,-12.744111061096191
0,246388,7.2281975746154785,-23.216733932495117,0.5494776964187622,10.95276927947998
0,246388,-34.70702362060547,51.9814338684082,25.206485748291016,0.048523616045713425
0,246388,-35.61525344848633,72.75969696044922,11.736244201660156,-11.000933647155762
0,246389,-47.935516357421875,64.48343658447266,-21.141746520996094,-6.512901306152344
0,246389,-54.270362854003906,40.876834869384766,-0.8598378300666809,10.997733116149902
0,246389,3.4282779693603516,-2.8255233764648438,-0.8472225666046143,-5.674579620361328
0,246389,14.551994323730469,-12.484912872314453,-22.449161529541016,-1.9157342910766602
0,246389,18.797740936279297,-31.316692352294922,5.72714900970459,12.456247329711914
0,246389,41.548583984375,-42.80622863769531,18.044788360595703,-21.13970375061035
0,246390,-2.021749496459961,-29.611167907714844,-6.650058746337891,-11.086343765258789
0,246390,-25.80258560180664,-31.12175178527832,-3.2780404090881348,19.744779586791992
0,246390,18.08049774169922,-12.868617057800293,-0.7103633284568787,7.003722190856934
0,246390,16.540666580200195,22.54085922241211,-9.830620765686035,-10.149138450622559
0,246390,-36.740394592285156,15.949378967285156,1.378928542137146,-4.419736862182617
0,246391,-34.35457992553711,-15.476551055908203,-19.500038146972656,-6.717126369476318
0,246391,9.786324501037598,-35.64713668823242,-26.745529174804688,9.937277793884277
0,246391,11.155619621276855,-22.563316345214844,26.114585876464844,27.948505401611328
0,246391,15.52793025970459,-16.065685272216797,1.08091402053833,-16.117464065551758
0,246391,40.810302734375,-32.720703125,-20.83509635925293,-13.074437141418457
0,246391,14.510208129882812,-19.029891967773438,20.250818252563477,32.76602554321289
0,246392,-2.1786856651306152,18.363773345947266,3.972630500793457,-6.031772613525391
0,246392,16.8477783203125,12.111573219299316,-17.532970428466797,-26.62468147277832
0,246392,-12.93520450592041,0.884708821773529,6.060521125793457,19.234596252441406
0,246392,-19.62252426147461,26.29273223876953,16.375072479248047,4.658964157104492
0,246392,2.107541561126709,2.9285194873809814,-9.442773818969727,1.6155226230621338
0,246392,-21.174842834472656,-3.4277467727661133,-0.0376950167119503,22.731061935424805
0,246393,10.403166770935059,12.396791458129883,14.846700668334961,-21.485483169555664
0,246393,42.37125015258789,-9.004876136779785,-0.7318117022514343,-22.246713638305664
0,246393,25.56599235534668,-16.257678985595703,-2.1816751956939697,6.809926509857178
0,246393,11.676168441772461,-25.22744369506836,-16.922277450561523,1.8043813705444336
0,246393,-11.550930976867676,-23.076194763183594,6.415350437164307,-4.63585090637207
0,246393,-3.9243810176849365,16.014257431030273,31.82363510131836,7.505281448364258
0,246394,-2.0693745613098145,37.00786209106445,-3.381469488143921,24.21376609802246
0,246394,-5.000420093536377,5.143501281738281,-5.176779747009277,-21.64277458190918
0,246394,20.658512115478516,-21.066556930541992,5.080881118774414,-19.311908721923828
0,246394,5.289730548858643,-8.569891929626465,-24.533557891845703,13.585962295532227
0,246394,-11.642339706420898,-7.00250244140625,-13.684222221374512,-19.433795928955078
0,246394,-6.687654495239258,-1.9857293367385864,26.21682357788086,-3.5213232040405273
0,246395,0.7688450813293457,-10.906564712524414,11.49899673461914,13.511872291564941
0,246395,13.42734432220459,-15.915121078491211,-12.759567260742188,-0.18855218589305878
0,246395,-14.731980323791504,-0.1786574125289917,-2.368900775909424,14.38683032989502
0,246395,-17.92496681213379,5.352875232696533,15.696283340454102,-14.270570755004883
0,246395,18.502771377563477,9.901986122131348,7.465150833129883,-25.5430850982666
0,246395,14.209714889526367,-13.403570175170898,-8.592816352844238,22.959383010864258
0,246396,-8.839276313781738,8.189743995666504,-5.680191993713379,-0.3827439546585083
0,246396,-17.32253646850586,17.872314453125,5.716385364532471,5.276061534881592
0,246396,-8.528183937072754,1.4546818733215332,-1.1896209716796875,29.389039993286133
0,246396,15.522041320800781,21.831161499023438,-6.908782005310059,-15.0089111328125
0,246396,22.574424743652344,12.74916934967041,16.127275466918945,-10.149456977844238
0,246396,5.617058753967285,-3.1481714248657227,0.16918830573558807,-5.409296989440918
0,246397,-2.23628568649292,5.049117565155029,-16.72496223449707,0.039264507591724396
0,246397,2.224543809890747,8.48060131072998,14.360971450805664,17.70551109313965
0,246397,4.450700283050537,7.031476974487305,10.51828670501709,-21.506813049316406
0,246397,-19.82647705078125,24.630596160888672,-13.403828620910645,-20.20766258239746
0,246397,-27.21887969970703,-1.9466665983200073,1.070825457572937,22.547441482543945
0,246397,5.878769397735596,-25.469911575317383,12.334770202636719,8.871454238891602
0,246398,4.150166034698486,13.082540512084961,9.45231819152832,-10.15213394165039
0,246398,-10.011617660522461,23.06253433227539,-5.7756757736206055,-18.329814910888672
0,246399,19.374408721923828,17.929014205932617,32.07807922363281,-20.36861228942871
0,246399,14.481331825256348,30.522794723510742,39.64704895019531,3.7091739177703857
0,246399,-54.34230422973633,-4.26857852935791,-46.495765686035156,20.423656463623047
0,246400,-42.75231170654297,-16.623958587646484,-19.505109786987305,14.287320137023926
0,246400,11.286517143249512,25.974750518798828,11.077919006347656,-11.939573287963867
0,246400,-2.4602911472320557,6.494417190551758,-21.12881851196289,-4.625612735748291
0,246400,-26.559795379638672,-13.75999641418457,1.3877923488616943,24.755064010620117
0,246401,-53.80659866333008,45.766265869140625,1.9556471109390259,6.340672016143799
0,246402,-32.18365478515625,24.210908889770508,-31.270715713500977,-1.1283451318740845
0,246404,-55.61825180053711,7.666154861450195,-31.91244125366211,6.970396518707275
0,246406,-78.40421295166016,70.80683135986328,-6.008521556854248,27.723241806030273
0,246408,57.02473831176758,66.53424072265625,2.7190804481506348,-3.0788073539733887
0,246410,24.124324798583984,100.45851135253906,15.085979461669922,-72.16431427001953
0,246412,-66.44527435302734,-47.62986755371094,-35.32802200317383,35.95767593383789
0,246414,92.96525573730469,-295.2707824707031,-62.9892463684082,90.93333435058594
0,246416,308.4526062011719,-352.5651550292969,37.49442672729492,-39.59830856323242
0,246418,217.73670959472656,-174.48828125,73.88151550292969,-57.073482513427734
0,246421,-133.82530212402344,289.8714294433594,82.06230926513672,-43.00988006591797
0,246422,-193.88690185546875,288.7983703613281,20.027189254760742,-27.246057510375977
0,246425,-50.2713737487793,-64.44205474853516,-84.35482025146484,68.72933959960938
0,246426,4.226115703582764,-44.7817497253418,-13.57804012298584,40.76557540893555
0,246429,15.561856269836426,82.81010437011719,33.104644775390625,-49.7292594909668
0,246430,-83.35340881347656,142.525146484375,-12.40218734741211,-23.04375457763672
0,246433,-109.53426361083984,-25.893722534179688,-37.94577407836914,109.38070678710938
0,246434,82.80419158935547,-185.06988525390625,-45.10588073730469,66.43781280517578
0,246435,154.45526123046875,-72.25839233398438,11.418401718139648,-110.87146759033203
0,246438,145.22308349609375,-126.80099487304688,57.51445770263672,-90.22880554199219
0,246439,73.52394104003906,-45.401668548583984,65.1106185913086,-18.931543350219727
0,246442,-195.466064453125,279.1658630371094,32.93056869506836,35.45955276489258
0,246443,-133.959228515625,72.3738021850586,-46.17444610595703,65.16927337646484
0,246446,36.951446533203125,-159.3909454345703,-78.06536865234375,-8.336772918701172
0,246614,15.889711380004883,-31.400354385375977,-56.550785064697266,15.467508316040039
0,246615,69.41938018798828,-42.417030334472656,0.5347200036048889,43.92519760131836
0,246615,-3.947558879852295,31.13739585876465,61.70446014404297,-66.02733612060547
0,246615,-95.87256622314453,126.06979370117188,31.46074867248535,-36.84797286987305
0,246615,-74.63370513916016,78.04576873779297,-32.180938720703125,36.97211837768555
0,246615,-31.954816818237305,30.465633392333984,-38.079341888427734,8.761816024780273
0,246615,38.23329162597656,-32.14451599121094,-11.528483390808105,-5.0309834480285645
0,246616,58.57432556152344,-92.13972473144531,13.961371421813965,-8.656753540039062
0,246616,71.38719940185547,-120.0079345703125,-13.75722885131836,-17.63134002685547
0,246616,80.29681396484375,-102.517333984375,17.45319366455078,-13.516291618347168
0,246616,63.79782485961914,-37.148284912109375,73.00503540039062,-0.2698094844818115
0,246616,21.775548934936523,45.03127670288086,25.310035705566406,-6.579747676849365
0,246616,-55.57098388671875,57.06059265136719,3.9231929779052734,-3.836052894592285
0,246617,-57.75459671020508,75.53064727783203,8.914881706237793,15.266217231750488
0,246617,-53.52826690673828,112.05724334716797,-9.770608901977539,31.840328216552734
0,246617,-50.65947723388672,54.68784713745117,-18.159320831298828,18.106985092163086
0,246617,4.573111534118652,-2.9621565341949463,-15.140347480773926,-0.7260796427726746
0,246617,22.173776626586914,-47.82817459106445,-12.59811019897461,15.90578842163086
0,246617,43.87184143066406,-69.95394897460938,-8.254863739013672,10.40434741973877
0,246618,49.87101745605469,-29.209501266479492,27.96820640563965,-32.554656982421875
0,246618,33.708717346191406,-1.1209826469421387,34.415035247802734,-28.105680465698242
0,246618,-5.208503723144531,6.972326755523682,5.375722408294678,-7.31083869934082
0,246618,-42.52515411376953,35.40921401977539,-1.000931739807129,-25.6971492767334
0,246618,-39.0781364440918,83.63153076171875,-2.4372220039367676,-9.234848022460938
0,246618,-50.576377868652344,53.78302001953125,-10.74293041229248,31.350107192993164
0,246619,-31.54716682434082,8.639915466308594,-12.68949031829834,16.400997161865234
0,246619,-5.760833263397217,3.6833088397979736,2.2830474376678467,-20.966449737548828
0,246619,2.704514503479004,-30.675838470458984,-13.250251770019531,7.763663291931152
0,246619,18.442440032958984,-40.14668273925781,-15.42286205291748,32.238948822021484
0,246619,22.50080108642578,-42.619014739990234,13.964035034179688,-11.639496803283691
0,246619,14.786518096923828,-28.995309829711914,4.464635848999023,-17.00357437133789
0,246620,-18.46356201171875,3.295659303665161,7.2131195068359375,8.228570938110352
0,246620,-29.638811111450195,18.367441177368164,9.06078815460205,-16.413972854614258
0,246620,-14.69466781616211,43.05706787109375,-9.047698020935059,0.5151761770248413
0,246620,-25.340269088745117,31.085845947265625,-2.1126503944396973,32.17938995361328
0,246620,-10.02090072631836,-8.858475685119629,-21.14117431640625,-18.75678062438965
0,246620,10.114296913146973,0.6241741180419922,-22.100109100341797,-2.861301898956299
0,246621,9.6272554397583,0.8748995065689087,18.590450286865234,45.69798278808594
0,246621,26.11150550842285,-34.366371154785156,-5.052653789520264,-13.369536399841309
0,246621,25.0768985748291,-20.734413146972656,-18.673795700073242,-26.181621551513672
0,246621,14.812455177307129,-8.350695610046387,-4.104141712188721,28.92643928527832
0,246621,-10.617142677307129,-0.6374385356903076,-5.7254557609558105,8.32066535949707
0,246621,-26.967391967773438,23.556787490844727,12.475419044494629,-13.50390911102295
0,246622,-6.164412498474121,-12.732985496520996,2.2341811656951904,11.359020233154297
0,246622,1.3619505167007446,-5.9024434089660645,-6.406985759735107,-3.5624430179595947
0,246622,9.35927677154541,55.641944885253906,11.001609802246094,-15.531265258789062
0,246622,9.192157745361328,-4.977112770080566,-17.241188049316406,12.967606544494629
0,246622,0.42327624559402466,-47.682559967041016,-11.587324142456055,17.858835220336914
0,246623,-3.4077606201171875,-10.483175277709961,37.95509719848633,-3.4139199256896973
0,246623,9.247316360473633,-5.80613374710083,12.947324752807617,-16.95104217529297
0,246623,21.27459144592285,-5.27116584777832,-11.6066255569458,-12.529735565185547
0,246623,7.4867048263549805,-11.000452041625977,-20.297964096069336,-2.0940418243408203
0,246623,-0.5680842995643616,17.90196990966797,-7.960644245147705,-12.266156196594238
0,246623,-17.235837936401367,30.797197341918945,21.43035316467285,-14.266871452331543
0,246624,-29.697484970092773,-5.664040565490723,2.099327802658081,9.658342361450195
0,246624,-1.6761406660079956,-1.8501602411270142,-12.155621528625488,11.705718040466309
0,246624,8.464995384216309,13.705147743225098,-12.894947052001953,-5.660799980163574
0,246624,-1.9279426336288452,4.977222919464111,2.5255396366119385,-19.445837020874023
0,246624,24.237720489501953,-12.220946311950684,16.331520080566406,-5.628097057342529
0,246624,15.507174491882324,-9.128340721130371,23.204851150512695,10.897555351257324
0,246625,5.972114562988281,3.190675735473633,11.648407936096191,-13.325263023376465
0,246625,18.8120059967041,-12.583639144897461,-23.788496017456055,-14.001811027526855
0,246625,-16.47878646850586,-6.083024501800537,-3.16469144821167,23.261516571044922
0,246625,-23.327993392944336,12.035920143127441,29.87957191467285,13.116629600524902
0,246625,14.096956253051758,10.18200397491455,-0.0819484293460846,-5.9854416847229
0,246625,14.623151779174805,-3.0956296920776367,-31.91260528564453,4.228180408477783
0,246626,-13.40440845489502,-11.951151847839355,-9.803206443786621,-10.87988567352295
0,246626,-12.742471694946289,-13.850076675415039,9.359525680541992,2.3084161281585693
0,246626,-15.9849214553833,-14.498101234436035,-9.552292823791504,28.220386505126953
0,246626,-6.36072301864624,-0.20325064659118652,-15.384891510009766,10.49837875366211
0,246626,10.982403755187988,13.660624504089355,-5.837632179260254,13.931344985961914
0,246626,-1.1436831951141357,12.047828674316406,20.01230239868164,15.452080726623535
0,246627,-7.912896156311035,-6.399507522583008,16.28078842163086,-29.260719299316406
0,246627,-14.727131843566895,1.6031866073608398,-9.914231300354004,-21.071308135986328
0,246627,-0.8030526041984558,16.3918514251709,3.472949504852295,25.99099349975586
0,246627,9.234935760498047,-1.046167016029358,-7.861731052398682,12.87043285369873
0,246627,4.45730447769165,0.5697037577629089,3.6261725425720215,-8.561729431152344
0,246627,17.29381561279297,8.889517784118652,21.253501892089844,-4.9195356369018555
0,246628,12.28531265258789,-7.688021183013916,-13.66438102722168,-19.074983596801758
0,246628,1.9475635290145874,4.097832202911377,9.059423446655273,4.365753173828125
0,246628,2.7319841384887695,29.971967697143555,21.489635467529297,23.92557716369629
0,246628,4.374617099761963,21.531524658203125,-12.488446235656738,-36.124019622802734
0,246628,-1.6698343753814697,-10.827122688293457,0.7826651930809021,-11.35681438446045
0,246628,-13.305768013000488,-3.536325454711914,13.128762245178223,37.22994613647461
0,246630,-68.21256256103516,76.48601531982422,-0.13018862903118134,5.48792839050293
0,246630,-59.256534576416016,36.790767669677734,-32.25520324707031,-2.6759185791015625
0,246630,40.0587272644043,-62.44932556152344,-15.014759063720703,-7.002408981323242
0,246630,20.038183212280273,-11.228145599365234,15.604621887207031,-19.05643081665039
0,246630,-11.52395248413086,-28.265029907226562,-19.314916610717773,-3.596388101577759
0,246631,1.6835986375808716,-71.15062713623047,-6.900735855102539,13.192291259765625
0,246631,25.81243896484375,4.425610542297363,4.605560302734375,-9.070204734802246
0,246631,27.558883666992188,5.2204155921936035,2.049553394317627,-13.963282585144043
0,246632,7.087002277374268,-82.74385070800781,-16.22564697265625,17.67119026184082
0,246634,104.66816711425781,-146.00576782226562,-59.66383361816406,-4.254402160644531
0,246636,274.1319580078125,-305.4417724609375,26.433683395385742,20.21640968322754
0,246638,184.4197540283203,-173.99667358398438,93.0062255859375,-5.927457332611084
0,246640,-223.92286682128906,345.5325012207031,62.49749755859375,-117.49370574951172
0,246642,-279.6428527832031,323.4942321777344,17.455446243286133,13.49898624420166
0,246644,-47.84111785888672,45.90106201171875,-56.4183464050293,129.55120849609375
0,246646,-12.334802627563477,7.076971530914307,-53.428932189941406,9.707137107849121
0,246648,-29.869117736816406,35.12281799316406,10.69706916809082,-66.81050109863281
0,246650,-97.97179412841797,180.72084045410156,31.290006637573242,-19.609663009643555
0,246652,-95.89669799804688,139.11508178710938,-39.868247985839844,61.882511138916016
0,246654,97.82366180419922,-118.83130645751953,-70.76559448242188,47.39664077758789
0,246656,267.7565612792969,-415.6585693359375,28.39771842956543,-32.79368591308594
0,246658,155.70660400390625,-245.7445068359375,61.6447868347168,-32.096920013427734
0,246660,-169.55941772460938,288.6979675292969,16.941993713378906,-17.449243545532227
0,246662,-188.64547729492188,206.5546875,-14.647160530090332,-19.77134895324707
0,246664,23.4669246673584,-64.27655029296875,-11.35035514831543,14.840235710144043
0,246666,42.902191162109375,-53.77845764160156,-6.581864833831787,43.692115783691406
0,246668,2.4952967166900635,36.11415481567383,1.509736180305481,-24.754135131835938
0,246670,-85.47701263427734,153.7802276611328,27.754653930664062,-69.2440185546875
0,246672,-89.74766540527344,29.609607696533203,-45.8603401184082,40.2678337097168
0,246674,84.05034637451172,-142.0703887939453,-52.828975677490234,75.51253509521484
0,246676,199.31121826171875,-230.77066040039062,41.291927337646484,-12.3446044921875
0,246678,131.17083740234375,-126.82927703857422,27.558082580566406,-53.50291442871094
0,246680,-137.44898986816406,248.72976684570312,35.64854049682617,-32.54017639160156
0,246682,-175.9413299560547,192.73097229003906,25.390989303588867,17.69256019592285
1,247736,242.98886108398438,-250.27476501464844,-37.973411560058594,56.896385192871094
1,247738,235.9491424560547,-232.35874938964844,0.18317507207393646,-3.196317195892334
1,247740,-274.8420715332031,163.95077514648438,9.345966339111328,-55.42264938354492
1,247742,-192.71710205078125,173.07656860351562,-14.468123435974121,22.475139617919922
1,247744,10.027775764465332,47.81067657470703,8.689518928527832,37.41879653930664
1,247746,-95.71170806884766,172.2374725341797,1.4010337591171265,-32.119747161865234
1,247748,-163.00697326660156,262.6243591308594,-17.75868034362793,-9.75033950805664
1,247750,-134.48634338378906,103.5225601196289,-36.66746139526367,52.42799377441406
1,247761,272.19989013671875,-407.4992370605469,-12.86221694946289,-6.78715705871582
1,247761,284.9955139160156,-354.51568603515625,25.273962020874023,-42.352333068847656
1,247762,-98.45915222167969,112.5258560180664,-24.1763858795166,28.651391983032227
1,247762,24.233320236206055,-17.6894588470459,-16.424636840820312,2.8343398571014404
1,247762,127.09180450439453,-120.3729019165039,44.196998596191406,-26.812124252319336
1,247763,-13.189361572265625,25.58556365966797,31.96054458618164,2.0847585201263428
1,247765,-54.59624481201172,100.93988037109375,24.071880340576172,-9.012700080871582
1,247766,-24.203920364379883,116.45341491699219,7.120315074920654,-7.1525373458862305
1,247769,-155.64710998535156,197.622314453125,-36.71854782104492,41.08341598510742
1,247770,-173.51577758789062,118.5495834350586,-41.98191452026367,34.38418960571289
1,247773,199.86148071289062,-326.6537780761719,-59.67873764038086,-0.6954470872879028
1,247774,274.5528564453125,-342.6871643066406,-7.478866100311279,-1.282637119293213
1,247777,66.44010925292969,-8.175736427307129,102.48713684082031,-63.8537483215332
1,247778,-40.7746467590332,145.27642822265625,66.77998352050781,-53.269168853759766
1,247781,-189.12484741210938,173.52398681640625,-30.329788208007812,55.7453727722168
1,247782,-90.19741821289062,-12.356178283691406,-27.260976791381836,10.576367378234863
1,247785,93.54437255859375,-58.414859771728516,-7.483922481536865,-21.662277221679688
1,247808,-114.89558410644531,233.94009399414062,-13.315705299377441,21.853376388549805
1,247808,-161.69749450683594,206.1241455078125,35.25355911254883,-15.924246788024902
1,247808,51.315303802490234,-92.75634002685547,-0.7750210165977478,-5.04461145401001
1,247808,-5.124420166015625,-4.523636817932129,-51.5133056640625,20.884296417236328
1,247809,-68.67047882080078,71.4017105102539,14.63180160522461,13.61895751953125
1,247809,32.345367431640625,-46.74344253540039,4.688655853271484,5.150721073150635
1,247809,84.73613739013672,-78.54550170898438,-46.07927703857422,-3.208873987197876
1,247809,79.76203155517578,-120.05758666992188,-1.071729063987732,6.033806800842285
1,247809,79.94965362548828,-148.84156799316406,36.865028381347656,4.41650915145874
1,247809,63.96540832519531,-105.79518127441406,-1.9354714155197144,-16.176889419555664
1,247810,44.804622650146484,-27.72892951965332,1.8119064569473267,-15.23430061340332
1,247810,3.0242741107940674,24.729267120361328,20.19298553466797,1.6620264053344727
1,247811,-15.295514106750488,-30.29279136657715,-17.165021896362305,-1.760197639465332
1,247813,47.5589485168457,-125.91110229492188,-32.18347930908203,5.7908806800842285
1,247814,78.64585876464844,-97.76062774658203,2.767371416091919,-0.1026470959186554
1,247817,89.00128173828125,17.953975677490234,77.0341796875,-1.424869418144226
1,247818,-60.872413635253906,175.8408203125,58.126243591308594,-3.0924408435821533
1,247821,-263.2906188964844,208.1259765625,-51.62289047241211,-34.113433837890625
1,247822,-86.08152770996094,37.08467483520508,-41.3043212890625,-31.826562881469727
1,247825,112.16939544677734,-14.817819595336914,17.382537841796875,70.28614044189453
1,247826,4.093855381011963,49.90227127075195,16.31273078918457,79.85003662109375
1,247829,-195.00120544433594,154.10516357421875,-7.9365105628967285,-91.33979034423828
1,247830,-149.80328369140625,100.2889175415039,-60.81776428222656,-38.22370529174805
1,247833,207.21121215820312,-257.9178771972656,-56.876014709472656,101.3184585571289
1,247834,246.95773315429688,-276.23040771484375,23.674877166748047,21.31753158569336
1,247872,-197.77938842773438,303.17755126953125,23.885854721069336,-34.40587615966797
1,247872,-230.7874298095703,325.262451171875,-34.12053680419922,-16.488447189331055
1,247872,185.81735229492188,-298.1027526855469,1.8941224813461304,-4.024168014526367
1,247872,180.14602661132812,-250.43356323242188,33.52851104736328,15.33352279663086
1,247872,44.15522003173828,-46.87205123901367,14.06400203704834,-3.766177177429199
1,247872,41.194908142089844,-59.482666015625,19.49400520324707,-49.4199333190918
1,247873,-21.608213424682617,49.46516036987305,20.13083839416504,-17.089818954467773
1,247873,-63.869205474853516,80.43211364746094,25.22256851196289,18.726577758789062
1,247873,-64.99272155761719,84.51680755615234,6.420661449432373,-2.741609811782837
1,247873,-39.078765869140625,55.13235855102539,-30.34002685546875,5.259075164794922
1,247873,-21.07574462890625,20.93223762512207,-11.990450859069824,17.47789192199707
1,247873,26.652307510375977,-54.7257080078125,1.4815438985824585,21.217437744140625
1,247874,55.513877868652344,-90.97697448730469,3.138516426086426,0.10936227440834045
1,247874,70.74276733398438,-47.139549255371094,19.987041473388672,-21.050537109375
1,247874,49.41367721557617,-40.92471694946289,-2.7006094455718994,3.882661819458008
1,247874,-7.027755260467529,-6.416140556335449,-9.881990432739258,4.2813639640808105
1,247874,-17.64283561706543,78.03359985351562,24.99770736694336,-19.436742782592773
1,247875,-43.952945709228516,69.97642517089844,8.507901191711426,-18.891441345214844
1,247875,-71.61490631103516,40.725608825683594,-34.360965728759766,-8.791186332702637
1,247876,-8.614129066467285,75.65879821777344,15.450697898864746,-1.7793532609939575
1,247876,2.2175583839416504,40.56379318237305,35.65445327758789,-3.6407370567321777
1,247878,-81.70907592773438,16.114078521728516,-16.840667724609375,1.9612292051315308
1,247880,-96.91105651855469,103.97822570800781,-8.4575834274292,-2.4929018020629883
1,247882,-41.446678161621094,66.7950668334961,-19.54123306274414,19.149845123291016
1,247884,30.31990623474121,-54.96677780151367,-39.983585357666016,31.66255760192871
1,247886,33.45663833618164,-23.89128875732422,-7.207722187042236,-25.16727638244629
1,247888,-109.8812026977539,129.38412475585938,19.915563583374023,23.440933227539062
1,247890,-98.06572723388672,42.57967758178711,-14.715431213378906,20.716989517211914
1,247892,240.57986450195312,-357.8937072753906,-48.434715270996094,-8.067493438720703
1,247894,266.23388671875,-329.888916015625,-23.037933349609375,58.39179992675781
1,247896,78.97891998291016,60.03525161743164,87.04715728759766,-45.82892990112305
1,247898,-12.48155689239502,160.0370330810547,104.67717742919922,-93.21725463867188
1,247900,-207.98916625976562,88.17871856689453,-54.448429107666016,33.68560791015625
1,247902,-85.98766326904297,-34.25083923339844,-73.18505096435547,44.95808029174805
1,247953,192.72183227539062,-248.259521484375,-43.36281204223633,10.992642402648926
1,247953,119.05612182617188,-124.3292465209961,-6.198825359344482,8.72770881652832
1,247954,-74.89441680908203,150.7498779296875,76.12452697753906,-34.125457763671875
1,247954,-70.95084381103516,128.43524169921875,8.754125595092773,-4.704648494720459
1,247954,-46.464874267578125,85.06649017333984,-28.31768798828125,32.271263122558594
1,247954,-89.14745330810547,69.36077117919922,14.325177192687988,-3.868561267852783
1,247954,-32.5155029296875,35.80946731567383,7.510369777679443,-18.445690155029297
1,247955,49.628719329833984,-21.16851234436035,-21.912185668945312,1.6780387163162231
1,247955,71.68831634521484,-78.0130386352539,-8.037936210632324,6.539891242980957
1,247955,41.575401306152344,-54.9964599609375,36.43269348144531,-14.021531105041504
1,247955,17.194561004638672,-38.02851104736328,19.579885482788086,-9.272602081298828
1,247955,4.44594669342041,2.012434482574463,4.9902849197387695,0.9666200876235962
1,247955,-11.187045097351074,85.97095489501953,21.61785316467285,-24.420513153076172
1,247956,-41.49160385131836,80.56563568115234,12.78837776184082,-27.739822387695312
1,247956,-81.6798324584961,17.405378341674805,-23.478174209594727,25.75285530090332
1,247956,-58.78799819946289,9.099502563476562,-14.350272178649902,35.57627868652344
1,247956,-3.183781862258911,27.67076301574707,-6.254940032958984,14.523883819580078
1,247956,20.378076553344727,4.175040245056152,-19.929105758666992,-10.346948623657227
1,247956,29.972644805908203,-44.85845184326172,-0.7606564164161682,-31.999269485473633
1,247957,35.595760345458984,-58.391239166259766,2.5887868404388428,4.465266704559326
1,247957,7.017148494720459,-10.097400665283203,17.612043380737305,29.393396377563477
1,247957,-7.409426212310791,21.969003677368164,9.686654090881348,-1.4371874332427979
1,247957,0.5043341517448425,15.969454765319824,1.1808394193649292,-23.385025024414062
1,247957,-19.977718353271484,27.487207412719727,9.95217227935791,-5.122692584991455
1,247957,-50.19464111328125,6.691873550415039,-17.119991302490234,16.141672134399414
1,247958,-25.0952091217041,6.741403102874756,-13.760494232177734,4.6910881996154785
1,247959,-32.22505187988281,58.41478729248047,-8.181489944458008,-32.93604278564453
1,247959,-48.456905364990234,4.882326602935791,-31.18914794921875,-10.829344749450684
1,247960,25.699438095092773,-19.97909164428711,-5.557677268981934,44.084068298339844
1,247962,24.455610275268555,39.39238357543945,8.711108207702637,34.75035095214844
1,247964,14.22520923614502,0.4511320888996124,-7.682489395141602,-14.523350715637207
1,247966,17.093950271606445,21.466901779174805,0.5785037875175476,-21.28505516052246
1,247968,-109.33381652832031,135.52798461914062,9.512443542480469,9.620309829711914
1,247970,-78.88388061523438,9.26850414276123,-28.626708984375,21.95789337158203
1,247972,260.70867919921875,-355.4462585449219,-47.78670120239258,11.0708589553833
1,247974,275.63446044921875,-338.60955810546875,14.951507568359375,-7.8451361656188965
1,247976,34.44524002075195,51.11256790161133,107.17081451416016,-32.37862777709961
1,247978,-72.71170043945312,194.61624145507812,88.89016723632812,-35.42740249633789
1,247980,-225.16824340820312,124.57546997070312,-61.85210037231445,22.110057830810547
1,247982,-87.3385238647461,10.166584014892578,-51.87066650390625,24.62059783935547
1,247984,110.7848129272461,-47.54975509643555,18.337005615234375,-8.271820068359375
1,247986,28.826021194458008,87.7649917602539,13.906485557556152,2.152928352355957
1,248049,-138.82925415039062,151.5316162109375,-28.139122009277344,-2.4465208053588867
1,248049,-156.69091796875,5.351346492767334,-56.74309158325195,-7.797023296356201
1,248050,54.82418441772461,-31.795032501220703,15.496047019958496,14.779619216918945
1,248050,52.66629409790039,43.18974685668945,8.028839111328125,34.04171371459961
1,248050,-28.254018783569336,7.748900890350342,-11.839351654052734,-3.0255184173583984
1,248050,47.011375427246094,-65.34315490722656,-7.64570426940918,-17.178180694580078
1,248050,68.55718994140625,-119.13701629638672,-9.285449981689453,11.229438781738281
1,248050,76.32154846191406,-102.41273498535156,22.244657516479492,2.0415310859680176
1,248051,90.28192138671875,-54.869083404541016,7.156314849853516,-18.515438079833984
1,248051,37.04421615600586,-54.718875885009766,26.21477699279785,-26.204986572265625
1,248051,-11.264300346374512,-1.5214643478393555,38.78540802001953,-7.5803914070129395
1,248051,-19.033411026000977,51.030948638916016,-18.244104385375977,7.315453052520752
1,248051,-30.640804290771484,44.37418746948242,-9.970518112182617,8.2694730758667
1,248052,-38.33937072753906,45.92295837402344,8.502055168151855,12.394594192504883
1,248052,-29.7342472076416,39.111167907714844,-4.250903606414795,6.803996562957764
1,248052,-4.363490581512451,-26.53110694885254,-11.238393783569336,0.20487737655639648
1,248052,29.025978088378906,-66.53890228271484,-20.030017852783203,-19.917659759521484
1,248052,30.191225051879883,-35.441001892089844,2.3431179523468018,-9.30359935760498
1,248052,20.56146240234375,-25.897066116333008,11.696270942687988,8.139618873596191
1,248053,18.93441390991211,-37.355228424072266,15.714088439941406,4.5456929206848145
1,248053,3.9905455112457275,-9.164955139160156,27.85240364074707,6.92231559753418
1,248053,-20.215946197509766,41.546024322509766,10.608945846557617,-12.419541358947754
1,248053,-30.43931007385254,57.02711868286133,-18.142169952392578,-16.508737564086914
1,248053,-26.21978759765625,41.074214935302734,-27.985851287841797,5.703766345977783
1,248053,-4.224307060241699,28.32712173461914,-4.294802188873291,12.97545051574707
1,248054,3.9713845252990723,21.596378326416016,0.48987990617752075,12.447608947753906
1,248054,-2.5089938640594482,-22.690185546875,-15.528951644897461,-11.789753913879395
1,248054,12.241554260253906,-53.23276901245117,-2.170257806777954,-20.701251983642578
1,248054,7.509781360626221,2.8468191623687744,22.084699630737305,26.012584686279297
1,248054,27.262943267822266,29.72528076171875,10.535775184631348,8.94040298461914
1,248054,14.914152145385742,-1.5659164190292358,-8.268439292907715,-28.163496017456055
1,248055,-41.71365737915039,6.996520042419434,20.245420455932617,-6.694773197174072
1,248056,11.126360893249512,50.34259033203125,51.635154724121094,-48.65372085571289
1,248056,7.093779563903809,55.78376770019531,-2.621647357940674,-43.36756134033203
1,248056,-79.64605712890625,16.76673126220703,-50.402950286865234,42.24296569824219
1,248058,-76.8227310180664,23.251832962036133,26.56452178955078,32.99396514892578
1,248060,-132.17532348632812,152.4650421142578,15.477232933044434,-1.002940058708191
1,248062,-55.70010757446289,101.7006607055664,-36.83395767211914,-1.2330548763275146
1,248064,96.4546127319336,-124.64411926269531,1.054371953010559,11.390386581420898
1,248066,9.213038444519043,-18.80781364440918,-15.869534492492676,-7.834167957305908
1,248068,-141.2810516357422,153.2916717529297,-50.39873123168945,-16.65818214416504
1,248070,-70.02599334716797,7.155153274536133,-55.47118377685547,38.41826248168945
1,248072,302.2127990722656,-307.4822082519531,-37.61465835571289,119.08316040039062
1,248074,360.02288818359375,-403.01837158203125,-2.9436185359954834,73.71031188964844
1,248076,27.608381271362305,-58.693660736083984,86.9147720336914,-121.56549835205078
1,248078,-182.76817321777344,251.9458465576172,117.45960998535156,-118.82799530029297
1,248080,-186.93814086914062,164.89137268066406,-5.0934014320373535,17.06432342529297
1,248082,7.942210674285889,-45.61210632324219,-52.54090118408203,33.80818176269531
1,248085,102.12837219238281,-15.025330543518066,6.712800979614258,28.346435546875
1,248086,-6.814776420593262,110.94864654541016,30.952239990234375,-22.0470027923584
1,248087,-147.6409912109375,117.62632751464844,4.733114719390869,-71.30247497558594
1,248162,12.868518829345703,-129.90249633789062,1.548601508140564,24.078205108642578
1,248162,145.57012939453125,-187.5288543701172,-2.171753406524658,49.59312057495117
1,248162,-141.5772705078125,172.26597595214844,-37.99516677856445,-20.308853149414062
1,248163,-97.17282104492188,128.53579711914062,-39.013587951660156,-2.3657596111297607
1,248163,92.40071868896484,-77.9923095703125,-17.53940200805664,21.08913803100586
1,248163,52.12554931640625,-86.28093719482422,-10.194548606872559,22.38739013671875
1,248163,76.20203399658203,-75.66334533691406,-3.8091604709625244,5.101016044616699
1,248163,71.66117858886719,-34.841888427734375,19.2194766998291,-4.058419704437256
1,248164,8.848949432373047,-30.569074630737305,18.712411880493164,13.343183517456055
1,248164,-37.15742874145508,36.72549819946289,13.255528450012207,-1.2690812349319458
1,248164,-47.27161407470703,101.40204620361328,26.787456512451172,-27.345888137817383
1,248164,-53.1491813659668,60.49480056762695,2.5818283557891846,-26.553728103637695
1,248164,-68.68607330322266,33.05929183959961,-22.25718116760254,-0.042656950652599335
1,248164,-21.224658966064453,17.512187957763672,-14.080674171447754,18.530406951904297
1,248165,48.82970428466797,-21.23740577697754,-15.65080738067627,24.548267364501953
1,248165,39.50146484375,-44.450862884521484,-1.5450478792190552,2.993417501449585
1,248165,37.09199142456055,-63.91792297363281,12.41052532196045,-20.703739166259766
1,248165,52.91852951049805,-48.181373596191406,-4.983309268951416,1.7432671785354614
1,248165,1.1751608848571777,-6.193538188934326,1.7488476037979126,3.212348461151123
1,248165,-32.011573791503906,41.33985137939453,21.082103729248047,1.9096498489379883
1,248166,-38.84585189819336,79.41502380371094,2.2332894802093506,4.962545871734619
1,248166,-52.40001678466797,65.86890411376953,-0.1062864288687706,-11.317270278930664
1,248166,-29.15632438659668,25.361421585083008,7.81402063369751,0.6033012270927429
1,248166,0.7042880654335022,14.337987899780273,-5.768111228942871,10.027802467346191
1,248166,-4.801161289215088,-0.2611123323440552,-10.188948631286621,4.298928260803223
1,248166,-0.2183121293783188,-36.59714126586914,-12.67643928527832,-9.249568939208984
1,248167,34.37320327758789,-50.3809700012207,5.785824775695801,-14.144286155700684
1,248167,29.763212203979492,-42.69569778442383,-4.190958499908447,-14.576879501342773
1,248167,-9.667854309082031,-21.678377151489258,-12.705514907836914,-2.781292200088501
1,248167,-18.289215087890625,3.5727550983428955,21.810701370239258,9.722956657409668
1,248167,-17.741188049316406,21.081966400146484,13.401095390319824,-13.784172058105469
1,248168,-12.534407615661621,17.085100173950195,-13.962462425231934,-16.456859588623047
1,248168,4.67945671081543,-1.1185057163238525,-8.544861793518066,19.677892684936523
1,248168,-2.853180408477783,-9.704882621765137,-3.2967007160186768,10.451807975769043
1,248168,21.28090476989746,-11.346755027770996,-24.374753952026367,-12.344910621643066
1,248168,33.445613861083984,-9.45581340789795,0.5365864634513855,28.207162857055664
1,248168,18.285503387451172,-26.12000846862793,20.593935012817383,16.70563507080078
1,248170,54.01253890991211,-118.60588836669922,-11.374787330627441,-14.111345291137695
1,248170,44.28279495239258,-93.65674591064453,12.060187339782715,11.659699440002441
1,248170,-12.163057327270508,63.92047119140625,24.264610290527344,-1.5098649263381958
1,248170,-30.70001220703125,26.14966583251953,-13.619612693786621,1.2029515504837036
1,248171,1.244271159172058,-81.95917510986328,-11.44023323059082,23.31392478942871
1,248174,259.2283020019531,-181.88771057128906,41.7882080078125,10.570773124694824
1,248175,242.69972229003906,-5.962060451507568,90.07894134521484,-33.79794692993164
1,248178,-254.35398864746094,263.5940246582031,51.781978607177734,-60.500125885009766
1,248179,-294.51434326171875,102.62718200683594,-46.3370361328125,2.373807907104492
1,248182,-52.744529724121094,65.48346710205078,-59.069576263427734,47.29631423950195
1,248183,-11.280394554138184,88.0914077758789,-7.649782180786133,20.372238159179688
1,248186,-36.13724899291992,103.60223388671875,-34.27085876464844,-42.06330490112305
1,248188,-137.92083740234375,143.1887969970703,-66.72811889648438,-41.44070816040039
1,248190,-48.47088623046875,-154.45167541503906,-101.05802154541016,15.629013061523438
1,248192,198.1485137939453,-225.65455627441406,-55.261756896972656,74.09901428222656
1,248194,268.6271057128906,-191.4225616455078,142.16571044921875,65.73976135253906
1,248196,72.90731811523438,-139.02284240722656,114.51248168945312,-94.99440002441406
1,248198,-227.56304931640625,267.8373107910156,5.255612850189209,-70.77552795410156
1,248200,-173.94754028320312,232.99392700195312,6.330252170562744,51.39790344238281
1,248202,92.58442687988281,-83.37541198730469,-46.4799919128418,4.983169078826904
1,248204,91.12307739257812,-69.05068969726562,-3.928100109100342,-6.286228179931641
1,248290,-66.30253601074219,42.51100540161133,-12.561273574829102,29.731447219848633
1,248291,-74.736083984375,54.33945846557617,-25.297086715698242,34.51836013793945
1,248291,33.71919250488281,-12.699896812438965,65.40503692626953,-15.734443664550781
1,248291,-18.932165145874023,49.35469436645508,-0.08496372401714325,-43.18593215942383
1,248291,-92.75732421875,50.508056640625,-51.93513488769531,-5.06596040725708
1,248291,-6.564477443695068,-19.33428192138672,-31.5125789642334,27.404441833496094
1,248291,82.09396362304688,-68.30287170410156,-30.37092399597168,14.373371124267578
1,248292,113.72921752929688,-135.85311889648438,7.060412406921387,1.35135018825531
1,248292,95.3663558959961,-124.81226348876953,12.91513442993164,5.410120010375977
1,248292,63.24000930786133,-85.63678741455078,26.14406967163086,-11.112431526184082
1,248292,54.44203567504883,-25.49251365661621,54.566043853759766,-7.555952548980713
1,248292,3.1244277954101562,26.11797523498535,36.515968322753906,-20.661291122436523
1,248293,-68.48955535888672,69.8344497680664,-1.8195061683654785,-12.317876815795898
1,248293,-73.12479400634766,93.28919982910156,-27.27713966369629,11.019967079162598
1,248293,-51.642757415771484,56.88206481933594,-15.041627883911133,-3.4617791175842285
1,248293,-32.92481994628906,20.30550765991211,-17.287750244140625,11.301697731018066
1,248293,0.3428046703338623,-6.657042503356934,-29.05484390258789,17.052204132080078
1,248293,38.912147521972656,-21.613679885864258,1.0065122842788696,-10.151321411132812
1,248294,40.201942443847656,-61.56333923339844,10.49962329864502,-23.250288009643555
1,248294,35.84115219116211,-58.19245529174805,14.944683074951172,1.2735294103622437
1,248294,45.86812210083008,17.83222770690918,26.882944107055664,4.033870220184326
1,248294,-14.916451454162598,30.86800193786621,8.048929214477539,-9.966492652893066
1,248294,-68.73063659667969,34.62853240966797,1.5949897766113281,4.800967216491699
1,248294,-49.82482147216797,65.22049713134766,2.47039532661438,-1.4578646421432495
1,248295,-28.250905990600586,51.52653121948242,-22.856828689575195,-14.476998329162598
1,248295,-40.86977005004883,9.927136421203613,-28.411548614501953,7.875243186950684
1,248295,-20.184282302856445,-5.295557975769043,1.4468250274658203,21.59170150756836
1,248295,25.249435424804688,-22.94869041442871,9.00335693359375,2.479665994644165
1,248295,2.4969465732574463,-28.12940788269043,3.004218101501465,-9.683652877807617
1,248295,16.49983787536621,0.5906736850738525,11.182955741882324,-12.9515380859375
1,248296,38.65345001220703,17.790287017822266,6.269572734832764,-5.442519187927246
1,248296,-28.100133895874023,17.25133514404297,17.021902084350586,3.996016263961792
1,248296,-51.88926696777344,12.152127265930176,13.751659393310547,-21.77678871154785
1,248296,-20.0292911529541,17.855628967285156,-20.715438842773438,-6.17109489440918
1,248296,-27.299123764038086,43.4280891418457,-13.014543533325195,36.52003860473633
1,248297,-20.284570693969727,28.15901756286621,-11.243290901184082,6.14434814453125
1,248297,20.076387405395508,-35.79698181152344,-15.892099380493164,-3.8703999519348145
1,248297,36.72465133666992,-29.887353897094727,20.775192260742188,17.20614242553711
1,248297,22.480669021606445,0.6255089640617371,-4.345340728759766,3.7371091842651367
1,248297,-2.491946220397949,-18.79999351501465,-20.180343627929688,9.008585929870605
1,248297,17.353225708007812,-26.947303771972656,16.335376739501953,7.214848518371582
1,248298,9.334648132324219,0.2880631387233734,-2.009570598602295,-12.9208402633667
1,248298,-22.86088752746582,33.532691955566406,23.626859664916992,-5.213515281677246
1,248299,-24.471452713012695,58.944461822509766,19.7280330657959,14.478144645690918
1,248299,-14.524733543395996,43.15034103393555,-25.80830192565918,17.85321617126465
1,248299,33.6927375793457,-15.034649848937988,-8.540865898132324,-24.025896072387695
1,248300,8.953730583190918,-43.09384536743164,-6.822183132171631,-0.7716192007064819
1,248301,-14.059772491455078,14.603348731994629,-10.885587692260742,26.820186614990234
1,248302,0.2301977574825287,-17.39191246032715,3.1990175247192383,-23.606779098510742
1,248303,-29.417768478393555,-100.2363510131836,-7.786198616027832,-47.38978576660156
1,248306,-37.317466735839844,148.6402587890625,9.527472496032715,-2.1375732421875
1,248308,-66.55786895751953,210.85633850097656,26.915969848632812,67.86608123779297
1,248310,13.153114318847656,-251.9550323486328,-150.00521850585938,-11.170485496520996
1,248312,172.0203399658203,-327.8648376464844,-145.47927856445312,10.805190086364746
1,248314,285.56036376953125,-175.55810546875,167.75057983398438,44.120418548583984
1,248316,136.76763916015625,-97.8331298828125,165.8253173828125,-136.03314208984375
1,248318,-284.89605712890625,298.26806640625,8.848586082458496,-69.34284210205078
1,248320,-247.82992553710938,278.99786376953125,18.60074234008789,110.32047271728516
1,248322,32.86164093017578,-19.81093406677246,-23.163768768310547,71.3197250366211
1,248324,48.033103942871094,3.0710530281066895,-28.348651885986328,-14.373910903930664
1,248326,-5.708926677703857,98.86844635009766,51.07625198364258,-53.98149490356445
1,248328,-97.57255554199219,116.58230590820312,5.769914627075195,-63.13080596923828
1,248330,-29.733510971069336,-134.5419921875,-125.08785247802734,37.75302505493164
1,248332,151.85089111328125,-222.4288330078125,-68.07037353515625,124.195556640625
1,248335,224.76260375976562,-193.46519470214844,95.6295166015625,-10.500465393066406
1,248431,-132.52537536621094,141.11866760253906,24.55190658569336,-84.23041534423828
1,248432,-333.7855529785156,386.0388488769531,-92.5384292602539,20.943391799926758
1,248432,177.33238220214844,-209.65647888183594,-26.275463104248047,22.822010040283203
1,248432,226.11228942871094,-271.8562927246094,26.227354049682617,-21.759817123413086
1,248432,-8.833456993103027,3.6829288005828857,14.614368438720703,-9.65594482421875
1,248432,34.92703628540039,-40.64662551879883,33.46314239501953,11.34757137298584
1,248432,-10.29655647277832,45.618343353271484,51.489654541015625,1.3971562385559082
1,248433,-56.42142105102539,117.98588562011719,32.665592193603516,-20.666908264160156
1,248433,-69.13330841064453,109.95696258544922,6.805309295654297,-7.36514949798584
1,248433,-42.795040130615234,54.162864685058594,-7.475866794586182,4.631213665008545
1,248433,-15.54454231262207,14.176681518554688,-22.225614547729492,18.942899703979492
1,248433,20.1365966796875,-32.52771759033203,-39.91949462890625,3.7282285690307617
1,248433,54.24306869506836,-96.70820617675781,-23.5244197845459,-12.910155296325684
1,248434,30.332242965698242,-76.40877532958984,20.822040557861328,7.304989337921143
1,248434,26.10982894897461,-19.775794982910156,17.064105987548828,-9.285842895507812
1,248434,15.457653045654297,-1.8336495161056519,3.7369325160980225,-32.662330627441406
1,248434,-31.089078903198242,22.548147201538086,9.908735275268555,-5.8276686668396
1,248434,-61.8149528503418,61.8302116394043,7.563494682312012,18.35546112060547
1,248434,-35.31483459472656,92.97073364257812,8.006318092346191,-12.299968719482422
1,248435,-23.95077133178711,36.4127197265625,0.7284510731697083,-33.206138610839844
1,248435,-29.441904067993164,-18.93903350830078,-15.839409828186035,-1.3935632705688477
1,248435,14.62943172454834,-1.0071605443954468,-12.037135124206543,11.055727005004883
1,248435,19.904556274414062,-7.5308003425598145,1.886075496673584,10.357306480407715
1,248435,24.628808975219727,-22.526918411254883,-11.209400177001953,21.772926330566406
1,248435,23.831134796142578,-9.074675559997559,12.256174087524414,12.555950164794922
1,248436,-13.91252326965332,5.832998752593994,25.366289138793945,-15.568915367126465
1,248436,-8.668899536132812,20.979934692382812,-4.165387153625488,-12.257079124450684
1,248436,-16.473716735839844,36.72569274902344,3.995844841003418,25.480958938598633
1,248436,-55.80940246582031,28.976009368896484,5.218077182769775,32.25059509277344
1,248436,-30.86505126953125,34.20683288574219,-5.133022308349609,7.075160980224609
1,248437,21.950572967529297,1.3971309661865234,-9.630084037780762,-16.278562545776367
1,248437,11.771679878234863,-49.328487396240234,-32.000999450683594,11.623513221740723
1,248437,-3.916029691696167,-37.18487548828125,-17.07850456237793,15.632024765014648
1,248437,25.471691131591797,-41.33876419067383,-2.515181541442871,-20.799026489257812
1,248437,20.543289184570312,-42.581363677978516,4.1003570556640625,5.736586093902588
1,248437,-2.9023356437683105,-3.0747640132904053,14.992818832397461,13.639058113098145
1,248438,7.019542694091797,21.93830108642578,2.528071880340576,3.2006428241729736
1,248438,-13.629579544067383,24.169448852539062,18.817955017089844,12.270371437072754
1,248438,-13.100635528564453,26.024526596069336,-9.6014986038208,-2.824697971343994
1,248438,-10.167522430419922,19.57787322998047,-19.241455078125,-10.998177528381348
1,248438,-21.992420196533203,2.9218125343322754,25.533382415771484,-3.271442174911499
1,248438,34.95122528076172,-10.042490005493164,-3.114140748977661,-8.371214866638184
1,248439,22.301605224609375,-29.274091720581055,-27.47343635559082,0.019015517085790634
1,248439,-3.866360902786255,0.2809763550758362,8.275483131408691,7.15168571472168
1,248439,41.561302185058594,35.68266296386719,0.3005174994468689,-16.43691635131836
1,248439,-1.1591249704360962,-17.457042694091797,-12.438813209533691,-11.972175598144531
1,248439,-25.545406341552734,-23.572267532348633,7.745235443115234,-3.17384672164917
1,248439,4.90505838394165,17.051158905029297,-8.907776832580566,-18.69615364074707
1,248440,-13.701802253723145,1.4692248106002808,2.2007808685302734,-0.47769689559936523
1,248441,-45.865535736083984,13.959282875061035,-4.0857319831848145,16.249082565307617
