Aktueller Finger,timestamp_ms,sensor_0,sensor_1,sensor_2,sensor_3
0,483784,37.17038345336914,59.6912841796875,28.922391891479492,10.054388999938965
0,483787,-0.7419633865356445,42.63810729980469,-7.161271572113037,-59.5780143737793
0,483788,-29.049877166748047,-66.08576965332031,-23.18185043334961,-73.51934051513672
0,483791,-24.251272201538086,-34.71949768066406,6.076869964599609,-7.649662971496582
0,483792,24.064889907836914,13.118124961853027,11.931639671325684,23.738971710205078
0,483793,46.32400894165039,-12.393190383911133,12.096959114074707,76.62899017333984
0,483800,-4.501133918762207,35.50251007080078,47.51860046386719,150.72967529296875
0,483800,-9.539061546325684,35.06282043457031,12.26583480834961,40.5434684753418
0,483801,-6.583576202392578,-26.11490249633789,-37.48307418823242,-113.47344970703125
0,483802,-15.268835067749023,8.254148483276367,-9.753613471984863,-53.152339935302734
0,483805,0.10840380936861038,21.068195343017578,-12.978790283203125,-58.25003433227539
0,483806,-13.529034614562988,-14.766977310180664,-12.69463062286377,-82.36245727539062
0,483807,-17.968721389770508,-23.414901733398438,4.910035610198975,33.56867218017578
0,483810,10.04943561553955,-21.51077651977539,2.8805947303771973,47.376426696777344
0,483811,26.663982391357422,-25.923112869262695,-18.33101463317871,-20.176010131835938
0,483814,6.642431259155273,-0.12901639938354492,7.488568305969238,-10.568977355957031
0,483815,-12.683951377868652,43.3581657409668,25.613845825195312,40.13264083862305
0,483818,11.014508247375488,22.479860305786133,5.980016231536865,51.68400192260742
0,483819,-0.3244161307811737,5.612087249755859,17.47967529296875,10.40438461303711
0,483822,-25.231298446655273,3.642178773880005,-7.006617069244385,-15.82919979095459
0,483841,16.66325569152832,-22.148344039916992,-25.52233123779297,4.263322353363037
0,483841,20.35248374938965,-1.789495825767517,1.4045500755310059,2.562286138534546
0,483842,-25.14112663269043,13.350064277648926,26.86160659790039,24.539608001708984
0,483842,5.41354513168335,-1.9123053550720215,11.50352668762207,30.317195892333984
0,483842,19.421329498291016,10.775209426879883,-16.754838943481445,-26.956907272338867
0,483842,-15.638973236083984,-11.888657569885254,-17.952980041503906,-39.62958908081055
0,483842,-17.801830291748047,-17.136030197143555,-14.31537914276123,-19.370519638061523
0,483842,6.705822944641113,16.214305877685547,-4.987730979919434,-36.057674407958984
0,483843,15.919174194335938,-8.175058364868164,-10.590218544006348,-37.359012603759766
0,483843,-9.630431175231934,-10.96574878692627,0.9438694715499878,0.43976718187332153
0,483844,-18.142099380493164,-8.415778160095215,21.473276138305664,11.0030517578125
0,483845,8.165691375732422,-6.180283546447754,-7.237698078155518,-10.775768280029297
0,483848,9.538328170776367,9.559013366699219,-17.37662124633789,-35.613800048828125
0,483850,-5.99939489364624,-14.782393455505371,3.931213855743408,-16.416996002197266
0,483852,9.191832542419434,-7.240781784057617,5.656468868255615,45.96818923950195
0,483854,-8.984593391418457,6.356062412261963,15.12255859375,63.53583908081055
0,483856,1.2769851684570312,2.2691221237182617,3.5721027851104736,36.44135284423828
0,483858,9.314536094665527,9.969733238220215,-9.434883117675781,-1.6392161846160889
0,483860,-10.785070419311523,19.754941940307617,36.11098861694336,9.33561897277832
0,483862,20.755708694458008,27.369356155395508,38.184234619140625,38.92726516723633
0,483864,-4.253022193908691,6.994706153869629,-36.22488784790039,-47.85103988647461
0,483866,-30.630605697631836,-24.938430786132812,-55.326446533203125,-67.02497863769531
0,483897,18.702327728271484,-53.429283142089844,12.943498611450195,57.497047424316406
0,483897,6.95391321182251,-14.828895568847656,35.420387268066406,72.21178436279297
0,483897,-18.326398849487305,48.97037124633789,-0.2941649854183197,-23.322900772094727
0,483897,25.58912467956543,23.599721908569336,-13.616423606872559,-55.55039978027344
0,483897,-1.0101070404052734,-2.59761118888855,-13.299540519714355,-31.869831085205078
0,483898,-23.59771156311035,-7.804633617401123,-14.404117584228516,-29.16595458984375
0,483898,28.35033416748047,-25.933168411254883,-7.748714923858643,-13.484556198120117
0,483898,8.05271053314209,-17.536270141601562,13.662997245788574,31.84245491027832
0,483898,-25.771324157714844,10.925898551940918,9.886358261108398,34.54075241088867
0,483898,-3.434936761856079,24.176353454589844,10.584452629089355,14.311043739318848
0,483898,0.10416962951421738,15.620831489562988,31.964237213134766,25.747814178466797
0,483899,-2.1451334953308105,12.178977012634277,1.5793092250823975,17.376256942749023
0,483899,7.055086612701416,-3.131059169769287,-34.836273193359375,-17.128633499145508
0,483899,-11.308708190917969,-16.268129348754883,-11.056428909301758,-11.95898723602295
0,483899,8.995795249938965,23.71173667907715,15.758552551269531,-2.6610171794891357
0,483900,26.315650939941406,17.627023696899414,0.6917561292648315,-25.518098831176758
0,483901,-17.606243133544922,-26.54092788696289,-19.486427307128906,-8.061150550842285
0,483902,-20.042699813842773,-14.316083908081055,0.94674152135849,2.9635801315307617
0,483905,-17.454376220703125,-1.890350580215454,4.029528617858887,-52.94086837768555
0,483906,8.672175407409668,-5.169166564941406,-21.823854446411133,-43.75890350341797
0,483909,39.6749382019043,3.4793860912323,18.763416290283203,7.641546249389648
0,483910,-9.281484603881836,-15.386534690856934,23.5135555267334,-6.243125915527344
0,483913,-10.436014175415039,-30.444316864013672,-32.73634719848633,3.9733119010925293
0,483914,-9.350732803344727,8.609990119934082,-6.49567985534668,54.178096771240234
0,483917,-13.925698280334473,24.078903198242188,29.527854919433594,58.11494445800781
0,483918,33.17829132080078,3.7034189701080322,14.085803985595703,26.095703125
0,483919,-2.119903564453125,-11.99470329284668,8.568450927734375,-12.673921585083008
0,483922,-12.596280097961426,18.658639907836914,0.6058535575866699,11.69714641571045
0,483923,11.020506858825684,36.658729553222656,-22.303218841552734,20.63227653503418
0,483926,-19.498167037963867,-30.005430221557617,-40.62232208251953,-63.68595886230469
0,483927,23.056509017944336,-25.538816452026367,8.60958480834961,-21.43625831604004
0,483973,23.973148345947266,16.88197898864746,47.27898025512695,15.263687133789062
0,483973,-28.95145034790039,1.2655001878738403,-0.8219590187072754,-27.03159523010254
0,483973,3.3525829315185547,2.5688974857330322,-28.415239334106445,-3.3478777408599854
0,483973,-4.313009738922119,-0.9530656337738037,-7.858409404754639,1.0934333801269531
0,483973,-16.34275245666504,-11.84725284576416,16.028892517089844,-19.705257415771484
0,483973,17.303733825683594,-11.261187553405762,0.2841586470603943,-16.24593734741211
0,483974,-10.245546340942383,-14.369706153869629,-16.83083152770996,24.713411331176758
0,483974,-6.195318222045898,-3.183354377746582,7.83100700378418,35.08614730834961
0,483974,16.812870025634766,18.55699348449707,34.017208099365234,31.41464614868164
0,483974,-7.354119777679443,29.308250427246094,9.669639587402344,51.85382080078125
0,483974,4.493343353271484,27.75385093688965,-29.463825225830078,18.427997589111328
0,483974,15.405696868896484,-18.884817123413086,-14.840239524841309,-33.62550735473633
0,483975,-5.994740009307861,-22.538576126098633,2.2853753566741943,-22.161203384399414
0,483975,-8.289562225341797,18.85761833190918,9.734511375427246,-19.579978942871094
0,483975,4.67997932434082,-16.733503341674805,9.513427734375,-38.578460693359375
0,483975,7.8457794189453125,-30.507999420166016,-21.975051879882812,-13.169929504394531
0,483975,-3.794673204421997,11.093052864074707,-8.979148864746094,11.1104154586792
0,483976,-10.246992111206055,-4.920871257781982,20.226791381835938,14.817171096801758
0,483976,-1.8710079193115234,-9.916121482849121,5.704500198364258,33.35321044921875
0,483976,2.3125455379486084,44.388099670410156,-8.797741889953613,19.42776870727539
0,483976,5.782930374145508,9.980223655700684,-7.513574123382568,-8.448022842407227
0,483976,-22.022741317749023,-30.51877212524414,12.353727340698242,6.455330848693848
0,483978,-2.838365316390991,9.8848876953125,3.0778427124023438,1.6865500211715698
0,483978,21.66488265991211,27.634464263916016,-7.477248668670654,-15.46415901184082
0,483978,-16.322345733642578,6.936981678009033,-3.369405746459961,-20.219423294067383
0,483979,-4.795754432678223,-29.21053123474121,-7.463825702667236,3.8142831325531006
0,483982,6.45101261138916,16.356277465820312,26.281084060668945,15.757333755493164
0,483983,13.243577003479004,47.81053161621094,-4.089946269989014,-25.154857635498047
0,483986,8.0171537399292,-29.9375,-53.1524543762207,-45.017799377441406
0,483987,-9.998311042785645,-29.900894165039062,16.199092864990234,-25.073362350463867
0,483990,-10.426274299621582,3.587430953979492,27.632431030273438,-24.07433319091797
0,483991,-14.149715423583984,-9.831246376037598,-17.775236129760742,-19.915668487548828
0,483994,27.002613067626953,-20.060279846191406,35.2972297668457,69.61090087890625
0,483995,16.38423728942871,-11.50232982635498,31.28693962097168,56.52278518676758
0,483998,-10.215337753295898,22.068708419799805,-33.019107818603516,5.010751724243164
0,483999,7.20281982421875,6.837832450866699,-3.769829034805298,62.69282913208008
0,484002,-20.764022827148438,13.055543899536133,13.33852481842041,-8.310725212097168
0,484003,3.442819356918335,24.969058990478516,-31.82447624206543,-59.9293212890625
0,484060,26.279211044311523,-41.13956832885742,19.639436721801758,49.07646942138672
0,484060,-6.25823450088501,-25.90423011779785,48.75344467163086,59.098392486572266
0,484061,-14.264999389648438,40.90690231323242,-30.262269973754883,-27.581220626831055
0,484061,-1.003867745399475,11.465081214904785,-22.834653854370117,-40.99946975708008
0,484061,11.183634757995605,14.118142127990723,-6.170164108276367,-31.532875061035156
0,484061,-1.4385511875152588,-7.234177589416504,-18.259462356567383,-28.131467819213867
0,484061,-15.565921783447266,-56.72966766357422,0.2212911695241928,-23.18624496459961
0,484062,-13.265847206115723,31.059669494628906,3.446546792984009,-23.206804275512695
0,484062,16.77846908569336,26.277015686035156,-6.21880578994751,2.9353890419006348
0,484062,-0.18270348012447357,-37.73941421508789,-2.5694968700408936,18.169931411743164
0,484062,-33.52883529663086,-9.749255180358887,27.817293167114258,24.67337417602539
0,484062,24.697778701782227,26.2803955078125,11.211889266967773,15.478792190551758
0,484062,43.66593551635742,29.799711227416992,-23.63488006591797,-9.458292007446289
0,484062,-20.36040687561035,-20.25314712524414,-7.239633083343506,-0.9670060276985168
0,484063,-26.412277221679688,-17.835491180419922,0.12299880385398865,-4.506074905395508
0,484063,14.976780891418457,10.348457336425781,-9.582101821899414,-18.620622634887695
0,484063,-8.787347793579102,-14.803383827209473,-0.612981379032135,0.6587699055671692
0,484063,-23.54984474182129,-11.589319229125977,16.730663299560547,0.7785285115242004
0,484063,22.438966751098633,15.408721923828125,6.351823329925537,-17.059694290161133
0,484064,1.489127278327942,-21.359575271606445,-13.22403621673584,-4.029829025268555
0,484064,-7.009653091430664,-21.31195640563965,-0.6191298365592957,25.578046798706055
0,484064,14.8257417678833,46.00348663330078,3.437175750732422,17.571760177612305
0,484064,-9.41793441772461,12.43201732635498,-0.2378152459859848,-5.997661590576172
0,484064,0.3564392328262329,-28.0839786529541,11.924272537231445,14.220797538757324
0,484064,-7.18647575378418,9.985428810119629,-6.494141101837158,-0.32894641160964966
0,484065,-1.809652328491211,11.746343612670898,-18.933279037475586,-38.3225212097168
0,484065,33.23828125,-7.978080749511719,8.090707778930664,-12.389679908752441
0,484065,-0.9872359037399292,-11.65257453918457,5.180870532989502,14.980417251586914
0,484066,-18.248411178588867,1.110177755355835,-0.4401203989982605,-0.29199090600013733
0,484066,5.159149169921875,1.0058786869049072,4.7100830078125,-5.18840217590332
0,484067,5.76453971862793,-25.71027946472168,1.4069688320159912,25.671356201171875
0,484068,-9.513760566711426,-0.2628931701183319,1.9225759506225586,7.224721908569336
0,484069,-23.715347290039062,34.285438537597656,-3.124818801879883,-43.5318603515625
0,484072,20.870010375976562,-17.28411102294922,3.529956579208374,-15.027097702026367
0,484073,31.954444885253906,-28.092283248901367,10.094501495361328,40.876991271972656
0,484076,-24.167993545532227,31.241334915161133,29.61650276184082,69.61271667480469
0,484077,-10.155930519104004,26.215316772460938,7.697595596313477,39.89792251586914
0,484080,12.300443649291992,-5.4909257888793945,-32.871253967285156,6.71299409866333
0,484081,-15.18080997467041,-0.43158018589019775,-6.322940826416016,2.2710630893707275
0,484084,-8.750764846801758,16.374711990356445,18.537256240844727,-71.28974914550781
0,484085,29.454721450805664,6.785506725311279,0.19533459842205048,-59.91229248046875
0,484088,5.701073169708252,-2.431835174560547,-35.666038513183594,-21.399072647094727
0,484089,-24.6300048828125,-12.390456199645996,-37.862308502197266,-22.787120819091797
0,484092,12.27534294128418,-38.0576057434082,-13.282052040100098,41.21974563598633
0,484093,-10.417611122131348,-1.6957076787948608,29.77562141418457,35.47759246826172
0,484096,-20.25910758972168,24.061513900756836,44.088958740234375,16.913421630859375
0,484097,26.632951736450195,-4.554615020751953,6.567852020263672,11.236586570739746
0,484167,7.152929306030273,22.416210174560547,-24.729970932006836,-78.13758850097656
0,484167,2.7520506381988525,12.365896224975586,-28.230003356933594,-49.138614654541016
0,484167,-9.22048282623291,-41.419654846191406,18.616689682006836,73.87089538574219
0,484168,-7.225556373596191,-5.944803237915039,30.808685302734375,55.50630569458008
0,484168,24.270687103271484,30.879318237304688,2.797828197479248,1.7110850811004639
0,484168,-7.471474647521973,4.176529884338379,0.99281907081604,-8.154041290283203
0,484168,-19.76490592956543,-8.912374496459961,2.6071395874023438,-8.58813762664795
0,484168,2.3714163303375244,18.220151901245117,-12.995262145996094,-13.117030143737793
0,484168,13.828633308410645,7.0166754722595215,-29.268220901489258,-35.257652282714844
0,484169,-1.7243157625198364,-35.16340255737305,-0.778855562210083,-34.17849349975586
0,484169,-28.36575698852539,-21.53813934326172,8.145540237426758,3.8967971801757812
0,484169,6.513035774230957,-0.7603962421417236,-21.966936111450195,21.731863021850586
0,484169,28.602243423461914,-13.85202407836914,5.945847034454346,26.71808433532715
0,484169,-20.389272689819336,14.053902626037598,41.15269470214844,24.880861282348633
0,484170,-18.386201858520508,38.928592681884766,5.11171817779541,-0.7463006377220154
0,484170,11.206762313842773,-24.357275009155273,-20.37201690673828,1.9108532667160034
0,484170,6.151236534118652,-21.42988395690918,5.014743328094482,-2.7651076316833496
0,484170,12.775365829467773,55.26778793334961,2.9831736087799072,-7.266127109527588
0,484170,-4.954505443572998,3.431373119354248,-15.374950408935547,4.048689842224121
0,484170,-31.698671340942383,-50.446231842041016,-11.00692367553711,-21.037843704223633
0,484171,11.013705253601074,8.45544719696045,1.9302653074264526,-19.112186431884766
0,484171,38.83784484863281,-1.7432365417480469,10.565815925598145,8.060108184814453
0,484171,-15.01421070098877,-24.846094131469727,6.952886581420898,17.317790985107422
0,484171,-24.00612449645996,27.02107048034668,13.824678421020508,26.310136795043945
0,484171,18.12401580810547,13.958566665649414,3.656137228012085,15.058466911315918
0,484171,14.51689624786377,-12.339773178100586,4.880208969116211,-9.824658393859863
0,484172,3.609492063522339,1.3893842697143555,5.622358322143555,-8.636280059814453
0,484172,-7.422854423522949,-0.18812330067157745,-26.988372802734375,-4.734955787658691
0,484172,-15.459147453308105,-5.947362422943115,-8.827059745788574,-6.080345153808594
0,484172,12.37105941772461,11.833894729614258,21.220951080322266,6.6159443855285645
0,484172,5.966660499572754,9.283373832702637,9.25723934173584,-8.48205280303955
0,484172,-9.04321002960205,-7.646349906921387,-2.863267660140991,3.760746479034424
0,484173,10.24687671661377,16.966842651367188,-20.804750442504883,26.088909149169922
0,484173,2.2267348766326904,2.0716755390167236,-9.855143547058105,-5.384856224060059
0,484174,-19.234766006469727,-15.753326416015625,17.132516860961914,6.2267022132873535
0,484174,-15.838431358337402,8.92969036102295,10.650216102600098,13.780007362365723
0,484174,10.954422950744629,-5.2233099937438965,6.138561725616455,-30.217124938964844
0,484174,15.07265567779541,-8.555685997009277,-23.927059173583984,-18.795156478881836
0,484176,3.5816500186920166,16.71831512451172,-9.763555526733398,32.550086975097656
0,484179,2.119563579559326,18.017459869384766,40.49166488647461,64.37651062011719
0,484180,-5.297273635864258,20.882556915283203,25.099267959594727,24.18598175048828
0,484183,-11.26805305480957,6.78640604019165,-16.089929580688477,-72.15400695800781
0,484184,-4.298641681671143,-3.019160032272339,-16.342132568359375,-61.08015441894531
0,484187,11.922148704528809,-14.576248168945312,-18.736881256103516,-17.663175582885742
0,484188,15.939353942871094,-30.774202346801758,-34.229583740234375,-41.85095977783203
0,484191,4.331002235412598,-23.44838523864746,11.316454887390137,-28.144424438476562
0,484192,-11.941472053527832,-24.22962760925293,-2.112169027328491,20.12362289428711
0,484195,-16.78593635559082,9.467275619506836,0.7863319516181946,81.16851043701172
0,484196,-9.069225311279297,0.783507764339447,17.802932739257812,57.100982666015625
0,484197,1.527197003364563,-19.687082290649414,-12.732918739318848,-34.364173889160156
0,484200,-5.274292469024658,44.19660186767578,31.55010414123535,0.926297664642334
0,484201,6.028261184692383,40.86735534667969,6.212515830993652,52.41288757324219
0,484204,21.542098999023438,-12.139968872070312,-29.426952362060547,-39.50130844116211
0,484205,-2.933697462081909,-6.272972106933594,9.009712219238281,-68.18926239013672
0,484287,-12.106188774108887,-15.605130195617676,2.442383050918579,19.53260040283203
0,484287,-9.909882545471191,-15.602394104003906,-13.864517211914062,24.056671142578125
0,484287,-0.721011757850647,33.55603790283203,10.014378547668457,-9.521958351135254
0,484287,16.380943298339844,24.162662506103516,21.79524803161621,-24.76611328125
0,484288,10.32129192352295,-23.219696044921875,-24.657793045043945,-50.37668991088867
0,484288,0.45318078994750977,-36.187171936035156,-24.762277603149414,-19.79060173034668
0,484288,-18.150062561035156,-1.097181797027588,19.29507064819336,30.75157356262207
0,484288,6.574577808380127,-0.31389886140823364,-11.140353202819824,9.812118530273438
0,484288,22.285417556762695,-23.296619415283203,-10.858749389648438,16.734176635742188
0,484289,-19.6053466796875,4.25131368637085,37.70980453491211,43.03892517089844
0,484289,-4.539875030517578,33.13534164428711,19.58285140991211,11.601914405822754
0,484289,16.537965774536133,22.351163864135742,-12.572007179260254,0.31819218397140503
0,484289,-8.144046783447266,-9.080462455749512,-18.235918045043945,8.005294799804688
0,484289,-22.903663635253906,4.900009632110596,4.1913838386535645,-13.980496406555176
0,484289,14.666769981384277,-6.086810111999512,9.440924644470215,-43.10312271118164
0,484290,32.459171295166016,-25.417133331298828,-23.855775833129883,-23.020431518554688
0,484290,-25.439590454101562,-8.142034530639648,-5.698858261108398,15.525530815124512
0,484290,-26.41251564025879,1.9296683073043823,19.651330947875977,-1.7433630228042603
0,484290,21.3298397064209,0.6934094429016113,3.517707347869873,11.918766021728516
0,484290,2.2503786087036133,-4.713522911071777,-4.609851360321045,35.17216873168945
0,484290,-21.75133514404297,20.634132385253906,-8.136942863464355,4.748077392578125
0,484291,3.765214443206787,19.501434326171875,9.961385726928711,8.888821601867676
0,484291,23.5968074798584,-11.409505844116211,10.864078521728516,-0.2975451648235321
0,484291,-6.596323490142822,-8.125272750854492,-21.72453498840332,-12.59040355682373
0,484291,-13.057138442993164,2.410517454147339,4.534564018249512,-13.436366081237793
0,484291,5.742401599884033,-1.6073414087295532,17.472599029541016,-7.836872100830078
0,484291,13.882603645324707,-9.970468521118164,-27.04796600341797,19.28093147277832
0,484292,5.59502649307251,-6.545414447784424,2.205078363418579,4.004911422729492
0,484292,-14.348183631896973,14.680156707763672,31.371082305908203,0.5288577675819397
0,484292,19.313209533691406,5.0387115478515625,-21.420434951782227,11.366235733032227
0,484292,-0.6754146814346313,-15.239800453186035,-2.5021140575408936,8.559829711914062
0,484292,-32.9086799621582,19.98450469970703,37.388343811035156,3.2498738765716553
0,484293,11.892937660217285,11.203554153442383,-6.505890846252441,-9.473716735839844
0,484293,15.386645317077637,-14.894208908081055,-18.025510787963867,-3.683015823364258
0,484293,-0.49338284134864807,9.92140007019043,5.4542436599731445,-8.286017417907715
0,484293,1.6334829330444336,-13.760183334350586,10.717146873474121,3.173666000366211
0,484293,-9.611339569091797,-4.8764519691467285,-6.718882083892822,3.3729171752929688
0,484293,-6.966816425323486,13.350964546203613,-15.04223346710205,-15.219215393066406
0,484293,6.823741912841797,-10.106643676757812,-7.653952121734619,1.5355262756347656
0,484294,0.8871479034423828,-8.632105827331543,-6.630395412445068,18.529560089111328
0,484295,1.0777748823165894,-5.016032695770264,30.05467987060547,31.16835594177246
0,484295,6.002207279205322,27.109865188598633,14.320109367370605,-2.6351959705352783
0,484295,-6.6443586349487305,1.471497893333435,-31.487720489501953,-16.74820899963379
0,484295,-8.489337921142578,-26.870241165161133,-6.208325386047363,5.9377923011779785
0,484297,9.904332160949707,31.556360244750977,10.674993515014648,-3.28458571434021
0,484298,8.392293930053711,12.054760932922363,2.1620476245880127,19.539772033691406
0,484299,-8.29116439819336,-18.874013900756836,8.475947380065918,22.675355911254883
0,484302,-12.898615837097168,29.0268497467041,2.3223588466644287,-34.52366638183594
0,484303,-6.127689361572266,26.071144104003906,-11.392701148986816,-54.8138542175293
0,484306,-6.497975826263428,-24.4500789642334,-2.027486562728882,-52.69233322143555
0,484307,14.084798812866211,-14.480609893798828,-12.102531433105469,-27.697673797607422
0,484310,20.107080459594727,-17.478744506835938,-28.17465591430664,5.834139347076416
0,484311,-8.816380500793457,-35.240928649902344,0.45608681440353394,2.190697431564331
0,484314,-4.065866947174072,-5.107802867889404,58.1369743347168,45.89267349243164
0,484315,-16.200082778930664,9.915417671203613,29.060304641723633,39.44206619262695
0,484318,14.029084205627441,30.888477325439453,-38.1854248046875,22.071496963500977
0,484319,21.01738166809082,10.150782585144043,-17.33034324645996,48.57159423828125
0,484322,-33.30326843261719,-11.92025089263916,4.648817539215088,-12.924371719360352
0,484324,19.002880096435547,13.312691688537598,-6.937800407409668,-54.205047607421875
0,484326,22.89760971069336,-13.748231887817383,-1.5611121654510498,-23.327898025512695
0,484328,-34.78458786010742,-23.86367416381836,11.985199928283691,4.968913555145264
0,484330,4.863622665405273,8.235230445861816,-20.8991756439209,-36.787166595458984
0,484332,7.1383514404296875,10.249539375305176,-14.825813293457031,-26.538307189941406
0,484425,-17.749937057495117,33.71773910522461,34.898624420166016,75.08912658691406
0,484425,-7.020651817321777,43.565391540527344,8.693719863891602,20.54521942138672
0,484425,-5.26088809967041,-46.640480041503906,-21.255361557006836,-64.05420684814453
0,484425,24.697420120239258,-60.28931427001953,-7.117142677307129,-9.483389854431152
0,484425,11.905008316040039,11.378352165222168,11.881000518798828,19.3026123046875
0,484426,-27.17959976196289,12.393550872802734,11.66547966003418,29.433305740356445
0,484426,3.032362461090088,11.993973731994629,5.35969877243042,44.91810989379883
0,484426,16.787389755249023,-3.878969192504883,-1.8546947240829468,9.348333358764648
0,484426,-4.230235576629639,-17.292835235595703,-6.208868503570557,-10.147908210754395
0,484426,-9.476524353027344,10.46888256072998,3.973695755004883,-0.14977732300758362
0,484427,5.219418525695801,5.03104829788208,-13.478285789489746,-16.804731369018555
0,484427,6.966629981994629,-15.466449737548828,-6.268835067749023,-41.503658294677734
0,484427,-9.136540412902832,3.6565113067626953,18.088790893554688,-32.27478790283203
0,484427,9.539358139038086,0.6407073736190796,-18.906007766723633,-3.380300521850586
0,484427,5.008942127227783,-18.486242294311523,-24.099525451660156,22.756816864013672
0,484427,-20.950227737426758,13.995325088500977,32.20733642578125,26.976703643798828
0,484428,5.5527496337890625,20.505855560302734,28.04198455810547,11.316235542297363
0,484428,25.53974723815918,-0.044330887496471405,-16.833261489868164,1.8105167150497437
0,484428,-2.1512365341186523,-3.7511043548583984,-2.0278031826019287,-0.6940903663635254
0,484428,-1.510502815246582,10.366142272949219,4.7211222648620605,-12.594690322875977
0,484428,-2.8162996768951416,0.3628299832344055,-23.643081665039062,2.028599500656128
0,484428,-23.029443740844727,-20.501550674438477,2.861283302307129,-0.05599462240934372
0,484429,8.159124374389648,-1.9318406581878662,21.425601959228516,-31.9229679107666
0,484429,24.427165985107422,0.7075653672218323,-5.779755115509033,-8.801423072814941
0,484429,-15.719738960266113,-6.43532133102417,3.6469459533691406,7.197789192199707
0,484429,-12.101300239562988,9.149103164672852,-8.588593482971191,12.77003002166748
0,484429,-5.378791332244873,13.276836395263672,-16.23578643798828,24.925270080566406
0,484430,-14.659791946411133,-9.072165489196777,31.270597457885742,11.900496482849121
0,484430,20.361827850341797,-11.263925552368164,3.4423701763153076,-11.254802703857422
0,484430,23.83700942993164,10.748283386230469,-32.62633514404297,-17.50890350341797
0,484430,-5.209792613983154,7.947441101074219,6.005998134613037,4.339348316192627
0,484430,-23.160892486572266,-8.193375587463379,13.21303939819336,12.999432563781738
0,484430,0.8735162615776062,-1.6413716077804565,1.620446801185608,-3.684572458267212
0,484431,12.84195327758789,8.044833183288574,0.8220047950744629,-14.892280578613281
0,484431,-13.698534965515137,-10.5491361618042,-10.25381088256836,11.60461711883545
0,484431,8.293366432189941,-11.274060249328613,-4.716066360473633,23.475414276123047
0,484431,16.116044998168945,21.411231994628906,7.804348468780518,-0.7654724717140198
0,484431,-14.690630912780762,4.269756317138672,16.041175842285156,-2.601742744445801
0,484431,0.4702261686325073,-29.10495948791504,-1.3706347942352295,8.684679985046387
0,484432,5.683305263519287,-5.767752170562744,-5.311179161071777,-2.1708180904388428
0,484432,-10.085554122924805,29.84376335144043,8.982830047607422,-10.722920417785645
0,484432,14.54843807220459,17.036426544189453,-10.114250183105469,-13.01949405670166
0,484432,11.688152313232422,-23.89215087890625,-22.008310317993164,-6.993878364562988
0,484432,-16.825422286987305,-3.770922899246216,12.182319641113281,9.447432518005371
0,484432,-16.171985626220703,10.178346633911133,14.790363311767578,-3.861321449279785
0,484433,7.09177303314209,-2.613306999206543,-11.440007209777832,-7.885379791259766
0,484434,-3.2216405868530273,21.265836715698242,21.647958755493164,21.259374618530273
0,484434,1.097446084022522,6.943284511566162,-1.2519069910049438,28.507972717285156
0,484434,27.71355628967285,-24.19243049621582,-31.541181564331055,10.52393913269043
0,484434,-24.725460052490234,-6.071807384490967,20.766613006591797,-0.7709566950798035
0,484435,-3.9168906211853027,19.59344482421875,7.414418697357178,-19.236921310424805
0,484436,33.05776596069336,-1.3625376224517822,-37.08327102661133,-3.5681772232055664
0,484437,-19.889009475708008,-7.887256145477295,6.918550491333008,33.71061325073242
0,484440,-7.57050085067749,18.098175048828125,28.47551727294922,34.29317092895508
0,484441,16.96531105041504,15.193622589111328,-5.172227382659912,8.881413459777832
0,484444,-19.691633224487305,-12.42538833618164,-8.165144920349121,-73.0427017211914
0,484445,-6.717230319976807,-11.51590347290039,-1.858581304550171,-93.85102081298828
0,484448,5.655704975128174,-10.949274063110352,-15.941622734069824,-23.7616024017334
0,484449,-18.056760787963867,-27.40239906311035,-25.072250366210938,-7.527598857879639
0,484452,17.282747268676758,5.259754180908203,10.149380683898926,21.431184768676758
0,484453,15.110825538635254,7.334255695343018,13.451228141784668,46.11651611328125
0,484456,-2.9076457023620605,-6.100286960601807,14.833736419677734,41.50471496582031
0,484457,-8.587292671203613,2.2154622077941895,39.052650451660156,42.88850784301758
0,484460,-6.134518623352051,12.185077667236328,4.163186073303223,9.888910293579102
0,484461,24.962066650390625,26.90701675415039,-12.661882400512695,-20.290433883666992
0,484464,-4.560094833374023,-11.022595405578613,-28.3790283203125,-56.12466049194336
0,484465,-11.823616027832031,-26.678466796875,-28.434886932373047,-27.23167610168457
0,484468,-4.948640823364258,-8.385883331298828,21.488656997680664,10.152580261230469
0,484469,-11.718994140625,-8.34599494934082,3.8159871101379395,-19.13128089904785
0,484472,3.123309373855591,6.835522174835205,-19.211322784423828,20.70003890991211
0,484577,19.21675682067871,33.662593841552734,34.169002532958984,71.1373291015625
0,484577,7.237825393676758,25.679927825927734,34.54670333862305,1.1461105346679688
0,484577,-12.639826774597168,-26.899633407592773,-40.85283279418945,-75.16986846923828
0,484577,9.022411346435547,-40.89847183227539,-29.3122501373291,-4.018291473388672
0,484577,-5.044759750366211,-1.135214924812317,35.1013069152832,53.75580978393555
0,484578,-1.637250542640686,38.13167953491211,16.174964904785156,24.70372200012207
0,484578,21.236488342285156,22.076568603515625,-18.938486099243164,20.913373947143555
0,484578,-12.82601547241211,-17.54458999633789,2.812185049057007,12.872688293457031
0,484578,-28.239900588989258,3.175779342651367,31.274517059326172,7.538731575012207
0,484578,13.46525764465332,13.757314682006836,-12.224455833435059,-15.815913200378418
0,484578,20.529184341430664,-4.585984706878662,-42.57700729370117,-39.69491195678711
0,484579,-11.028922080993652,-9.781278610229492,-6.966660976409912,-40.22044372558594
0,484579,-19.873069763183594,-13.002091407775879,5.632436752319336,-27.89415740966797
0,484579,-15.687912940979004,-7.940582752227783,9.347814559936523,14.674321174621582
0,484579,18.872499465942383,-8.02563190460205,8.364578247070312,15.93807315826416
0,484579,34.02394104003906,4.297763347625732,-5.8086957931518555,-1.6449074745178223
0,484579,-2.1465983390808105,20.306074142456055,-6.007157325744629,19.0192813873291
0,484580,-18.645004272460938,12.969141006469727,12.84067440032959,20.669719696044922
0,484580,-11.059643745422363,1.2995922565460205,9.241229057312012,-5.237331390380859
0,484580,-2.318279504776001,-7.791253089904785,-0.7895339727401733,-7.382431983947754
0,484580,5.486438274383545,-11.761014938354492,6.907488822937012,-9.778483390808105
0,484580,4.826137542724609,7.429964542388916,-10.988884925842285,-37.801185607910156
0,484581,-4.027580261230469,2.029615640640259,-28.05160903930664,-22.616256713867188
0,484581,-4.953012466430664,-17.064836502075195,-12.91133975982666,19.48646354675293
0,484581,8.361407279968262,5.398836612701416,16.08122444152832,10.844021797180176
0,484581,6.683491230010986,7.463460445404053,20.499414443969727,5.039742469787598
0,484581,1.6081351041793823,-0.4415971040725708,7.085177421569824,8.73949909210205
0,484581,8.463728904724121,-2.2150893211364746,-10.268394470214844,-2.037261962890625
0,484582,-6.094994068145752,-6.589200973510742,-12.466550827026367,9.959024429321289
0,484582,-13.124753952026367,-1.6991921663284302,4.850282669067383,8.32455825805664
0,484582,5.9212517738342285,5.14668607711792,-4.443175315856934,-15.446745872497559
0,484582,6.134599208831787,4.1110639572143555,-17.08183479309082,-26.005950927734375
0,484582,-5.3695549964904785,-18.849966049194336,-5.865488529205322,-10.986875534057617
0,484582,-9.751054763793945,-11.3649263381958,16.232492446899414,14.209603309631348
0,484583,7.235857963562012,-0.35923486948013306,6.633996963500977,-2.82401967048645
0,484583,-7.011376857757568,5.264105319976807,-20.507997512817383,0.5863379240036011
0,484583,-16.02504539489746,11.923104286193848,1.3069462776184082,27.167736053466797
0,484583,20.410694122314453,-15.143716812133789,16.72606086730957,7.810853004455566
0,484583,-1.8689080476760864,14.595227241516113,9.196785926818848,-6.477015495300293
0,484583,-8.483750343322754,38.892333984375,16.90358543395996,-12.584715843200684
0,484584,6.642180919647217,-18.548269271850586,-6.840419292449951,-6.003958702087402
0,484584,-10.27413558959961,-24.282943725585938,-12.155013084411621,7.203600883483887
0,484584,5.361734390258789,14.439449310302734,6.49049711227417,-8.010883331298828
0,484584,19.16312026977539,6.727875232696533,-7.079497814178467,15.019444465637207
0,484584,-7.181450366973877,-6.460715293884277,-1.7877626419067383,3.506395101547241
0,484584,-12.29330825805664,7.222930431365967,18.47064971923828,-14.08278751373291
0,484585,19.203466415405273,6.061103343963623,5.447089672088623,28.642139434814453
0,484585,15.20775032043457,-8.16457462310791,-17.138700485229492,-3.4744598865509033
0,484585,-16.18300437927246,-18.622581481933594,-11.742462158203125,-24.143171310424805
0,484585,-15.520308494567871,-8.85413932800293,15.628579139709473,13.180940628051758
0,484585,17.000558853149414,27.694438934326172,6.797369003295898,16.301353454589844
0,484586,1.4763292074203491,-4.977642059326172,-20.728649139404297,-12.309286117553711
0,484587,-26.17241859436035,-42.60062789916992,0.44404906034469604,-20.45905113220215
0,484587,2.7032155990600586,8.414143562316895,2.773477792739868,-4.606753349304199
0,484587,16.800765991210938,17.753992080688477,4.3710174560546875,-14.919594764709473
0,484587,-2.348153829574585,-2.157031297683716,15.022541999816895,-1.6696757078170776
0,484587,-2.082773447036743,3.09598445892334,-16.009553909301758,29.479084014892578
0,484589,9.155115127563477,0.9315852522850037,-0.9112284183502197,1.0592944622039795
0,484590,-4.68196439743042,-11.136038780212402,29.39923858642578,-32.64093780517578
0,484591,-20.482086181640625,-25.9328670501709,-6.726358890533447,16.264183044433594
0,484594,18.11827278137207,26.347475051879883,-23.631616592407227,65.4786376953125
0,484595,29.504236221313477,39.41461181640625,6.082759380340576,32.472652435302734
0,484598,-19.908973693847656,7.862344264984131,33.18673324584961,5.62799596786499
0,484599,-11.599902153015137,10.39954662322998,18.891319274902344,16.72811508178711
0,484602,13.939079284667969,-11.844436645507812,-30.891645431518555,5.297565937042236
0,484603,6.455320358276367,10.336956977844238,-13.646735191345215,-78.59823608398438
0,484606,-21.01340675354004,-15.42019271850586,-18.97246551513672,-71.70035552978516
0,484608,-13.739222526550293,-37.678192138671875,-42.252830505371094,25.288837432861328
0,484610,4.760883808135986,15.538045883178711,28.739992141723633,-74.10986328125
0,484612,-8.020556449890137,-23.358779907226562,15.417040824890137,-44.076908111572266
0,484614,25.494483947753906,-11.156389236450195,-5.672584533691406,175.75897216796875
0,484616,3.4854774475097656,39.112117767333984,37.88512420654297,88.02490997314453
0,484618,-11.758257865905762,7.060565948486328,7.27342414855957,-67.34894561767578
0,484620,21.443862915039062,14.937456130981445,-13.266436576843262,-73.9129867553711
0,484622,-22.047224044799805,-10.86237907409668,-1.0048524141311646,1.4341093301773071
0,484624,-16.334239959716797,-10.112906455993652,-7.996487617492676,53.487030029296875
0,484739,23.41934585571289,24.912399291992188,11.695510864257812,35.30876922607422
0,484739,8.19041633605957,-15.053436279296875,20.596969604492188,52.06584548950195
0,484739,-11.854524612426758,-6.517845630645752,-4.677788257598877,-9.898417472839355
0,484740,1.8585729598999023,24.50469970703125,-21.240074157714844,-60.01023864746094
0,484740,16.70664405822754,20.450878143310547,-24.373537063598633,-42.99913024902344
0,484740,-13.755122184753418,-31.317874908447266,-2.1704483032226562,-21.6271915435791
0,484740,-25.417922973632812,-39.728492736816406,13.699816703796387,-4.3172287940979
0,484740,20.683879852294922,16.738208770751953,-6.60244083404541,0.8460983037948608
0,484740,18.003503799438477,6.066993713378906,-28.224891662597656,4.119386672973633
0,484741,-25.763328552246094,-20.367443084716797,18.15615463256836,13.838695526123047
0,484741,-3.1801090240478516,6.182611465454102,28.369508743286133,26.039751052856445
0,484741,20.391347885131836,25.517166137695312,-30.0341739654541,1.1504061222076416
0,484741,-13.710198402404785,-2.174819231033325,3.649761199951172,-5.142115592956543
0,484741,-11.2260160446167,2.2262041568756104,34.89923095703125,-13.435490608215332
0,484742,20.759296417236328,-0.6058645248413086,-29.420976638793945,-31.802141189575195
0,484742,-6.736732482910156,-19.088069915771484,-10.925130844116211,-8.653728485107422
0,484742,-14.656120300292969,10.021239280700684,34.58205032348633,-7.792135238647461
0,484742,8.89548397064209,-7.611920356750488,-6.885224342346191,-16.970951080322266
0,484742,9.34630298614502,-12.16710376739502,-15.834257125854492,5.290591716766357
0,484742,0.3268938362598419,0.1838887482881546,-9.082173347473145,6.363465309143066
0,484743,-9.120516777038574,-12.806485176086426,-0.6013688445091248,12.420750617980957
0,484743,8.835396766662598,22.08906364440918,22.918479919433594,27.5522403717041
0,484743,2.000758171081543,36.591705322265625,9.108805656433105,-6.551401615142822
0,484743,1.081686019897461,-21.00092124938965,-7.520106792449951,-26.73126983642578
0,484743,-3.6788084506988525,-22.947935104370117,6.443881988525391,-2.1027333736419678
0,484743,-20.024608612060547,21.718074798583984,-5.63865852355957,-26.248779296875
0,484744,22.545812606811523,-9.014739990234375,-17.99656867980957,-36.489253997802734
0,484744,11.370689392089844,-21.236581802368164,7.048216342926025,34.14500045776367
0,484744,-12.720076560974121,-0.9638335704803467,8.56702995300293,67.78562927246094
0,484744,14.513753890991211,16.11603355407715,-2.153108596801758,26.560354232788086
0,484744,9.596922874450684,21.760412216186523,5.255630970001221,-9.66247844696045
0,484744,-17.248741149902344,-18.496158599853516,-1.2790707349777222,33.28400421142578
0,484745,-21.166946411132812,-1.2996759414672852,-3.5638909339904785,30.715328216552734
0,484745,6.412919998168945,6.545682907104492,-11.062797546386719,-31.30368423461914
0,484745,10.534907341003418,-16.767148971557617,-12.389749526977539,-13.590742111206055
0,484745,-8.420863151550293,25.116792678833008,12.049277305603027,-1.4685317277908325
0,484745,-3.671023368835449,6.0507731437683105,8.81943130493164,-24.299898147583008
0,484745,-10.716891288757324,-25.640661239624023,-9.00707721710205,-27.10125160217285
0,484746,-7.69074010848999,7.258113861083984,-30.2462100982666,1.2385334968566895
0,484746,8.277579307556152,12.514503479003906,8.66976547241211,-1.320327877998352
0,484746,6.4359025955200195,-19.376789093017578,21.192319869995117,-26.878828048706055
0,484746,1.1925045251846313,-13.849136352539062,-19.517271041870117,0.2544768750667572
0,484746,-14.961549758911133,10.520368576049805,-3.176917791366577,24.893789291381836
0,484746,-5.604539394378662,-4.384846210479736,21.305269241333008,13.228903770446777
0,484747,17.795166015625,3.5328309535980225,13.977754592895508,-16.531007766723633
0,484747,21.912490844726562,-5.987192153930664,-23.24184799194336,-9.626740455627441
0,484747,-15.269993782043457,-2.7955121994018555,-8.471474647521973,30.74675178527832
0,484747,-25.450889587402344,33.147064208984375,8.661763191223145,9.136174201965332
0,484747,14.416857719421387,-2.1955628395080566,9.250048637390137,-19.762985229492188
0,484747,6.4583258628845215,-11.594114303588867,27.963247299194336,-20.18613624572754
0,484748,5.988168716430664,-1.9317411184310913,-1.3978204727172852,-4.734683513641357
0,484748,13.671578407287598,-6.232834815979004,-25.60115623474121,3.2113873958587646
0,484748,-0.695869505405426,10.1193265914917,-6.576248645782471,-20.665937423706055
0,484748,0.40900710225105286,-5.046299457550049,15.41598129272461,33.1718635559082
0,484748,-6.900223731994629,-3.886279344558716,6.878297328948975,25.049976348876953
0,484749,0.04596485197544098,20.913799285888672,7.833968162536621,-30.619598388671875
0,484749,22.701993942260742,-8.794496536254883,3.580028772354126,11.584124565124512
0,484750,-14.010103225708008,-37.15380096435547,-21.070463180541992,14.33935546875
0,484750,-24.99439811706543,-6.911076068878174,9.13695240020752,0.9188371300697327
0,484750,6.084726810455322,7.21883487701416,11.219280242919922,13.41602897644043
0,484750,5.8795061111450195,23.157333374023438,-0.9180168509483337,2.9943363666534424
0,484751,13.73144817352295,24.298240661621094,8.839570045471191,2.142772674560547
0,484751,10.100564002990723,-27.622989654541016,-18.898181915283203,-13.770682334899902
0,484752,-5.89350700378418,-26.165512084960938,-22.886201858520508,-7.461442947387695
0,484753,-21.72526741027832,12.353870391845703,14.137261390686035,76.39210510253906
0,484756,-0.3084823489189148,38.4970588684082,26.515592575073242,41.50374221801758
0,484757,29.4864559173584,32.100616455078125,5.846861362457275,-2.1126630306243896
0,484760,-22.720155715942383,-2.4341206550598145,-13.072514533996582,23.133790969848633
0,484761,-6.5152812004089355,11.43372631072998,-22.612226486206055,-80.00051879882812
0,484764,33.476192474365234,11.370704650878906,2.8520615100860596,-57.062156677246094
0,484765,-33.04456329345703,-26.392005920410156,14.841558456420898,36.53347396850586
0,484768,-15.443985939025879,-18.3304386138916,-14.163435935974121,-69.2458267211914
0,484769,11.823492050170898,-24.791271209716797,-16.79305076599121,-64.5853500366211
0,484772,-17.24447250366211,-58.43403244018555,-4.069889068603516,45.04168701171875
0,484883,29.836135864257812,66.32565307617188,6.737858295440674,75.7664566040039
0,484883,37.614219665527344,95.6655044555664,11.802360534667969,37.382537841796875
0,484883,-26.418439865112305,-77.35586547851562,-19.86437225341797,-66.73369598388672
0,484883,-27.242456436157227,-57.11782455444336,2.354685068130493,-35.20549392700195
0,484883,8.216338157653809,20.928388595581055,24.725568771362305,30.705533981323242
0,484884,20.05759620666504,11.376770973205566,-3.075730323791504,13.33216667175293
0,484884,6.944770812988281,10.412651062011719,-3.7499876022338867,0.935826301574707
0,484884,-23.285158157348633,-0.08474907279014587,8.7446928024292,4.258812427520752
0,484884,-15.28918170928955,0.40790697932243347,15.430837631225586,12.489811897277832
0,484884,0.6884413361549377,1.2237482070922852,-14.685303688049316,-6.418553352355957
0,484884,-9.463934898376465,-3.5987043380737305,-29.273027420043945,-28.727758407592773
0,484885,2.6924431324005127,-14.411096572875977,-9.31241226196289,-37.2390251159668
0,484885,22.075279235839844,-2.240325450897217,27.004926681518555,3.3002917766571045
0,484885,-9.852033615112305,9.426309585571289,9.154057502746582,24.825027465820312
0,484885,-28.327150344848633,-29.704570770263672,-30.960874557495117,4.172552585601807
0,484885,13.648351669311523,3.920836925506592,18.665254592895508,-4.186742305755615
0,484885,18.74980354309082,54.20766830444336,28.584033966064453,26.15958595275879
0,484886,8.968001365661621,3.9209916591644287,-6.0277838706970215,52.343509674072266
0,484886,4.198627471923828,-15.351252555847168,2.7225818634033203,-26.084671020507812
0,484886,-0.9848219156265259,-4.168022155761719,-7.6742939949035645,-45.63507843017578
0,484886,4.586132049560547,-20.657546997070312,-8.172361373901367,2.1201515197753906
0,484886,-13.021496772766113,-3.613415002822876,8.362753868103027,-3.1305832862854004
0,484887,-15.414812088012695,16.823766708374023,4.0303635597229,-6.00459623336792
0,484887,1.5940545797348022,-1.038840889930725,6.724861145019531,-8.3912353515625
0,484887,17.94940948486328,-23.566139221191406,-22.02409553527832,7.681914806365967
0,484887,7.053149223327637,1.704299807548523,-9.672480583190918,23.857927322387695
0,484887,-9.540018081665039,28.374889373779297,30.387971878051758,9.985655784606934
0,484887,-1.7186352014541626,-4.1065192222595215,-11.025601387023926,-8.950005531311035
0,484888,4.034430027008057,0.07002376765012741,-5.589059352874756,-13.522053718566895
0,484888,9.437314987182617,11.054424285888672,17.81040382385254,6.763238906860352
0,484888,-10.964241981506348,-15.192628860473633,-15.51612377166748,1.2785402536392212
0,484888,-13.045831680297852,-3.832977771759033,-9.699037551879883,-19.425247192382812
0,484888,20.05208396911621,16.399887084960938,-5.183704376220703,1.5557571649551392
0,484888,7.130196571350098,-11.002330780029297,-5.492936611175537,3.6677708625793457
0,484889,-17.81490707397461,-7.296247959136963,20.001651763916016,-7.342284202575684
0,484889,1.2754855155944824,26.461894989013672,-3.359694004058838,0.43531355261802673
0,484889,3.1284921169281006,-18.61976432800293,-15.428887367248535,-24.03204345703125
0,484889,-16.93951988220215,-35.69579315185547,8.622384071350098,-32.04773712158203
0,484889,16.55682945251465,17.04674530029297,-8.256447792053223,-25.252792358398438
0,484889,2.916900634765625,24.541419982910156,1.2739559412002563,5.96142053604126
0,484890,-9.409601211547852,-6.819328308105469,-0.8947355151176453,25.56183433532715
0,484890,8.900394439697266,-29.571269989013672,-10.89932632446289,9.507264137268066
0,484890,-12.840093612670898,-22.24549102783203,18.30543327331543,30.575355529785156
0,484890,-3.4541091918945312,13.473431587219238,4.513887405395508,45.35028076171875
0,484890,-0.8610977530479431,15.138482093811035,11.029317855834961,71.73284149169922
0,484890,10.851300239562988,-13.363378524780273,-9.15401554107666,65.70568084716797
0,484891,0.7559446692466736,-5.630456924438477,-14.66809368133545,37.63525390625
0,484891,-20.07817840576172,14.077820777893066,32.35704040527344,1.6635349988937378
0,484891,13.255319595336914,5.086772918701172,-5.088771820068359,-19.485200881958008
0,484891,-4.918849468231201,2.833714008331299,-17.742341995239258,-8.907543182373047
0,484891,-20.82194709777832,14.25084400177002,2.9194107055664062,-53.90422058105469
0,484891,28.34640884399414,-2.1373112201690674,-10.528462409973145,-45.66136169433594
0,484892,10.019049644470215,12.654223442077637,5.832376956939697,-17.705978393554688
0,484892,-10.938735008239746,14.997499465942383,3.744145631790161,-36.73975372314453
0,484892,6.094360828399658,-16.60325813293457,-5.335422039031982,-27.25034523010254
0,484893,14.429141998291016,53.69956970214844,18.23711585998535,-26.320297241210938
0,484893,20.15609359741211,50.75077438354492,-0.7635070085525513,-10.939631462097168
0,484894,-23.84256362915039,-59.30323028564453,-20.877384185791016,25.345382690429688
0,484894,-12.221713066101074,-20.537078857421875,15.640562057495117,12.419388771057129
0,484894,32.565608978271484,18.179357528686523,24.678333282470703,18.390634536743164
0,484894,-2.6564881801605225,-27.17708396911621,-9.20667552947998,11.295854568481445
0,484895,-7.4578046798706055,-0.9598641991615295,-10.060067176818848,-46.68915939331055
0,484898,-8.294998168945312,19.855289459228516,17.558944702148438,41.36134719848633
0,484899,-15.0606107711792,-9.441621780395508,23.697301864624023,92.0329818725586
0,484902,6.06076192855835,-23.949974060058594,-14.76290225982666,-62.11562728881836
0,484903,-10.098036766052246,-10.408355712890625,-33.10719680786133,-91.22755432128906
0,484906,-12.801342964172363,-4.741109848022461,-15.055031776428223,-2.3268299102783203
0,484907,-2.7533774375915527,-31.3034725189209,-32.38555908203125,-25.933616638183594
0,484910,18.636398315429688,-8.071249961853027,-2.8839311599731445,-5.50839376449585
0,484911,3.630481004714966,9.372499465942383,12.034148216247559,68.974609375
0,484914,-1.2674946784973145,3.7081542015075684,19.714641571044922,46.16946792602539
0,484915,32.94624710083008,23.52934455871582,58.710514068603516,30.102100372314453
0,484918,-15.137062072753906,31.65303611755371,-3.5608580112457275,18.047168731689453
0,484919,-34.950870513916016,12.962518692016602,-16.66765594482422,13.00284481048584
0,485030,2.094128370285034,-61.37691116333008,-51.83523941040039,-130.12171936035156
0,485030,13.094974517822266,-28.382619857788086,-62.336605072021484,-123.72947692871094
0,485030,-1.8957303762435913,47.351287841796875,60.0510139465332,151.2239227294922
0,485030,12.511836051940918,35.33785629272461,58.18857192993164,72.68516540527344
0,485030,16.425033569335938,14.967340469360352,-11.380221366882324,-61.64023971557617
0,485031,-32.625816345214844,-26.88153648376465,-19.85856819152832,7.44376802444458
0,485031,-16.48150062561035,-20.075820922851562,-17.68385887145996,0.1151496022939682
0,485031,12.596081733703613,14.532118797302246,-7.675980091094971,-23.506637573242188
0,485031,6.351779460906982,-17.13094139099121,8.044645309448242,-25.961084365844727
0,485031,11.831144332885742,-14.458756446838379,20.185649871826172,10.895360946655273
0,485031,4.136943817138672,25.7061710357666,12.661677360534668,44.50217056274414
0,485032,-10.446565628051758,-1.45697820186615,-14.546365737915039,12.801559448242188
0,485032,-11.274324417114258,-14.87473201751709,4.427895545959473,10.525959014892578
0,485032,16.455081939697266,-3.515997886657715,27.163524627685547,18.288429260253906
0,485032,6.9392523765563965,-0.5360445380210876,8.371551513671875,-6.070361137390137
0,485032,-20.438735961914062,22.676790237426758,-24.089052200317383,-25.62176513671875
0,485033,11.525528907775879,4.236827373504639,-31.066509246826172,-22.39873504638672
0,485033,4.123413562774658,-14.204118728637695,16.124170303344727,-8.006002426147461
0,485033,-9.580034255981445,12.156547546386719,17.719818115234375,-1.2202452421188354
0,485033,9.459029197692871,12.765639305114746,-14.9130859375,18.92270851135254
0,485033,-0.017665715888142586,-5.77449893951416,9.890512466430664,19.220163345336914
0,485033,4.492367744445801,-3.2440145015716553,7.089249610900879,4.350313663482666
0,485034,-7.2899980545043945,13.798578262329102,0.8077483773231506,18.731496810913086
0,485034,-3.6478500366210938,9.31029987335205,18.65059471130371,3.5651943683624268
0,485034,23.62295150756836,-13.78890609741211,-17.562170028686523,-27.26666259765625
0,485034,-11.432236671447754,-8.564472198486328,-22.407161712646484,-14.49524211883545
0,485034,-19.72992515563965,-3.5521512031555176,0.10990113765001297,-2.798501968383789
0,485034,-12.749959945678711,-21.410396575927734,-0.28228893876075745,-6.260251998901367
0,485035,-1.8574657440185547,4.851280689239502,2.0950605869293213,-3.818588972091675
0,485035,20.661895751953125,7.709161758422852,-14.26453971862793,9.529960632324219
0,485035,-1.9110900163650513,-23.180002212524414,3.911651134490967,12.026854515075684
0,485035,6.890474796295166,17.07424545288086,11.882060050964355,-1.7971489429473877
0,485035,9.210616111755371,10.455315589904785,-11.77772045135498,6.961284637451172
0,485035,-20.233814239501953,-26.23554229736328,1.4160982370376587,2.1634490489959717
0,485036,-9.95874309539795,22.949254989624023,16.825639724731445,-18.506229400634766
0,485036,15.172871589660645,25.98931121826172,3.741060733795166,-2.8116836547851562
0,485036,5.8889079093933105,-14.587247848510742,-0.8044268488883972,8.981390953063965
0,485036,-0.4307857155799866,7.657562255859375,3.700446605682373,-6.351144790649414
0,485036,14.288382530212402,4.641263484954834,-13.059859275817871,-12.331585884094238
0,485036,-11.727949142456055,-16.812580108642578,6.5299835205078125,10.437870025634766
0,485037,-24.367488861083984,3.9886701107025146,11.935575485229492,19.70212173461914
0,485037,7.2118449211120605,-1.0907429456710815,-21.006729125976562,-0.8312256932258606
0,485037,20.543176651000977,-7.7630414962768555,-6.027489185333252,13.578893661499023
0,485037,5.026753902435303,9.534687995910645,18.815889358520508,21.536699295043945
0,485037,-14.203063011169434,5.52274751663208,1.4290167093276978,-22.304096221923828
0,485038,0.8309544324874878,-25.690427780151367,-6.90834903717041,-23.093719482421875
0,485038,-7.215546131134033,-16.182781219482422,1.443006992340088,12.2970552444458
0,485038,-14.768401145935059,20.4385929107666,-0.030339568853378296,7.740805625915527
0,485038,14.106239318847656,-3.0439348220825195,1.5036201477050781,0.6782055497169495
0,485038,7.392124652862549,1.5671406984329224,0.9487392902374268,-16.723432540893555
0,485038,9.822697639465332,22.926729202270508,-8.511316299438477,-31.670852661132812
0,485038,-3.4351487159729004,-17.955984115600586,-12.160630226135254,12.034666061401367
0,485039,-17.379915237426758,-2.824885129928589,16.86774253845215,12.451507568359375
0,485039,2.034528970718384,13.355956077575684,11.816170692443848,-16.120800018310547
0,485039,0.706056535243988,-4.170411586761475,-11.526687622070312,9.333295822143555
0,485040,4.608900547027588,13.545778274536133,7.641469955444336,12.3203125
0,485040,7.503362655639648,0.26598644256591797,-16.947315216064453,-25.576135635375977
0,485041,-9.204976081848145,-4.433156490325928,-17.69507598876953,-8.517406463623047
0,485041,-11.338371276855469,2.442793846130371,24.483182907104492,30.8253173828125
0,485041,13.564773559570312,-9.041369438171387,8.285435676574707,-9.409672737121582
0,485042,14.913642883300781,-9.361222267150879,-31.432518005371094,-25.527618408203125
0,485044,-11.007994651794434,20.79012680053711,-7.220776557922363,-16.129798889160156
0,485046,-1.9204729795455933,-10.77707290649414,23.615480422973633,12.637201309204102
0,485048,18.122722625732422,-24.611886978149414,3.958472967147827,-29.951753616333008
0,485050,-18.108675003051758,1.2137962579727173,-14.563468933105469,-83.6470947265625
0,485052,-18.57363510131836,-35.07728958129883,-21.93478775024414,59.107574462890625
0,485054,19.50507926940918,7.881875514984131,18.447704315185547,92.00929260253906
0,485056,9.982477188110352,10.141382217407227,18.431848526000977,17.276256561279297
0,485058,23.068315505981445,33.88671112060547,21.90036964416504,44.74091720581055
0,485060,-3.6446826457977295,46.91318893432617,11.44027042388916,21.250926971435547
0,485062,-45.56915283203125,-25.824838638305664,-42.012264251708984,-59.932769775390625
0,485064,9.860093116760254,10.042928695678711,-4.271885871887207,-71.40902709960938
0,485066,9.082988739013672,-16.347923278808594,8.176101684570312,-29.43800926208496
0,485068,-7.692721843719482,-31.479232788085938,9.444868087768555,26.080007553100586
0,485071,-12.436029434204102,7.650700092315674,-30.327857971191406,19.803447723388672
0,485072,-17.17147445678711,-7.097502708435059,-36.62986373901367,4.230175495147705
0,485075,47.3598747253418,18.780521392822266,61.841983795166016,47.52107238769531
0,485076,1.9321200847625732,1.7573100328445435,34.501705169677734,20.738880157470703
0,485079,-23.412904739379883,-4.149167537689209,-1.9942197799682617,-22.44032096862793
0,485080,21.39041519165039,35.328731536865234,8.404197692871094,3.221837043762207
0,485201,-18.510581970214844,-21.21317481994629,-34.265438079833984,20.077285766601562
0,485202,-9.997127532958984,-31.218019485473633,-23.281373977661133,19.379194259643555
0,485202,26.812097549438477,41.25687789916992,35.92155075073242,8.902297973632812
0,485202,10.007325172424316,-0.9122733473777771,10.799506187438965,-0.819271445274353
0,485202,-16.766971588134766,-25.08946418762207,-20.957611083984375,-14.52194881439209
0,485202,-3.1458184719085693,33.82771301269531,-2.6394453048706055,-43.47050094604492
0,485202,9.580062866210938,12.340165138244629,-12.77414321899414,-45.64455795288086
0,485203,-12.448777198791504,-20.70496368408203,-20.882471084594727,-42.93137741088867
0,485203,-8.659123420715332,-42.41542434692383,-2.2304086685180664,-9.378503799438477
0,485203,4.2854533195495605,-32.34388732910156,10.728567123413086,34.633689880371094
0,485203,-8.68165397644043,31.802093505859375,2.3540987968444824,10.502281188964844
0,485203,-2.4042248725891113,26.072071075439453,1.8086718320846558,2.560232400894165
0,485203,22.655269622802734,-13.854372024536133,6.464268207550049,24.6535587310791
0,485204,-5.833660125732422,-8.114500999450684,2.104072093963623,13.567319869995117
0,485204,-12.317166328430176,16.64473533630371,13.496438026428223,1.5215339660644531
0,485204,16.788637161254883,18.968210220336914,5.386713027954102,-4.589998722076416
0,485204,-11.754408836364746,-6.714143753051758,-19.067228317260742,-8.72105598449707
0,485204,-4.415925025939941,-21.980255126953125,-15.43557357788086,-12.520392417907715
0,485205,12.1551513671875,-5.588422775268555,7.579361438751221,-5.496346950531006
0,485205,-6.129095554351807,10.924397468566895,21.68011474609375,-9.45376968383789
0,485205,6.657949447631836,-9.089554786682129,-20.351049423217773,-1.4964812994003296
0,485205,5.599864482879639,-9.381006240844727,-4.250799179077148,21.65117645263672
0,485205,0.23238472640514374,4.011414051055908,27.030500411987305,5.796168804168701
0,485205,7.899375915527344,-7.717965126037598,-13.420544624328613,14.157879829406738
0,485206,-18.63083839416504,19.01813507080078,6.890824794769287,16.644628524780273
0,485206,-9.070490837097168,29.088159561157227,11.932984352111816,-33.15485382080078
0,485206,18.97307586669922,-17.889699935913086,-12.217321395874023,-19.61594009399414
0,485206,-6.661542892456055,-15.1530122756958,-2.957165241241455,23.07147216796875
0,485206,1.6895970106124878,9.056076049804688,1.5427758693695068,-8.939250946044922
0,485206,21.956235885620117,7.900432109832764,-3.1572742462158203,-22.706029891967773
0,485207,-7.353991985321045,-3.8664727210998535,-14.123332023620605,6.365546226501465
0,485207,-25.084306716918945,-16.768402099609375,-1.3461092710494995,24.766258239746094
0,485207,-4.248595237731934,4.8923540115356445,10.465546607971191,0.7455812096595764
0,485207,17.431438446044922,9.312294960021973,2.7548727989196777,-7.048427581787109
0,485207,13.010804176330566,-2.2411956787109375,7.483216762542725,12.984478950500488
0,485207,-5.269866466522217,4.518868923187256,6.103188514709473,-6.096043109893799
0,485208,-0.3030315935611725,-1.7451423406600952,-26.53206443786621,-10.128068923950195
0,485208,-10.95121955871582,-3.053439140319824,7.916462421417236,5.51950216293335
0,485208,-15.827339172363281,0.5109481811523438,35.48241424560547,9.855873107910156
0,485208,2.7706966400146484,-5.681238174438477,-26.384761810302734,-5.9655442237854
0,485208,-3.723156690597534,-23.66539192199707,-11.136224746704102,-1.4478585720062256
0,485208,2.923548698425293,-2.969867467880249,35.79356002807617,5.491708278656006
0,485209,13.227648735046387,35.5604133605957,8.07492733001709,-16.214406967163086
0,485209,5.427556991577148,-18.322568893432617,-29.832901000976562,13.98862361907959
0,485209,-0.18964660167694092,-13.255502700805664,2.472196340560913,23.810253143310547
0,485209,-3.4175236225128174,51.25695037841797,16.804353713989258,-9.052242279052734
0,485209,-7.174740791320801,13.672002792358398,-22.53514289855957,-1.416982889175415
0,485209,9.058199882507324,-39.6269645690918,-7.81757926940918,-10.511260032653809
0,485210,4.389552116394043,-11.495914459228516,-1.1444488763809204,-3.1799569129943848
0,485210,-24.86871337890625,22.430301666259766,8.421075820922852,11.212607383728027
0,485210,15.062853813171387,-4.021707534790039,21.84505844116211,-11.575804710388184
0,485210,24.276397705078125,-6.102279186248779,-15.42923355102539,-10.020477294921875
0,485210,-39.752010345458984,-6.403256416320801,-11.963144302368164,7.750660419464111
0,485211,-13.59127140045166,-0.715246856212616,26.191980361938477,23.853660583496094
0,485211,40.01526641845703,21.687602996826172,6.329251289367676,7.448565483093262
0,485211,-2.7956361770629883,20.68538475036621,-14.9174165725708,-19.87947654724121
0,485211,-14.58696460723877,-8.03825569152832,3.4428515434265137,2.6178195476531982
0,485211,11.35147476196289,-42.74726867675781,2.320465087890625,19.245389938354492
0,485211,5.912911415100098,1.9995753765106201,7.297715663909912,-12.672393798828125
0,485212,1.469754934310913,27.90774917602539,-5.5741286277771,-6.8837971687316895
0,485212,1.440252423286438,-4.1192498207092285,-10.553597450256348,13.550736427307129
0,485213,9.922889709472656,-18.874841690063477,16.315385818481445,0.5223230719566345
0,485213,-8.452899932861328,-4.230345249176025,-1.1134462356567383,26.128610610961914
0,485213,-8.096699714660645,19.263635635375977,-23.207630157470703,8.242620468139648
0,485213,-2.280820369720459,-14.440618515014648,-7.905296325683594,-31.124116897583008
0,485214,-18.59528923034668,-13.481372833251953,11.746223449707031,0.3378998041152954
0,485215,-4.654394626617432,20.875629425048828,-16.23271942138672,0.9027027487754822
0,485216,5.651549339294434,-4.899806022644043,-28.192825317382812,-4.602759838104248
0,485218,24.088891983032227,-3.1244373321533203,13.956974029541016,32.12826156616211
0,485220,27.207592010498047,36.28204345703125,7.395768642425537,27.848003387451172
0,485222,-19.87489128112793,23.266263961791992,-32.28671646118164,-32.093196868896484
0,485224,-32.291160583496094,-2.812007188796997,-19.04400062561035,-71.89801788330078
0,485226,-1.8981060981750488,-2.29681658744812,39.056854248046875,-43.527435302734375
0,485228,2.8638081550598145,-37.952476501464844,29.518138885498047,-27.285390853881836
0,485230,-1.2109439373016357,-41.34486770629883,-10.855570793151855,-4.469348430633545
0,485232,27.145639419555664,10.849614143371582,17.87701416015625,59.5767707824707
0,485234,22.121610641479492,18.287750244140625,18.347047805786133,53.94685363769531
0,485236,-31.852861404418945,3.701463460922241,1.0706982612609863,31.994844436645508
0,485238,-23.52076530456543,-3.080524206161499,15.147082328796387,24.73332977294922
0,485240,2.041369915008545,9.58122730255127,-3.5446605682373047,-9.56081771850586
0,485242,14.834909439086914,27.683061599731445,-19.202428817749023,-32.754905700683594
0,485244,31.997163772583008,3.631232500076294,-9.041671752929688,-44.89875793457031
0,485246,-26.690492630004883,-33.71708679199219,-12.65970230102539,-33.91347122192383
0,485248,-28.51168441772461,-31.533769607543945,-41.481834411621094,-17.248382568359375
0,485250,22.052396774291992,3.7868990898132324,-26.32202911376953,-3.2570528984069824
0,485252,14.81060791015625,7.397316932678223,56.06550979614258,56.140708923339844
0,485254,1.1182427406311035,-10.996710777282715,56.7882194519043,58.33956527709961
0,485386,-11.41535472869873,31.68910026550293,-30.25095558166504,-63.09161376953125
0,485386,-10.744542121887207,32.2394905090332,-36.08326721191406,-74.43997192382812
0,485386,-3.31894588470459,-34.016578674316406,17.469139099121094,38.224151611328125
0,485386,-0.10608707368373871,-14.249809265136719,18.318973541259766,42.63209533691406
0,485387,10.330769538879395,8.114877700805664,-1.9505000114440918,13.994420051574707
0,485387,7.762099266052246,-5.5433759689331055,0.8419517874717712,31.625228881835938
0,485387,-11.89892292022705,21.66447639465332,19.262996673583984,26.527172088623047
0,485387,1.023482084274292,27.958717346191406,-0.8087553381919861,-13.068879127502441
0,485387,11.896090507507324,-9.724592208862305,-20.64181137084961,-26.977214813232422
0,485387,14.089218139648438,-7.087265968322754,-19.290191650390625,-26.967966079711914
0,485388,1.0406275987625122,-16.779178619384766,-16.995967864990234,-37.9598274230957
0,485388,-24.462472915649414,-37.71814727783203,5.4407830238342285,-7.305953502655029
0,485388,-8.496211051940918,11.24964714050293,11.498644828796387,16.29559898376465
0,485388,9.62136459350586,2.630566120147705,-5.855041980743408,17.71062660217285
0,485388,14.662787437438965,-20.53229331970215,0.04987701028585434,23.25334358215332
0,485388,7.862248420715332,22.451284408569336,13.702539443969727,-4.4616570472717285
0,485389,-5.711349010467529,21.315948486328125,-1.9062957763671875,-1.3557236194610596
0,485389,-9.062885284423828,0.8018175363540649,-11.989280700683594,24.013986587524414
0,485389,-8.671079635620117,-0.014990732073783875,-17.13683319091797,-22.46062469482422
0,485389,-11.869864463806152,-9.151920318603516,11.963748931884766,-25.001667022705078
0,485389,1.0982259511947632,-4.133803367614746,28.671628952026367,1.6086622476577759
0,485389,11.23865032196045,-2.6715171337127686,6.73786735534668,8.381547927856445
0,485390,4.201560974121094,9.858759880065918,9.18442440032959,13.382534980773926
0,485390,13.201044082641602,-0.3510090112686157,-3.0299408435821533,-4.542468070983887
0,485390,4.355821132659912,-8.4295015335083,2.582824468612671,6.068323135375977
0,485390,3.3577566146850586,29.43509292602539,13.618155479431152,20.293760299682617
0,485390,1.4710880517959595,2.6792397499084473,-14.972100257873535,5.8207550048828125
0,485390,-28.48592185974121,-31.180814743041992,-14.263443946838379,-4.6196980476379395
0,485391,-3.260371685028076,1.313795804977417,0.8363386988639832,3.2479329109191895
0,485391,29.4978084564209,25.18568229675293,1.2070603370666504,-19.791946411132812
0,485391,-1.3535736799240112,-0.1974177211523056,3.695314645767212,-25.07209587097168
0,485391,-24.79651641845703,-24.756088256835938,-20.777799606323242,6.471127033233643
0,485391,-9.984806060791016,-1.2607967853546143,-13.492582321166992,13.800939559936523
0,485392,12.204094886779785,12.512096405029297,28.023361206054688,14.561230659484863
0,485392,11.662513732910156,-6.6729912757873535,19.241125106811523,11.89761734008789
0,485392,-14.245213508605957,3.492169141769409,14.191105842590332,0.8966882228851318
0,485392,-5.618534088134766,11.480488777160645,-3.9705731868743896,-0.36744409799575806
0,485392,20.372262954711914,13.799633979797363,-22.171100616455078,11.904030799865723
0,485392,13.79725170135498,6.905298709869385,-0.5843186378479004,6.582053184509277
0,485393,-9.274309158325195,-26.11231803894043,2.1352858543395996,-10.187175750732422
0,485393,-12.690035820007324,-12.675689697265625,3.163787364959717,-15.575882911682129
0,485393,13.97343635559082,-4.93419075012207,-12.948978424072266,2.192852735519409
0,485393,0.313688188791275,-13.16948413848877,-18.548484802246094,13.233290672302246
0,485393,-26.465639114379883,23.820907592773438,22.284135818481445,-20.270118713378906
0,485393,0.726172149181366,16.036218643188477,-0.8830481171607971,-12.30448055267334
0,485394,21.79775619506836,-22.289552688598633,-20.70028305053711,26.920364379882812
0,485394,-1.6741104125976562,-7.437206268310547,13.851554870605469,16.576162338256836
0,485394,-9.960981369018555,18.94879913330078,-6.933566570281982,-25.078874588012695
0,485394,0.532368004322052,-2.7766191959381104,-5.097767353057861,-36.20734405517578
0,485394,-12.295634269714355,-9.880805969238281,13.686816215515137,6.2487616539001465
0,485394,1.3860819339752197,24.017980575561523,-5.720976829528809,5.67085075378418
0,485395,22.84336280822754,-18.160566329956055,2.6901426315307617,-10.251830101013184
0,485395,2.0798287391662598,-24.49845314025879,-10.590169906616211,21.865650177001953
0,485395,-15.384634971618652,34.92618179321289,-4.5289459228515625,18.290019989013672
0,485395,13.598577499389648,18.982282638549805,33.14299011230469,-10.566943168640137
0,485395,0.6696222424507141,-16.19768714904785,-6.755748748779297,-16.731754302978516
0,485395,-7.056870460510254,-9.766035079956055,-23.42137336730957,-3.3176515102386475
0,485396,18.89412498474121,14.811807632446289,4.134723663330078,12.179691314697266
0,485396,-27.418243408203125,1.376798152923584,10.474265098571777,6.073882102966309
0,485396,-3.324148416519165,-6.887883186340332,4.996315002441406,-4.054432392120361
0,485396,37.36434555053711,-1.5571773052215576,-4.742449760437012,-8.838041305541992
0,485396,-21.218299865722656,-6.098119735717773,16.858976364135742,3.1576309204101562
0,485396,-16.803394317626953,19.741954803466797,-8.395242691040039,-13.080644607543945
0,485397,19.958417892456055,-3.2321949005126953,-30.348018646240234,-5.673370361328125
0,485397,-13.98151969909668,-31.6733341217041,8.265434265136719,34.24860382080078
0,485397,-22.558055877685547,-3.3108179569244385,21.992496490478516,8.103706359863281
0,485398,7.805097579956055,18.855955123901367,14.782139778137207,-23.937217712402344
0,485398,8.582531929016113,8.164081573486328,-17.4374942779541,-19.67882537841797
0,485399,3.3333981037139893,-10.013901710510254,-5.212517738342285,19.563159942626953
0,485399,11.59195613861084,19.098268508911133,11.22923755645752,14.923789024353027
0,485399,-9.278691291809082,-5.5224480628967285,-19.409425735473633,-9.597610473632812
0,485399,-4.157891750335693,-19.734954833984375,-5.849610805511475,5.4476518630981445
0,485400,-2.4824886322021484,17.80780029296875,-1.8769694566726685,-28.810861587524414
0,485402,-0.5621291399002075,1.5218496322631836,-2.858710527420044,-32.61582565307617
0,485404,24.80229949951172,3.9831883907318115,2.316633701324463,-16.470033645629883
0,485406,-23.90058135986328,-20.764768600463867,-9.600967407226562,-14.581680297851562
0,485408,-2.186685562133789,-20.23406410217285,-12.549643516540527,-13.019234657287598
0,485410,10.256573677062988,4.217207431793213,-1.8974801301956177,-18.536895751953125
0,485412,-23.20454216003418,-22.56107521057129,36.51706314086914,67.31426239013672
0,485414,20.2427978515625,7.501071453094482,37.325408935546875,75.96905517578125
0,485416,13.44997787475586,22.737585067749023,3.7726805210113525,22.83233642578125
0,485418,-4.357064723968506,22.28080177307129,-14.726032257080078,24.04119110107422
0,485420,10.230233192443848,27.124740600585938,0.22452591359615326,10.727943420410156
0,485422,-1.82854163646698,-25.336009979248047,-9.285384178161621,-24.859134674072266
0,485424,-26.430644989013672,-14.315336227416992,-25.31853485107422,-83.71727752685547
0,485426,-11.303993225097656,17.864940643310547,20.659271240234375,-32.92784881591797
0,485428,35.58246612548828,-17.151519775390625,-18.961227416992188,4.451018333435059
0,485430,5.8933234214782715,-20.707876205444336,-49.697750091552734,-28.90959358215332
0,485432,-20.95928192138672,-7.164973258972168,23.302352905273438,68.85871124267578
0,485434,9.832465171813965,-3.7155697345733643,24.775283813476562,52.185726165771484
0,485437,-11.612513542175293,12.031189918518066,26.49971580505371,-30.286306381225586
0,485438,-15.235420227050781,9.16422176361084,18.560894012451172,28.351964950561523
0,485441,23.946672439575195,41.047523498535156,-21.94082260131836,-6.81971549987793
0,485442,16.791820526123047,39.76942443847656,-2.1689109802246094,-37.3416862487793
0,485443,-14.290441513061523,-40.397865295410156,6.216510772705078,1.7859878540039062
0,485586,-13.325794219970703,-26.44984245300293,13.002333641052246,-18.33704948425293
0,485586,17.38167953491211,21.587074279785156,-3.565875291824341,-1.0028351545333862
0,485586,21.109426498413086,13.721125602722168,-23.15272331237793,17.252445220947266
0,485586,-30.35202980041504,-7.197265148162842,-10.210854530334473,-26.55847930908203
0,485586,-30.442785263061523,-24.0955753326416,-5.342566967010498,-20.206005096435547
0,485587,24.8800106048584,-4.1276679039001465,0.820431649684906,-20.84609031677246
0,485587,20.34869956970215,0.9264846444129944,-11.37622356414795,-32.966094970703125
0,485587,-6.031108856201172,-29.537446975708008,-3.330254077911377,18.659128189086914
0,485587,-7.312191963195801,-16.178688049316406,10.520320892333984,43.51328659057617
0,485587,-7.6715216636657715,13.671842575073242,3.1916890144348145,39.40631866455078
0,485588,5.93998908996582,3.636744737625122,4.726963043212891,34.68443298339844
0,485588,-0.12250807136297226,3.8617401123046875,-0.5676438808441162,-4.740019798278809
0,485588,-21.650306701660156,16.798742294311523,7.758793354034424,-11.570096015930176
0,485588,19.094621658325195,10.393580436706543,10.204422950744629,-14.837847709655762
0,485588,20.828388214111328,0.27478811144828796,-8.247331619262695,-27.593053817749023
0,485588,-24.683958053588867,-12.687044143676758,-11.411468505859375,-1.3806813955307007
0,485589,-12.509160995483398,-14.447604179382324,0.638588011264801,-6.439122200012207
0,485589,7.8296284675598145,-4.7598795890808105,11.641692161560059,-4.613320827484131
0,485589,18.32355308532715,4.217977046966553,3.0703585147857666,22.566314697265625
0,485589,3.3113675117492676,12.60427188873291,-4.715681076049805,30.615488052368164
0,485589,-27.39425277709961,9.014430046081543,11.64506721496582,26.475669860839844
0,485589,11.22736644744873,13.973814964294434,5.467186450958252,7.245418071746826
0,485590,26.36764144897461,3.6466166973114014,-6.453220367431641,-20.51756477355957
0,485590,-22.747228622436523,-6.118838310241699,-10.677802085876465,-20.148338317871094
0,485590,-0.8347674012184143,-10.626343727111816,-15.619247436523438,0.7861111760139465
0,485590,19.505285263061523,-15.415776252746582,15.316064834594727,-0.5556517839431763
0,485590,-2.9666874408721924,1.1672261953353882,8.20974349975586,-15.450523376464844
0,485591,-15.925764083862305,1.193238377571106,-26.394716262817383,-2.592689275741577
0,485591,-12.82038688659668,1.20610773563385,-5.923985481262207,12.680157661437988
0,485591,23.35606575012207,-7.138442039489746,19.719318389892578,17.324140548706055
0,485591,8.214082717895508,-3.8400254249572754,14.800485610961914,17.635528564453125
0,485591,-27.870492935180664,13.787924766540527,4.948415279388428,-0.6370802521705627
0,485591,12.794290542602539,5.859530448913574,-4.313949108123779,-21.19117546081543
0,485592,21.076993942260742,9.78192138671875,-6.721036434173584,-6.29290246963501
0,485592,-34.43852996826172,0.46537917852401733,4.547130107879639,5.95988130569458
0,485592,0.10383141785860062,0.9785012602806091,3.3185818195343018,-11.852601051330566
0,485592,31.680030822753906,8.777082443237305,-18.166851043701172,-17.249597549438477
0,485592,-21.781551361083984,-24.227062225341797,4.141455173492432,5.111427307128906
0,485592,5.036458492279053,-7.936341285705566,15.397150039672852,16.86650848388672
0,485593,9.708440780639648,10.28850269317627,-10.842677116394043,-1.3445096015930176
0,485593,-17.137765884399414,2.713804244995117,-5.360062599182129,14.483739852905273
0,485593,8.743138313293457,-7.143214225769043,-6.560354232788086,7.2595438957214355
0,485593,-15.734978675842285,2.288839101791382,12.567611694335938,-15.26650619506836
0,485593,-3.2533457279205322,32.6509895324707,22.795612335205078,4.704133987426758
0,485593,24.926198959350586,-4.315101623535156,-13.427974700927734,0.1438368409872055
0,485594,-20.462282180786133,-18.73094940185547,-19.21369743347168,-14.856072425842285
0,485594,-18.207191467285156,-1.3979824781417847,2.8978397846221924,-10.898311614990234
0,485594,29.436288833618164,-16.351768493652344,10.313053131103516,5.8443193435668945
0,485594,0.27339521050453186,8.436200141906738,8.42978572845459,24.75275421142578
0,485594,-3.972057342529297,35.762733459472656,0.7965354919433594,-9.931007385253906
0,485594,25.44615364074707,-3.7021937370300293,6.312711715698242,-20.80075454711914
0,485595,4.339651584625244,-37.57276916503906,-12.084847450256348,30.77976417541504
0,485595,-10.229179382324219,-1.9368888139724731,-18.698143005371094,17.812740325927734
0,485595,-6.986326217651367,38.07012939453125,19.207263946533203,-24.020675659179688
0,485595,-7.163694858551025,3.2577247619628906,2.9272940158843994,-18.853530883789062
0,485595,-10.547796249389648,-32.59886932373047,-24.101367950439453,-1.7773864269256592
0,485595,3.4904584884643555,-15.805229187011719,-6.564778804779053,-9.322214126586914
0,485596,3.4241220951080322,15.796969413757324,22.323976516723633,-1.0288513898849487
0,485596,11.534950256347656,18.960052490234375,7.932541847229004,24.25966453552246
0,485596,-0.8855315446853638,-7.487258434295654,-20.061893463134766,-14.815828323364258
0,485596,-26.136598587036133,-19.723108291625977,-0.5971294045448303,-5.562435150146484
0,485596,9.80122184753418,2.9707300662994385,4.791037559509277,33.000099182128906
0,485596,-2.296698570251465,14.778789520263672,-23.296302795410156,-14.004063606262207
0,485597,-9.46216869354248,-10.717000961303711,11.820535659790039,-9.370322227478027
0,485597,22.89180564880371,-8.326956748962402,21.63105010986328,16.751346588134766
0,485597,-6.422610282897949,20.50884437561035,-21.13985252380371,-23.31678009033203
0,485597,0.07480127364397049,2.413956642150879,-19.040145874023438,-20.298952102661133
0,485597,-3.654442310333252,-13.459090232849121,5.956466197967529,23.62176513671875
0,485597,-12.268120765686035,15.09278392791748,23.510955810546875,11.239877700805664
0,485598,16.888050079345703,2.728309392929077,-2.9959716796875,0.33537450432777405
0,485598,-8.503822326660156,-5.722550868988037,0.5918251276016235,-6.01970100402832
0,485599,5.6899003982543945,3.5600626468658447,29.579063415527344,-10.915426254272461
0,485599,28.81101417541504,-3.4499998092651367,12.239212989807129,23.755834579467773
0,485599,-22.84500503540039,-5.506539344787598,-30.48267936706543,9.339564323425293
0,485600,-23.547822952270508,-3.287419319152832,-8.892168998718262,-12.893806457519531
0,485600,21.94392967224121,24.116558074951172,33.00160217285156,-4.663280963897705
0,485600,8.230113983154297,11.987353324890137,-6.69069766998291,-12.726287841796875
0,485601,-14.181516647338867,-24.925092697143555,-34.5611572265625,-32.27317810058594
0,485601,-11.727987289428711,-10.507230758666992,-8.083630561828613,-23.603899002075195
0,485604,18.65131187438965,15.541315078735352,33.91952896118164,1.1153082847595215
0,485605,9.837533950805664,-11.554094314575195,13.290610313415527,-20.700899124145508
0,485608,-15.19944953918457,-45.81947708129883,-64.19804382324219,-31.28373908996582
0,485610,-3.487581491470337,2.8930952548980713,-24.75531578063965,6.263735771179199
0,485612,-0.8724299073219299,4.289633750915527,38.76719284057617,61.36705017089844
0,485614,23.580703735351562,-17.236352920532227,-2.120513916015625,57.54151916503906
0,485616,11.124635696411133,37.288700103759766,22.723840713500977,19.94816780090332
0,485618,-7.637925148010254,44.37209701538086,53.41151809692383,75.7540283203125
0,485620,-7.466482639312744,5.906818389892578,-7.5806193351745605,23.95954132080078
0,485622,-8.831039428710938,-7.961827278137207,-40.79466247558594,-101.44769287109375
0,485624,-11.261255264282227,-14.015314102172852,-22.82634925842285,-60.603397369384766
0,485626,-4.649664402008057,-19.87415313720703,6.49860143661499,-12.58163833618164
0,485628,20.529573440551758,16.532554626464844,24.272275924682617,-19.63320541381836
0,485630,2.8060550689697266,7.647524356842041,28.0595703125,2.812487840652466
0,485632,-14.015029907226562,-36.52427291870117,-17.468395233154297,60.439361572265625
0,485634,2.4157674312591553,-0.4715539813041687,-42.80028533935547,13.956657409667969
0,485637,-3.8566384315490723,8.32828140258789,12.16943645477295,2.4986729621887207
0,485638,4.210597991943359,-9.324198722839355,22.7774658203125,57.2760124206543
0,485641,5.5256123542785645,28.402435302734375,-25.635921478271484,-38.845890045166016
0,485642,-34.86064147949219,15.499881744384766,-35.72708511352539,-64.9670639038086
0,485645,11.892873764038086,-12.724740028381348,25.61896324157715,19.630352020263672
0,485646,38.43223571777344,4.6369829177856445,51.63319396972656,20.785852432250977
0,485797,-0.7429609894752502,-24.950963973999023,-4.301756858825684,58.701393127441406
0,485797,0.4183506965637207,-5.76478385925293,-32.71221923828125,52.9209098815918
0,485797,-17.229833602905273,40.35209274291992,-15.636336326599121,-75.6214828491211
0,485798,-28.026691436767578,-10.175786018371582,3.096545696258545,-70.52178192138672
0,485798,-0.24971607327461243,-30.27029800415039,18.541135787963867,-22.20897102355957
0,485798,9.447047233581543,-6.296825408935547,-7.636409759521484,-16.452585220336914
0,485798,-5.207741737365723,-13.012124061584473,-24.246152877807617,22.7927303314209
0,485798,-14.809281349182129,-18.221900939941406,14.009971618652344,43.091453552246094
0,485798,0.3085865378379822,6.626957416534424,14.430757522583008,19.119850158691406
0,485799,15.813425064086914,23.566516876220703,-4.7683587074279785,10.779317855834961
0,485799,1.2535673379898071,30.476003646850586,0.23222213983535767,10.460521697998047
0,485799,2.0052576065063477,14.903809547424316,15.083580017089844,-22.029172897338867
0,485799,22.69959831237793,-1.358888030052185,17.115184783935547,-19.672325134277344
0,485799,2.968555450439453,9.205571174621582,-1.9847208261489868,-17.575410842895508
0,485800,-0.3320617377758026,-12.661864280700684,-7.3928656578063965,-17.299602508544922
0,485800,29.510557174682617,-13.052327156066895,-8.070192337036133,11.495262145996094
0,485800,-10.57524299621582,12.282791137695312,9.914852142333984,3.5377955436706543
0,485800,-22.564716339111328,5.677343368530273,9.385233879089355,2.406954526901245
0,485800,24.556745529174805,-19.739368438720703,-10.51009464263916,20.519405364990234
0,485800,10.98715877532959,6.646480560302734,10.275808334350586,10.032661437988281
0,485801,-11.597261428833008,19.74250602722168,-1.5627330541610718,-1.71332585811615
0,485801,-8.433024406433105,-3.9766087532043457,-9.439180374145508,-9.831647872924805
0,485801,-2.2111101150512695,9.517133712768555,9.702404022216797,-33.649417877197266
0,485801,-6.397751331329346,-24.679216384887695,-14.725341796875,-25.513713836669922
0,485801,-20.17540168762207,-22.67990493774414,-10.487361907958984,3.9175150394439697
0,485801,-2.365302324295044,18.373884201049805,12.385693550109863,2.686739206314087
0,485802,19.362468719482422,-16.687074661254883,1.8103545904159546,16.576614379882812
0,485802,15.08952808380127,-14.88524341583252,-3.4478561878204346,12.265353202819824
0,485802,-13.36126708984375,27.210643768310547,-19.02604866027832,-0.022590884938836098
0,485802,-31.317893981933594,7.075167179107666,2.425166606903076,28.250022888183594
0,485802,-6.352057933807373,1.745232105255127,15.676671028137207,10.897369384765625
0,485802,22.38121795654297,14.296095848083496,-14.220579147338867,-15.323616981506348
0,485803,10.29994010925293,-11.200847625732422,-8.734950065612793,-3.9747369289398193
0,485803,-14.24215316772461,-23.302242279052734,-3.5696628093719482,-12.476713180541992
0,485803,-7.906844139099121,-13.979912757873535,7.510100364685059,-7.653316020965576
0,485803,6.888468265533447,16.766538619995117,14.070708274841309,13.502447128295898
0,485803,19.25887107849121,29.73653793334961,5.305729866027832,19.16445541381836
0,485803,16.006465911865234,-11.171626091003418,0.8016561269760132,5.480474472045898
0,485804,-4.369570732116699,-15.499528884887695,-7.347323417663574,-6.131925582885742
0,485804,-8.503988265991211,16.360095977783203,-16.221540451049805,-8.346784591674805
0,485804,-4.1432623863220215,2.121656656265259,-6.827059745788574,-3.5703601837158203
0,485804,0.27376022934913635,-8.20576286315918,-2.1126701831817627,-0.4779832065105438
0,485804,-6.6717753410339355,-10.315300941467285,-6.00924015045166,-13.853004455566406
0,485804,-16.736034393310547,-25.75586700439453,23.225801467895508,4.604612827301025
0,485805,22.928800582885742,6.828282356262207,6.060919284820557,-2.635202407836914
0,485805,18.515399932861328,19.2631778717041,-17.08441925048828,-19.039682388305664
0,485805,-34.26700210571289,1.2696521282196045,11.94318675994873,13.549507141113281
0,485805,-19.36908721923828,11.473488807678223,10.403846740722656,12.52844524383545
0,485805,7.368941783905029,-19.13906478881836,-9.727418899536133,-15.937677383422852
0,485805,8.657668113708496,-20.929805755615234,-8.746602058410645,-18.891536712646484
0,485806,-1.7551474571228027,10.026500701904297,18.724946975708008,11.513222694396973
0,485806,-7.851665496826172,16.734176635742188,4.429922580718994,9.575652122497559
0,485806,9.707977294921875,7.6577043533325195,2.4618287086486816,-7.52984619140625
0,485806,20.277366638183594,-3.914593458175659,13.171708106994629,4.933287620544434
0,485806,-8.783712387084961,8.506226539611816,-16.546785354614258,-3.779716730117798
0,485807,-6.322888374328613,-6.1647844314575195,-19.74344825744629,3.2239766120910645
0,485807,12.240825653076172,-17.556791305541992,-1.846107840538025,5.150106906890869
0,485807,1.6211367845535278,9.869980812072754,12.644198417663574,-6.791257381439209
0,485807,8.439665794372559,21.128395080566406,2.5687475204467773,-0.1878044456243515
0,485807,-10.69593620300293,-8.115978240966797,-1.051049828529358,-7.692385673522949
0,485807,-11.499292373657227,-10.912572860717773,-11.825139045715332,-0.10162516683340073
0,485808,0.8219095468521118,9.844806671142578,-7.71398401260376,14.34270191192627
0,485808,2.4738497734069824,9.378775596618652,30.734424591064453,-1.428438425064087
0,485808,24.04778480529785,-2.5245659351348877,6.13998556137085,-6.452268123626709
0,485808,0.24205942451953888,-19.04488754272461,-30.550535202026367,15.49533748626709
0,485808,-11.672751426696777,-13.470766067504883,14.913848876953125,15.629400253295898
0,485808,7.79015588760376,7.313393592834473,4.2851996421813965,-14.089509010314941
0,485809,-16.325992584228516,10.136059761047363,-20.72718620300293,-5.377909183502197
0,485809,-10.093934059143066,-7.446027755737305,27.736248016357422,26.63617515563965
0,485809,4.427615642547607,4.596924781799316,7.4363322257995605,2.0331153869628906
0,485809,-10.089262008666992,9.774184226989746,-28.242523193359375,-9.116435050964355
0,485809,13.239463806152344,-21.41768455505371,-7.5960845947265625,3.773106336593628
0,485809,5.348962306976318,-11.800917625427246,22.193620681762695,-11.969518661499023
0,485810,-21.86787223815918,30.408601760864258,22.727298736572266,0.8624442219734192
0,485810,12.912504196166992,27.816814422607422,-17.445636749267578,3.1049001216888428
0,485811,0.30004721879959106,-48.952430725097656,-40.255393981933594,13.670077323913574
0,485811,-25.74812126159668,-37.76464080810547,-20.246196746826172,42.279815673828125
0,485811,22.007949829101562,28.449954986572266,23.711912155151367,-3.012800931930542
0,485812,14.870330810546875,5.714674949645996,19.743633270263672,-23.32692527770996
0,485812,-14.335250854492188,6.400054454803467,-2.2128427028656006,-0.36603862047195435
0,485812,-3.3396480083465576,11.405909538269043,8.730720520019531,9.20683765411377
0,485812,3.8723745346069336,-5.9928693771362305,-11.51031494140625,-1.3589792251586914
0,485813,5.260614395141602,6.104341983795166,4.370124816894531,-5.52562952041626
0,485813,13.221772193908691,17.58946418762207,16.14864158630371,16.52930450439453
0,485816,13.919820785522461,32.84066390991211,17.388389587402344,6.252566337585449
0,485818,-9.308320999145508,12.14643383026123,27.669065475463867,18.375558853149414
0,485820,-19.971872329711914,-19.681760787963867,-19.43213653564453,-42.209476470947266
0,485822,-3.044501781463623,18.00726318359375,-29.666654586791992,-54.13957214355469
0,485824,20.106473922729492,-5.148619651794434,-1.9663118124008179,2.9697301387786865
0,485826,25.866474151611328,-40.14078903198242,-7.495495319366455,-63.023799896240234
0,485828,-18.40251922607422,-23.11934471130371,-31.47037124633789,-43.83062744140625
0,485830,-33.21463394165039,-23.431026458740234,-4.627089500427246,45.03256607055664
0,485832,5.03872537612915,20.723087310791016,37.605995178222656,68.75565338134766
0,485834,-4.325311660766602,-3.8210031986236572,0.6074923276901245,29.093482971191406
0,485836,9.864567756652832,-14.431184768676758,-15.546993255615234,41.20390319824219
0,485838,-2.9026777744293213,39.76761245727539,17.023096084594727,35.39884567260742
0,485840,-34.50737762451172,-0.6211417317390442,-5.0856523513793945,-79.27761840820312
0,485842,22.33954429626465,0.012143281288444996,4.052604675292969,-61.021358489990234
0,485844,37.62054443359375,29.927305221557617,31.861173629760742,38.32477951049805
0,485846,-14.36756420135498,-17.20191192626953,-13.57406234741211,-5.212059497833252
0,485848,-16.632522583007812,-50.593597412109375,-27.869518280029297,-52.62283706665039
0,485850,19.173934936523438,-6.397806644439697,26.375839233398438,2.631241798400879
0,485852,-16.582731246948242,13.870134353637695,-16.096982955932617,61.43368148803711
0,485854,-13.519882202148438,-13.083087921142578,-60.81211853027344,25.502676010131836
0,485857,44.422447204589844,50.692440032958984,65.98526763916016,-9.800332069396973
0,485858,27.975324630737305,47.488365173339844,63.43708419799805,37.3725700378418
0,485861,-34.90537643432617,-33.60902404785156,-76.22352600097656,-24.603614807128906
1,486022,-38.827518463134766,-24.900928497314453,-29.57183837890625,-54.022315979003906
1,486022,25.025564193725586,-8.625309944152832,46.06938552856445,36.9593391418457
1,486022,8.611162185668945,12.484227180480957,-7.983974456787109,39.0742073059082
1,486023,-21.512901306152344,15.102316856384277,-7.5930633544921875,-1.9786111116409302
1,486023,12.434652328491211,19.745166778564453,17.046754837036133,-27.974916458129883
1,486023,4.51685094833374,-6.824620246887207,-14.4276704788208,-30.604637145996094
1,486023,-23.05707550048828,-41.828670501708984,-7.991893291473389,-36.005096435546875
1,486023,7.6111650466918945,4.637874126434326,-3.115506172180176,-43.94496154785156
1,486023,14.886588096618652,5.571316242218018,-12.71225357055664,14.585965156555176
1,486024,-8.59915542602539,-11.344321250915527,18.043193817138672,40.4676513671875
1,486024,5.797514915466309,-4.11086368560791,15.804753303527832,21.29615020751953
1,486024,2.0298361778259277,-0.25283247232437134,-8.561156272888184,18.23235511779785
1,486024,-0.5465564131736755,8.19591999053955,6.816896915435791,16.541074752807617
1,486024,6.55626916885376,14.687968254089355,4.258317470550537,-0.3250041902065277
1,486025,0.15825733542442322,17.87021827697754,0.08295537531375885,-13.08248233795166
1,486025,-6.458950996398926,-9.63810920715332,-3.606611967086792,8.700892448425293
1,486025,-6.914638996124268,-26.259870529174805,-3.701077461242676,-17.937559127807617
1,486025,1.8496298789978027,3.348438024520874,-1.4882045984268188,-39.904701232910156
1,486025,-13.1616792678833,9.488812446594238,-18.915359497070312,4.885494232177734
1,486025,-23.869747161865234,-14.424756050109863,-1.4738843441009521,4.957879066467285
1,486026,17.704269409179688,-15.977100372314453,18.19237518310547,8.04166316986084
1,486026,30.417461395263672,-5.625763893127441,4.008742332458496,28.835418701171875
1,486026,-15.849583625793457,8.289591789245605,-14.378188133239746,5.167142391204834
1,486026,1.8537384271621704,17.030059814453125,13.354974746704102,4.156280040740967
1,486026,22.497787475585938,14.043176651000977,19.742835998535156,1.7378352880477905
1,486026,-12.759818077087402,-6.806848526000977,-26.63424301147461,-25.901493072509766
1,486027,-5.833677768707275,-1.128841757774353,-13.793898582458496,-27.647424697875977
1,486027,3.928112268447876,3.4086790084838867,12.635746955871582,-13.177877426147461
1,486027,-14.433518409729004,-38.211219787597656,-13.001235008239746,19.046979904174805
1,486027,-4.564579486846924,-7.014023303985596,-0.3717210590839386,12.327610969543457
1,486027,19.115222930908203,35.77230453491211,31.161039352416992,-20.74535369873047
1,486027,-9.0556001663208,-5.876246929168701,-17.05901336669922,22.03972053527832
1,486028,-11.88585090637207,-1.6696619987487793,-11.109872817993164,30.216310501098633
1,486028,22.583478927612305,14.746651649475098,17.691375732421875,-4.224732875823975
1,486028,-4.895858287811279,-4.008284091949463,-26.20580291748047,-3.0643205642700195
1,486028,-13.77276611328125,25.009519577026367,11.862528800964355,-7.131417751312256
1,486028,9.129399299621582,-1.2044163942337036,36.83621597290039,-3.2902750968933105
1,486028,5.199243068695068,-38.11034393310547,-16.517908096313477,1.0470974445343018
1,486029,1.7727313041687012,-9.46862506866455,-12.594137191772461,5.810249328613281
1,486029,0.8871929049491882,16.65363121032715,4.369080543518066,11.407862663269043
1,486029,0.43117862939834595,26.361539840698242,13.12100601196289,9.468629837036133
1,486029,-0.8009551763534546,-8.110007286071777,6.950373649597168,-5.852542877197266
1,486029,-9.316961288452148,-17.90889549255371,-20.35262680053711,-6.9205002784729
1,486029,-4.689762592315674,4.214059352874756,-3.4331068992614746,20.263032913208008
1,486030,6.21061372756958,9.37948226928711,17.339815139770508,7.651095867156982
1,486030,-3.5592052936553955,-1.035905122756958,8.640097618103027,-5.227250099182129
1,486030,-0.3422575891017914,-2.5121097564697266,2.030118465423584,2.642042875289917
1,486030,21.14952278137207,5.050156116485596,-6.077605247497559,-18.115707397460938
1,486030,-3.2707149982452393,-9.763134956359863,-19.630451202392578,-8.183030128479004
1,486031,-1.145271897315979,7.6028733253479,5.171350479125977,5.34537410736084
1,486031,23.890094757080078,21.892078399658203,22.26795768737793,2.075723648071289
1,486031,-22.656190872192383,-8.57861328125,-20.02834701538086,7.316617488861084
1,486031,-17.140552520751953,-36.02924728393555,-17.04378890991211,-3.2298688888549805
1,486031,25.940134048461914,1.140378713607788,19.766990661621094,1.0654860734939575
1,486031,-2.660149574279785,27.876890182495117,-14.01650333404541,-6.260467529296875
1,486032,-16.59423828125,-11.30773639678955,-17.6641788482666,-14.02190113067627
1,486032,-2.9372715950012207,-25.985576629638672,6.256587028503418,-8.318015098571777
1,486032,-9.283522605895996,5.434622764587402,-5.265086650848389,-2.838362455368042
1,486032,-4.7797112464904785,32.77859115600586,21.52785301208496,2.556166887283325
1,486032,20.840364456176758,-17.5933780670166,-5.077571392059326,-16.265207290649414
1,486032,1.2794228792190552,-17.332500457763672,-14.771992683410645,9.956326484680176
1,486033,-30.172115325927734,29.55510711669922,34.42707443237305,18.64421272277832
1,486033,5.533791542053223,2.311505079269409,5.833923816680908,-18.24207878112793
1,486033,19.683679580688477,-21.790809631347656,-10.895331382751465,-2.67143177986145
1,486033,3.952873706817627,2.683198928833008,-16.482452392578125,4.508040904998779
1,486033,-7.357173442840576,18.60179901123047,-18.20128059387207,1.5485320091247559
1,486033,-11.301776885986328,7.275317668914795,25.576364517211914,1.5565714836120605
1,486034,13.790987014770508,-5.004082202911377,26.511363983154297,-11.440632820129395
1,486034,10.23669719696045,-0.2647414207458496,-15.88158130645752,4.180169105529785
1,486034,-10.86361026763916,12.19459342956543,-8.090781211853027,16.28252410888672
1,486034,7.241482734680176,-8.833751678466797,14.792616844177246,6.897824764251709
1,486034,3.671552896499634,-19.001066207885742,-2.6901395320892334,16.020627975463867
1,486034,-4.817131042480469,5.682495594024658,-0.8190627694129944,3.1498913764953613
1,486035,18.629159927368164,7.100869178771973,-4.069795608520508,-5.658370494842529
1,486035,-13.803483009338379,-4.973414421081543,-8.189607620239258,8.481130599975586
1,486035,-35.047969818115234,15.165083885192871,30.64655303955078,4.002070426940918
1,486035,19.83439064025879,1.4078369140625,15.044169425964355,1.1755870580673218
1,486035,22.176881790161133,-9.24682903289795,-32.16054916381836,-24.524330139160156
1,486035,0.17030861973762512,6.642765522003174,-19.50395393371582,-24.89132308959961
1,486036,-1.0776227712631226,-9.121546745300293,4.642532825469971,18.005672454833984
1,486036,-13.615479469299316,-8.126801490783691,7.9008049964904785,4.251597881317139
1,486037,-9.664051055908203,8.796141624450684,-6.0625505447387695,40.28182601928711
1,486037,-3.074829578399658,0.068914495408535,-13.579057693481445,69.01787567138672
1,486037,8.870644569396973,4.173751354217529,-3.808391809463501,-43.33858871459961
1,486037,8.19192886352539,-2.342196464538574,8.378223419189453,-42.69700241088867
1,486038,2.4453766345977783,-15.569830894470215,2.8665478229522705,11.959693908691406
1,486038,-5.067211151123047,5.631936550140381,-5.285165309906006,-22.009170532226562
1,486038,-2.8642072677612305,-7.470722198486328,11.211276054382324,2.0012362003326416
1,486039,7.332599639892578,14.391250610351562,-4.5781121253967285,16.199222564697266
1,486039,-8.77840518951416,27.5994930267334,-16.665361404418945,-28.9608154296875
1,486042,-6.679337501525879,-19.35211944580078,-1.5933564901351929,-95.66255187988281
1,486043,-14.458803176879883,-2.535170555114746,1.9083770513534546,-81.6581802368164
1,486046,-28.20989418029785,-5.078248977661133,36.71348571777344,28.57768440246582
1,486048,35.691566467285156,-26.77922248840332,-1.407551884651184,18.224756240844727
1,486050,39.57481384277344,2.066297769546509,-47.734642028808594,4.019781589508057
1,486052,-11.738432884216309,-6.350607395172119,4.709115028381348,59.996089935302734
1,486054,-5.86303186416626,-14.877519607543945,31.191173553466797,70.20011901855469
1,486056,-1.3059128522872925,23.907487869262695,23.564376831054688,50.2086067199707
1,486058,2.2526533603668213,23.35895538330078,-19.529813766479492,22.80999755859375
1,486060,-4.598470211029053,9.210644721984863,-19.20254898071289,-3.4194984436035156
1,486062,4.04361629486084,22.5723876953125,14.021706581115723,-65.16175842285156
1,486064,3.782846212387085,-17.6484432220459,-4.746534824371338,-56.78123474121094
1,486066,-32.831966400146484,-45.04341506958008,-17.892107009887695,26.81812286376953
1,486068,1.3853480815887451,-0.9738511443138123,-1.1332608461380005,3.682001829147339
1,486070,40.84148406982422,18.96171760559082,23.472488403320312,-46.092567443847656
1,486072,-25.91718101501465,-2.47965407371521,5.3329033851623535,14.531909942626953
1,486074,-34.51697540283203,-3.0660104751586914,4.431102752685547,58.92586898803711
1,486076,40.62305450439453,15.685439109802246,17.900789260864258,24.524375915527344
1,486078,26.469738006591797,13.020909309387207,13.488880157470703,5.116054058074951
1,486080,-22.719697952270508,5.307819366455078,-13.947622299194336,-5.098750114440918
1,487568,-21.694976806640625,-47.22053527832031,-60.82179641723633,-91.06381225585938
1,487570,6.37904167175293,-57.1393928527832,0.3094611167907715,-13.919333457946777
1,487572,24.60348892211914,51.734161376953125,45.256072998046875,134.5731964111328
1,487574,7.689316749572754,89.84718322753906,14.806611061096191,28.372230529785156
1,487576,-12.356178283691406,25.51673126220703,7.877519130706787,-21.035051345825195
1,487578,-16.582569122314453,-31.270925521850586,-26.180253982543945,-36.14604949951172
1,487580,-3.187478542327881,-47.703853607177734,-38.820587158203125,-86.0206527709961
1,487590,8.325214385986328,-46.055484771728516,-23.68467903137207,-64.88359069824219
1,487590,-9.572104454040527,-13.823420524597168,7.842629909515381,-11.81425952911377
1,487590,-15.71451473236084,21.379793167114258,34.30226516723633,61.4286003112793
1,487590,34.503814697265625,10.242810249328613,7.2648024559021,42.24215316772461
1,487591,13.236546516418457,4.1572699546813965,11.860694885253906,38.68189239501953
1,487592,-31.61439323425293,17.10073471069336,15.992203712463379,32.48357009887695
1,487593,12.853660583496094,12.54549503326416,-13.808431625366211,-17.274255752563477
1,487596,12.735611915588379,3.922184944152832,-0.9827477931976318,19.337221145629883
1,487597,-9.737359046936035,13.221542358398438,3.7633883953094482,25.234407424926758
1,487600,-14.929718971252441,20.85527992248535,-7.279886722564697,-93.25535583496094
1,487601,-2.163459300994873,1.8155992031097412,-12.356197357177734,-78.79303741455078
1,487604,10.52292251586914,-33.25051498413086,-30.150489807128906,18.849102020263672
1,487605,4.95363712310791,-22.832218170166016,-5.139866352081299,-12.645862579345703
1,487608,12.018287658691406,-11.493064880371094,48.08079147338867,13.705865859985352
1,487609,-4.1055474281311035,-22.98434829711914,28.701013565063477,59.725624084472656
1,487612,-17.101093292236328,19.880859375,-15.041191101074219,58.160404205322266
1,487634,-4.930379867553711,37.61595916748047,-7.910597801208496,41.351715087890625
1,487634,20.44121551513672,-13.115469932556152,-11.358097076416016,-39.05595016479492
1,487635,-3.042060375213623,-22.829008102416992,-8.703500747680664,-35.8426513671875
1,487635,-33.776302337646484,2.738938331604004,20.649503707885742,33.44490051269531
1,487635,21.568708419799805,2.2738234996795654,17.852502822875977,21.6156063079834
1,487635,28.84115982055664,3.494374990463257,-13.816424369812012,-11.534233093261719
1,487635,-8.643179893493652,12.956771850585938,-22.94571304321289,8.998311996459961
1,487635,-11.027040481567383,6.459794998168945,8.656454086303711,20.23659896850586
1,487636,-6.2621307373046875,12.809693336486816,19.014909744262695,-40.419525146484375
1,487636,22.262075424194336,0.21568261086940765,-19.79927635192871,-62.914772033691406
1,487636,1.1339168548583984,-32.41606521606445,-18.31972885131836,-10.870219230651855
1,487637,-16.836288452148438,7.6359357833862305,19.674734115600586,2.4958834648132324
1,487637,-1.622684359550476,14.871832847595215,-1.5382344722747803,-17.078205108642578
1,487640,-12.673643112182617,-16.20052146911621,-33.24209976196289,-61.357540130615234
1,487641,0.8812152743339539,6.213963508605957,-13.563562393188477,-47.442237854003906
1,487644,-1.426779866218567,-3.712345838546753,4.395407199859619,24.30910873413086
1,487645,-8.5504789352417,-18.36069107055664,-6.592072010040283,22.71367835998535
1,487648,0.9463536143302917,-15.010279655456543,8.729945182800293,41.38973617553711
1,487649,2.7544851303100586,-9.474740028381348,46.435543060302734,57.109886169433594
1,487652,16.832660675048828,27.363698959350586,43.47160339355469,21.406415939331055
1,487653,12.79399299621582,32.177574157714844,10.478164672851562,14.82694149017334
1,487656,0.6261523962020874,7.123530864715576,-41.401695251464844,22.4051456451416
1,487658,-16.48655891418457,-6.590736389160156,-36.2308235168457,0.15569663047790527
1,487660,-17.10671043395996,-15.868160247802734,-0.2483636438846588,-42.23366928100586
1,487662,31.10666275024414,10.421930313110352,-9.122773170471191,-27.89349365234375
1,487776,24.94959831237793,36.82793426513672,35.249942779541016,165.1859588623047
1,487777,-16.87196922302246,46.80478286743164,32.5601806640625,78.46969604492188
1,487777,-26.415088653564453,-45.83845138549805,-40.581153869628906,-166.06253051757812
1,487777,-3.198033094406128,-44.917236328125,-14.199352264404297,-39.554176330566406
1,487777,21.275650024414062,35.3470344543457,13.89014720916748,71.58049011230469
1,487777,1.1558406352996826,14.030777931213379,-12.296480178833008,8.563203811645508
1,487777,-24.03864860534668,-24.5704345703125,12.75533676147461,20.617355346679688
1,487778,5.860440731048584,-5.462518215179443,23.669950485229492,18.92129898071289
1,487778,-5.300946235656738,6.451998710632324,-23.378061294555664,-29.37356185913086
1,487778,-15.446383476257324,3.5359466075897217,-8.095767974853516,-37.87642288208008
1,487778,16.953657150268555,0.1984037309885025,15.77680778503418,-29.447330474853516
1,487778,15.553071975708008,-19.957368850708008,-33.53678512573242,-40.87975311279297
1,487778,-3.2765986919403076,-15.380315780639648,-30.861909866333008,-42.043479919433594
1,487779,-29.50194549560547,-17.304357528686523,28.976024627685547,6.760045051574707
1,487779,1.793440341949463,-0.17895099520683289,31.8326358795166,41.52281951904297
1,487779,55.34767150878906,35.99652099609375,-7.660671234130859,25.095460891723633
1,487779,6.85073184967041,-2.028677463531494,1.6525052785873413,33.989219665527344
1,487779,-18.82017707824707,-3.4651434421539307,17.269914627075195,34.57467269897461
1,487779,7.404163360595703,19.825103759765625,6.580628871917725,-5.415781021118164
1,487780,-15.283011436462402,-3.510103940963745,-13.452981948852539,-29.74464225769043
1,487780,-11.425640106201172,-7.511962890625,-30.225051879882812,-18.26535987854004
1,487780,21.54541778564453,-8.339512825012207,11.647099494934082,-8.341309547424316
1,487780,-1.686792254447937,-6.422214031219482,13.348095893859863,-3.4581174850463867
1,487780,-20.564733505249023,11.177451133728027,-7.665591239929199,2.3628008365631104
1,487782,-8.021557807922363,-23.58251190185547,16.261476516723633,-17.013980865478516
1,487782,-2.0260000228881836,-38.48553466796875,6.225994110107422,5.768631458282471
1,487782,18.633167266845703,15.656695365905762,1.080899715423584,43.62018966674805
1,487783,-5.980291366577148,-25.00282859802246,-24.141157150268555,-14.8898344039917
1,487786,-21.650531768798828,-40.202571868896484,-32.216915130615234,-57.97507095336914
1,487787,21.412569046020508,57.84406661987305,28.77236557006836,-4.787785530090332
1,487790,0.27879929542541504,60.15739822387695,34.59161376953125,62.6046028137207
1,487791,-1.7141880989074707,11.832250595092773,6.764777660369873,44.093936920166016
1,487794,4.363737106323242,17.390104293823242,1.8657255172729492,27.742406845092773
1,487795,0.6797125935554504,-3.8225293159484863,-2.915318727493286,36.16984558105469
1,487798,22.62974739074707,9.904905319213867,-16.404273986816406,-41.95252990722656
1,487800,-21.159677505493164,30.39964485168457,-16.241958618164062,-44.54024887084961
1,487802,-15.78542709350586,-14.755050659179688,-2.6510159969329834,-14.958992004394531
1,487804,9.605098724365234,-6.178068161010742,0.46791428327560425,-43.71292495727539
1,487861,20.919219970703125,-36.31867980957031,6.566614627838135,43.802738189697266
1,487861,22.414907455444336,-59.104766845703125,13.075296401977539,62.721641540527344
1,487861,-39.213706970214844,11.190352439880371,10.657793998718262,-60.759368896484375
1,487861,-31.718996047973633,7.034295082092285,-16.490907669067383,-54.92429733276367
1,487861,30.988908767700195,-22.082796096801758,-39.40692138671875,-7.168301105499268
1,487862,6.106819152832031,-11.943949699401855,0.7154892086982727,7.039768695831299
1,487862,-25.756765365600586,26.651201248168945,33.75726318359375,20.6613826751709
1,487862,26.92552375793457,23.559955596923828,-13.379061698913574,1.5168170928955078
1,487862,0.05685200169682503,-4.53912878036499,-6.013389587402344,39.12228012084961
1,487862,-21.742910385131836,36.147159576416016,38.72746276855469,42.754093170166016
1,487863,34.81451416015625,19.701208114624023,-8.925932884216309,-28.74942398071289
1,487863,7.430191993713379,-20.177629470825195,-28.352981567382812,-24.43816375732422
1,487863,-49.09711837768555,-21.0106201171875,3.4353408813476562,8.326409339904785
1,487863,-9.122903823852539,-18.172189712524414,-7.262801170349121,-18.41775131225586
1,487863,46.42124557495117,4.127035617828369,-13.975268363952637,-44.845481872558594
1,487863,-1.0102299451828003,3.332453489303589,10.309693336486816,-4.615529537200928
1,487864,-29.697832107543945,-13.21845817565918,7.5193986892700195,40.95966339111328
1,487864,4.294590473175049,16.067243576049805,6.449324131011963,26.200611114501953
1,487864,7.26275110244751,40.0551872253418,19.341794967651367,2.3677189350128174
1,487864,-4.494554042816162,-10.78870677947998,1.0691108703613281,-3.2971510887145996
1,487864,5.6991143226623535,-17.907928466796875,-12.936362266540527,-8.889518737792969
1,487864,16.211910247802734,16.826162338256836,-13.731945991516113,-8.870265007019043
1,487865,-9.270813941955566,-4.6583404541015625,3.712759017944336,-10.681541442871094
1,487865,-22.120206832885742,-7.799063682556152,-2.8860971927642822,-0.9715378880500793
1,487865,3.693105936050415,-6.473608493804932,-18.140121459960938,-1.8457365036010742
1,487865,15.924459457397461,-33.59941864013672,11.482685089111328,-16.604846954345703
1,487865,11.488019943237305,10.000201225280762,0.7782580852508545,8.273571968078613
1,487866,-8.670223236083984,40.849029541015625,-15.608877182006836,21.128698348999023
1,487867,-15.001387596130371,1.87762451171875,24.45882797241211,21.80750846862793
1,487867,17.399751663208008,16.787946701049805,32.96931838989258,11.635587692260742
1,487867,9.495596885681152,9.403329849243164,-5.337700843811035,-18.642311096191406
1,487868,-36.08645248413086,-21.53269386291504,-0.9052238464355469,25.06378173828125
1,487870,2.923215866088867,12.888863563537598,26.315082550048828,66.79829406738281
1,487872,42.51692199707031,42.35985565185547,27.128324508666992,-9.759374618530273
1,487874,-16.440670013427734,30.718109130859375,-4.871665000915527,-14.140826225280762
1,487876,-16.50383186340332,27.171920776367188,-17.407468795776367,54.34965515136719
1,487878,16.208477020263672,-23.123737335205078,-8.571473121643066,-18.323915481567383
1,487880,-17.04719352722168,-284.459228515625,-51.73291015625,-81.11963653564453
1,487882,2.0148544311523438,-288.2177734375,-32.98484420776367,-54.557220458984375
1,487885,18.89228630065918,216.83660888671875,17.15739631652832,-47.10006332397461
1,487886,-22.95624351501465,349.7087097167969,17.848480224609375,1.3352359533309937
1,487889,-9.004438400268555,44.36867141723633,11.786688804626465,32.873043060302734
1,487890,16.039709091186523,-74.80028533935547,-7.593226432800293,22.23228645324707
1,487893,0.4544674754142761,-84.7860336303711,4.258286952972412,28.503116607666016
1,487894,8.54377555847168,-3.5409727096557617,29.868921279907227,-12.672403335571289
1,487897,8.148309707641602,62.348785400390625,-14.590312004089355,27.172086715698242
1,487898,-8.538469314575195,3.3961174488067627,-50.69622802734375,48.557044982910156
1,487968,8.247775077819824,-161.2366180419922,-10.402301788330078,-115.94892120361328
1,487968,3.9496960639953613,-125.12017059326172,-1.0720062255859375,-51.70661926269531
1,487968,-16.07933807373047,175.1415252685547,22.162649154663086,127.29600524902344
1,487968,1.2316606044769287,80.34933471679688,30.062734603881836,16.092493057250977
1,487968,27.457775115966797,-79.79393768310547,-11.762980461120605,-58.38865280151367
1,487969,-11.953965187072754,-3.40263295173645,-0.354133665561676,-18.94550323486328
1,487969,-23.028446197509766,20.64931297302246,-1.7791438102722168,-28.6251163482666
1,487969,17.545751571655273,26.13500213623047,-7.1958184242248535,-7.2838592529296875
1,487969,-11.050893783569336,43.69392013549805,26.179141998291016,29.184770584106445
1,487969,-11.561758041381836,63.4628791809082,30.83844757080078,36.99692153930664
1,487969,13.713749885559082,42.82543182373047,6.414871692657471,25.019493103027344
1,487970,-14.699003219604492,11.274332046508789,-2.874171495437622,23.107297897338867
1,487970,-8.481688499450684,8.873779296875,3.1519453525543213,16.331281661987305
1,487970,29.59623908996582,-36.679656982421875,-5.1904988288879395,-18.52126693725586
1,487970,17.754487991333008,-85.72099304199219,-22.3787841796875,-26.0389404296875
1,487970,-11.194164276123047,-54.230918884277344,-30.864517211914062,-9.72557258605957
1,487970,-14.511981010437012,-15.62509536743164,-12.079364776611328,-7.086994647979736
1,487971,-7.412888050079346,13.67582893371582,22.174819946289062,-19.8134708404541
1,487971,-4.161646842956543,19.823768615722656,11.2835054397583,-8.23867130279541
1,487971,-1.3682407140731812,33.53976058959961,-4.794001579284668,20.664453506469727
1,487971,4.412128448486328,28.81988525390625,11.800847053527832,7.220930099487305
1,487971,14.133445739746094,-13.669150352478027,6.189062595367432,11.353947639465332
1,487971,-4.169658660888672,0.65232253074646,-9.498525619506836,24.747150421142578
1,487972,-21.620594024658203,-13.749823570251465,-14.940488815307617,5.225944519042969
1,487972,0.40694186091423035,-42.053489685058594,-5.212788105010986,-14.771805763244629
1,487972,1.3148884773254395,-22.898513793945312,4.763274669647217,-22.352815628051758
1,487972,3.3107635974884033,-24.22784996032715,1.1794251203536987,-1.0211272239685059
1,487972,12.014701843261719,-4.435125827789307,-0.29249173402786255,2.2174582481384277
1,487972,-3.3924386501312256,40.79497146606445,1.4047918319702148,-9.13530158996582
1,487973,7.650319576263428,34.72679138183594,17.95085906982422,-3.2912447452545166
1,487973,24.165109634399414,6.805564880371094,2.934403419494629,5.059228897094727
1,487973,-8.90367603302002,12.598215103149414,-13.792131423950195,15.210481643676758
1,487973,-25.326133728027344,-13.529356002807617,-1.1405524015426636,14.634988784790039
1,487973,-6.558996200561523,-35.21596145629883,12.675527572631836,-3.7263972759246826
1,487973,15.842713356018066,9.084733009338379,5.089502811431885,-12.51363468170166
1,487975,12.97808837890625,5.991449356079102,-31.42824935913086,16.167705535888672
1,487975,-8.61391830444336,-19.943111419677734,-13.502694129943848,1.1914998292922974
1,487975,-2.9317057132720947,-10.451949119567871,6.6287713050842285,-28.86625862121582
1,487976,-8.914725303649902,-5.67095947265625,-37.397361755371094,-16.417518615722656
1,487978,-18.1348934173584,12.916513442993164,-13.15977954864502,-3.7436931133270264
1,487980,-0.34163451194763184,55.01265335083008,61.80275344848633,-17.098339080810547
1,487982,27.29808235168457,33.41756057739258,34.5439567565918,-36.55317306518555
1,487984,-20.539649963378906,-65.71417236328125,-50.32964324951172,-21.726545333862305
1,487986,-32.849761962890625,-60.55896759033203,-41.981895446777344,-40.692657470703125
1,487988,39.54245376586914,15.280680656433105,30.092512130737305,42.005836486816406
1,487990,-2.296639919281006,-31.027652740478516,11.378568649291992,121.4875259399414
1,487992,-5.046510696411133,-168.96791076660156,5.279201030731201,20.56952667236328
1,487994,19.820560455322266,2.555572986602783,54.957759857177734,-6.537503719329834
1,487996,-18.094026565551758,335.0941467285156,-0.6870929598808289,10.491316795349121
1,487998,20.637372970581055,136.72998046875,-35.96893310546875,-16.83643341064453
1,488000,17.236730575561523,-106.52625274658203,32.91703414916992,-40.19169235229492
1,488002,-16.229740142822266,-3.5085489749908447,9.4647216796875,-19.572254180908203
1,488004,-17.541505813598633,-53.44266891479492,-54.366004943847656,-5.20560884475708
1,488006,-36.64505386352539,-185.1910858154297,-38.438812255859375,-44.5396728515625
1,488088,26.487245559692383,69.02088165283203,35.04925537109375,6.847627639770508
1,488088,54.69130325317383,208.84323120117188,45.292091369628906,50.56559371948242
1,488088,-26.347604751586914,-85.69084167480469,-26.857820510864258,-18.153242111206055
1,488088,-4.498326301574707,-87.39813995361328,-14.398002624511719,-42.084983825683594
1,488088,25.13262176513672,5.38139009475708,-5.580685138702393,12.375542640686035
1,488088,-15.628421783447266,-39.17912673950195,-12.533563613891602,48.1781120300293
1,488089,-5.801766395568848,-5.973402976989746,4.967616558074951,34.37051010131836
1,488089,16.032197952270508,-2.7421481609344482,13.606083869934082,20.107650756835938
1,488089,5.760134696960449,24.74901580810547,20.421205520629883,24.479747772216797
1,488089,-6.134775161743164,51.51756286621094,6.963725566864014,14.114028930664062
1,488089,-11.145376205444336,21.371429443359375,-8.802742958068848,-16.94899559020996
1,488090,-10.058905601501465,-1.3646645545959473,-18.37364959716797,-47.75825119018555
1,488090,-4.150030136108398,-24.295930862426758,-3.57808256149292,-20.148168563842773
1,488090,2.8823635578155518,-23.358015060424805,0.8476995229721069,9.119246482849121
1,488090,17.0466365814209,9.729693412780762,0.4307210147380829,-8.37490463256836
1,488090,6.745847702026367,-27.16855812072754,2.9239697456359863,10.630958557128906
1,488090,-28.559619903564453,-22.53165054321289,14.224984169006348,16.787282943725586
1,488091,-0.5564187169075012,25.284765243530273,11.770597457885742,6.634830474853516
1,488091,35.39021301269531,13.030721664428711,-14.016427993774414,16.152311325073242
1,488091,-3.566380262374878,31.37466812133789,4.233232021331787,-10.5147123336792
1,488091,1.7834079265594482,18.716049194335938,4.829652786254883,-23.935232162475586
1,488091,-1.122924566268921,-17.556108474731445,-15.349960327148438,-6.562248229980469
1,488091,-20.462310791015625,-11.812244415283203,1.6925197839736938,-13.652277946472168
1,488092,5.39262580871582,2.8977091312408447,21.620519638061523,-1.564648985862732
1,488092,-3.699167013168335,3.4062390327453613,-4.4358930587768555,6.338988780975342
1,488092,-10.859954833984375,-16.106367111206055,-28.533849716186523,4.682034015655518
1,488092,-12.941362380981445,-12.330854415893555,17.122154235839844,21.1004695892334
1,488092,1.4947725534439087,4.387325286865234,17.488143920898438,2.216240882873535
1,488092,21.618438720703125,16.644746780395508,-28.60479164123535,-5.240532398223877
1,488093,-18.934598922729492,30.4378662109375,0.7291082143783569,3.1975953578948975
1,488093,-20.29287338256836,0.45171618461608887,18.056045532226562,-17.858732223510742
1,488093,28.56768798828125,-17.912769317626953,-18.192352294921875,-24.4327392578125
1,488093,7.733747959136963,2.2166435718536377,-5.921191692352295,-1.0107712745666504
1,488093,-36.09990310668945,-5.8457136154174805,18.585491180419922,13.799786567687988
1,488093,-4.368974208831787,-9.378722190856934,-12.732314109802246,-3.9641964435577393
1,488094,26.58428192138672,-9.053750991821289,-10.724467277526855,4.019133567810059
1,488094,-1.084825873374939,-9.759099960327148,27.48666763305664,31.83928108215332
1,488094,9.64303207397461,7.3833208084106445,16.770309448242188,13.398209571838379
1,488094,18.750120162963867,38.485408782958984,-14.218849182128906,1.9723068475723267
1,488094,-22.521276473999023,13.714805603027344,6.0919013023376465,8.813233375549316
1,488095,-10.660285949707031,-15.990215301513672,14.826950073242188,4.014594554901123
1,488096,6.8462677001953125,19.607206344604492,-40.61680221557617,-12.176682472229004
1,488096,-13.947590827941895,-10.81052017211914,-29.563013076782227,-19.8023738861084
1,488096,-6.309929370880127,-28.66426658630371,10.86758041381836,-3.737905979156494
1,488096,10.403474807739258,3.6657674312591553,-5.552299499511719,-5.168151378631592
1,488098,-4.412001132965088,-33.1878662109375,8.039119720458984,-36.366031646728516
1,488100,-70.57633209228516,-185.36436462402344,-6.912999629974365,-42.72096252441406
1,488102,18.474504470825195,-237.7914276123047,-37.74203109741211,-1.10346519947052
1,488104,134.67587280273438,150.4208984375,19.953981399536133,-13.284646034240723
1,488106,-19.108659744262695,308.1270446777344,31.41750144958496,-50.10816955566406
1,488108,-50.84903335571289,21.48187255859375,14.332792282104492,31.20952796936035
1,488110,47.802146911621094,-2.794062852859497,34.79033279418945,91.359375
1,488112,-12.303640365600586,-11.440784454345703,-0.525524914264679,47.607818603515625
1,488114,-19.13182830810547,-41.23712158203125,-11.15456485748291,7.116142749786377
1,488116,27.972572326660156,110.5667495727539,43.15641784667969,16.854307174682617
1,488118,2.1391544342041016,71.07586669921875,-5.6303229331970215,7.238094329833984
1,488120,-15.6531982421875,-89.37567138671875,-100.42095184326172,-39.69209289550781
1,488122,-24.665578842163086,-57.265193939208984,-1.6472254991531372,-19.212112426757812
1,488125,-17.705917358398438,-54.37263870239258,48.31688690185547,-61.770599365234375
1,488126,-11.194478988647461,-118.75045013427734,-38.930519104003906,-30.618505477905273
1,488129,1.558732032775879,40.40182113647461,-3.399643659591675,95.19786071777344
1,488130,25.09002113342285,143.00460815429688,13.966800689697266,-0.9658387303352356
