Aktueller Finger,timestamp_ms,sensor_0,sensor_1,sensor_2,sensor_3
0,426425,-211.3951416015625,-14.972969055175781,-7.4804768562316895,39.330631256103516
0,426426,8.110054969787598,-67.07794189453125,-31.000816345214844,16.536352157592773
0,426429,164.07122802734375,45.31727600097656,29.315462112426758,-51.592185974121094
0,426430,-185.1017303466797,59.756038665771484,25.249408721923828,-0.8299189209938049
0,426432,-129.26773071289062,-24.7279052734375,-21.030113220214844,29.27408790588379
0,426437,-45.95515060424805,33.786373138427734,34.902774810791016,4.308438777923584
0,426437,-157.47361755371094,24.098730087280273,14.987777709960938,-4.4590888023376465
0,426438,-145.78680419921875,23.716768264770508,-15.921374320983887,4.490026950836182
0,426441,-99.95672607421875,-8.04763126373291,-11.254789352416992,63.1744384765625
0,426442,165.2267608642578,-91.4325180053711,-31.31511878967285,9.595686912536621
0,426445,450.87530517578125,-52.2878532409668,-10.27016830444336,-66.57722473144531
0,426446,290.8128356933594,-14.41917896270752,2.1089718341827393,-29.305448532104492
0,426449,-168.55857849121094,76.7173080444336,56.08251953125,0.9331911206245422
0,426450,-228.11822509765625,47.9925422668457,19.043258666992188,13.145586967468262
0,426453,5.0794219970703125,-57.66664123535156,-64.33055877685547,59.89521789550781
0,426454,18.864171981811523,4.037595748901367,-11.964731216430664,40.43576431274414
0,426457,-46.80173110961914,15.027931213378906,33.895328521728516,-115.66742706298828
0,426458,-178.96905517578125,31.420879364013672,38.87211608886719,-66.3061294555664
0,426477,-98.81884765625,58.650665283203125,13.311321258544922,76.90806579589844
0,426477,73.00435638427734,-22.77161407470703,-15.137064933776855,27.0786075592041
0,426477,-41.08296203613281,-32.534149169921875,-24.10921859741211,-3.7882490158081055
0,426478,-4.780455112457275,10.302196502685547,-25.98151206970215,7.643162727355957
0,426478,121.20987701416016,-19.835315704345703,-15.919652938842773,13.585515975952148
0,426478,94.1291732788086,-46.66442108154297,-1.1319283246994019,15.435301780700684
0,426478,88.36808776855469,-10.590755462646484,8.690600395202637,-11.514628410339355
0,426478,54.75691223144531,2.586751699447632,-9.295021057128906,-28.53427505493164
0,426478,-52.127079010009766,-3.0244433879852295,4.616365432739258,-5.096951007843018
0,426480,-75.28717803955078,-21.343551635742188,-8.37930679321289,11.698293685913086
0,426480,-32.09659194946289,-17.778636932373047,-30.138389587402344,12.375221252441406
0,426483,136.01707458496094,7.004043102264404,17.421594619750977,10.897915840148926
0,426484,230.19119262695312,-26.467744827270508,-14.203191757202148,-17.49018669128418
0,426487,102.87345123291016,0.5377939343452454,4.910892486572266,-77.15314483642578
0,426488,-42.506351470947266,81.43302917480469,79.18258666992188,-53.76199722290039
0,426491,-273.8966064453125,42.77210235595703,-3.091022491455078,89.08699035644531
0,426492,-166.1326141357422,-35.027931213378906,-51.52721405029297,98.02804565429688
0,426495,96.85150909423828,-14.376384735107422,10.505270957946777,-46.82096481323242
0,426496,6.176426887512207,18.100141525268555,26.930246353149414,-65.7088623046875
0,426499,-190.97206115722656,44.083106994628906,3.5307464599609375,38.7851676940918
0,426500,-183.1243896484375,12.933985710144043,-10.755718231201172,61.604774475097656
0,426531,224.80142211914062,-38.40543746948242,4.454336166381836,-26.408105850219727
0,426531,192.6455535888672,-2.4446310997009277,19.442977905273438,-47.15127182006836
0,426531,-218.0325164794922,8.006288528442383,-1.3891589641571045,52.22419738769531
0,426531,-37.25411605834961,-14.135812759399414,-9.467634201049805,27.68485450744629
0,426532,173.8174285888672,-11.6691312789917,-4.982860565185547,-41.98294448852539
0,426532,109.52029418945312,-23.53965187072754,-26.92415428161621,-14.875943183898926
0,426532,60.717159271240234,-14.782334327697754,-12.751152992248535,-16.035993576049805
0,426532,-11.468049049377441,12.759693145751953,26.37442398071289,-16.747356414794922
0,426532,-52.203651428222656,22.322772979736328,28.601478576660156,5.3371148109436035
0,426532,-71.08268737792969,25.1760196685791,-7.354392051696777,-3.1267595291137695
0,426533,-102.72288513183594,8.743489265441895,-36.006107330322266,8.058379173278809
0,426533,-85.58155822753906,-4.7936859130859375,3.961097240447998,33.26443099975586
0,426533,-11.958171844482422,-10.349125862121582,23.168466567993164,9.129297256469727
0,426533,37.401023864746094,-34.08237838745117,-9.035539627075195,-19.232791900634766
0,426533,60.60089874267578,-18.483612060546875,-26.675825119018555,-12.835875511169434
0,426535,65.67085266113281,15.054081916809082,-2.368163585662842,12.945524215698242
0,426535,43.46413040161133,0.12693814933300018,26.055784225463867,-1.327746033668518
0,426536,23.02747917175293,-15.964552879333496,-8.148433685302734,-12.53495979309082
0,426539,-165.50318908691406,-10.83395004272461,-10.929749488830566,2.7223894596099854
0,426540,-169.26344299316406,39.129451751708984,5.908027172088623,4.1323113441467285
0,426543,265.79534912109375,-32.84016799926758,-15.28043270111084,1.4600732326507568
0,426544,304.4510192871094,-70.42261505126953,-6.073495388031006,-6.041555404663086
0,426547,45.01716232299805,65.80128479003906,14.392316818237305,-39.419921875
0,426548,-99.04581451416016,61.52308654785156,34.48558044433594,-36.135704040527344
0,426551,-296.5921325683594,5.110637664794922,-0.7961722016334534,53.603946685791016
0,426552,-109.82506561279297,5.010517120361328,-26.33063316345215,76.87679290771484
0,426555,167.98678588867188,-6.572624683380127,15.6414155960083,-1.7890233993530273
0,426556,51.23686218261719,-15.635981559753418,9.472028732299805,-46.712921142578125
0,426559,-178.8703155517578,36.128353118896484,8.658340454101562,4.39727783203125
0,426560,-164.3968963623047,0.3286808729171753,-1.9937485456466675,27.951732635498047
0,426603,222.38571166992188,-121.21857452392578,-47.96348571777344,-27.986892700195312
0,426603,163.06201171875,-28.314472198486328,-26.049131393432617,-20.719181060791016
0,426603,-193.38671875,64.37557220458984,11.610175132751465,38.546775817871094
0,426603,-19.272647857666016,-7.778092384338379,9.603438377380371,22.39104652404785
0,426604,139.48292541503906,-11.885405540466309,-5.804023742675781,-38.975521087646484
0,426604,104.39016723632812,-4.474487781524658,-0.49135562777519226,-20.7247371673584
0,426604,136.0308074951172,-7.481623649597168,10.943140983581543,-1.8938044309616089
0,426604,47.284664154052734,19.186426162719727,8.106218338012695,-31.104703903198242
0,426604,-73.9010009765625,11.692069053649902,16.333341598510742,-2.3236424922943115
0,426604,-75.56095886230469,39.34866714477539,11.211524963378906,25.30263900756836
0,426605,-79.29779815673828,58.732364654541016,11.792266845703125,0.3922509253025055
0,426605,-87.53873443603516,-0.9075608849525452,6.620887756347656,8.93913459777832
0,426605,-51.06915283203125,-22.512205123901367,-0.824583113193512,34.666812896728516
0,426605,-1.6320163011550903,9.71175479888916,5.043262958526611,4.455051422119141
0,426605,53.28296661376953,-14.534070014953613,-7.541658878326416,-17.016096115112305
0,426605,78.18406677246094,-21.286476135253906,-0.22221580147743225,-17.963294982910156
0,426606,35.073570251464844,1.8312677145004272,6.535621643066406,0.35228824615478516
0,426606,12.239483833312988,1.3185698986053467,-22.052919387817383,2.2859268188476562
0,426606,-0.9446333646774292,5.078116416931152,-17.34269142150879,-10.96375560760498
0,426606,-64.58673858642578,14.813984870910645,32.449951171875,12.613252639770508
0,426606,-73.40940856933594,20.40506935119629,9.069823265075684,5.34583044052124
0,426608,-99.61112213134766,17.08104133605957,-12.89736557006836,-25.130952835083008
0,426608,-94.84598541259766,17.852096557617188,7.047188758850098,-32.50702667236328
0,426608,14.5797700881958,-29.878759384155273,-9.431037902832031,12.691468238830566
0,426611,-60.20937728881836,-21.75307273864746,-0.35086363554000854,91.48164367675781
0,426612,-87.1541519165039,17.651748657226562,-16.32680320739746,67.10984802246094
0,426615,92.44764709472656,-33.41175079345703,-8.149375915527344,-35.10015869140625
0,426616,75.29266357421875,-39.72703170776367,21.001953125,-13.66932201385498
0,426619,-126.8526382446289,31.38222312927246,-9.692152976989746,-11.463330268859863
0,426620,-82.93537902832031,23.718158721923828,-27.204679489135742,-84.12435150146484
0,426623,331.4357604980469,-103.49169921875,-34.347572326660156,-81.98003387451172
0,426624,356.8736572265625,-116.16986083984375,-14.718017578125,36.561622619628906
0,426627,20.262147903442383,81.73725128173828,44.72166061401367,105.32733154296875
0,426628,-94.503173828125,164.57998657226562,65.14979553222656,-3.451439619064331
0,426631,-224.5839385986328,1.0994194746017456,0.3478442132472992,3.2264747619628906
0,426632,-103.77177429199219,-48.00043869018555,-26.444807052612305,21.306978225708008
0,426635,126.39583587646484,0.02233143337070942,-21.691783905029297,-71.2518081665039
0,426636,24.32855224609375,-14.043766975402832,-10.991679191589355,-33.38058853149414
0,426691,28.095111846923828,17.88536262512207,41.73337936401367,22.317319869995117
0,426692,-5.007579803466797,30.035484313964844,16.75597381591797,24.38650131225586
0,426692,-153.3678436279297,2.3844192028045654,-17.530227661132812,41.18435287475586
0,426692,-75.85240173339844,-1.5571080446243286,-0.8329902291297913,-4.177116394042969
0,426692,11.82656192779541,-16.01068687438965,-21.05838394165039,-38.957115173339844
0,426692,18.248809814453125,-27.960521697998047,-17.807218551635742,2.2528696060180664
0,426692,57.6553840637207,-28.475717544555664,13.7051420211792,-23.151905059814453
0,426693,83.68033599853516,-30.279481887817383,-10.706043243408203,-72.62662506103516
0,426693,59.668121337890625,2.4228999614715576,-8.371811866760254,-1.561645746231079
0,426693,20.54624366760254,18.448843002319336,22.828962326049805,54.1818962097168
0,426693,-22.977275848388672,29.328304290771484,0.8808913230895996,2.2569456100463867
0,426693,-55.05877685546875,30.52255630493164,1.3026376962661743,13.538358688354492
0,426694,-82.03244018554688,-6.803394317626953,15.43895435333252,65.83285522460938
0,426694,-57.87401580810547,-4.963997840881348,-13.423264503479004,25.919050216674805
0,426694,23.65207290649414,4.810606956481934,4.668262004852295,-0.878051221370697
0,426694,32.20953369140625,-9.288187026977539,22.20101547241211,8.41232967376709
0,426694,32.05876541137695,-14.144625663757324,-24.66661834716797,-17.699520111083984
0,426694,62.20132827758789,-7.556039333343506,-30.546005249023438,-35.563236236572266
0,426695,25.544422149658203,-6.153651237487793,12.894596099853516,5.933663368225098
0,426695,-4.143677711486816,-1.0144258737564087,23.386877059936523,27.67646026611328
0,426695,-0.9768029451370239,16.77404022216797,5.503589630126953,-3.0797650814056396
0,426695,-32.2900390625,16.399415969848633,17.285261154174805,3.5011024475097656
0,426695,-47.47017288208008,-1.574850082397461,7.765367031097412,15.549554824829102
0,426695,-27.74274444580078,-8.042535781860352,-33.11507034301758,-8.513687133789062
0,426696,-15.773883819580078,-11.588913917541504,-16.04764175415039,-41.474422454833984
0,426696,2.7421374320983887,-10.043875694274902,17.277515411376953,-19.354488372802734
0,426696,39.86455154418945,16.055795669555664,-0.9688824415206909,-0.9044206738471985
0,426697,-14.284103393554688,22.064708709716797,-9.713062286376953,-10.943310737609863
0,426697,-57.06559753417969,-7.71431303024292,6.572249412536621,29.10503387451172
0,426698,36.57574462890625,-12.413411140441895,5.472701072692871,28.416959762573242
0,426699,-14.022807121276855,11.948976516723633,-15.541609764099121,26.089820861816406
0,426700,-33.126747131347656,-29.561220169067383,-31.728235244750977,30.258541107177734
0,426703,222.2929229736328,-61.879459381103516,-18.276138305664062,-57.56733322143555
0,426704,264.6391906738281,-18.851701736450195,13.781891822814941,-86.61935424804688
0,426707,25.03562355041504,63.54686737060547,47.72187042236328,-36.984954833984375
0,426708,-176.1499786376953,87.6731185913086,24.433013916015625,6.0196123123168945
0,426711,-257.9752502441406,-37.99882125854492,-37.289058685302734,56.33187484741211
0,426712,-69.4876937866211,-39.59477615356445,-30.028310775756836,16.673330307006836
0,426715,109.40019226074219,52.2652473449707,24.45005989074707,-18.129852294921875
0,426716,-2.322814702987671,16.010908126831055,47.94988250732422,13.239797592163086
0,426719,-171.1417999267578,-4.5064544677734375,-2.481947660446167,27.17499351501465
0,426720,-110.0530014038086,-16.733661651611328,-34.06895065307617,47.03874206542969
0,426722,136.76844787597656,-53.54299545288086,-26.93274688720703,6.616556644439697
0,426724,276.0987243652344,-42.771202087402344,-27.30515480041504,-76.6720962524414
0,426726,164.1534423828125,12.937243461608887,29.29222869873047,-37.811363220214844
0,426728,-187.30816650390625,91.82823181152344,67.7462387084961,33.101829528808594
0,426796,-356.2845764160156,58.20307159423828,14.852559089660645,58.67707061767578
0,426797,-32.644737243652344,-65.63568115234375,-40.41011047363281,58.05701446533203
0,426797,268.3014221191406,-38.947715759277344,-8.184233665466309,-49.1990852355957
0,426797,106.30717468261719,44.03606033325195,20.17312240600586,-60.11923599243164
0,426797,-84.51775360107422,3.3372621536254883,-1.6894530057907104,11.6348876953125
0,426797,-101.4591064453125,2.8226232528686523,-0.04280605539679527,14.22216796875
0,426797,-107.25149536132812,43.24114227294922,12.899459838867188,21.907855987548828
0,426798,-67.9747543334961,-3.849768877029419,-8.003517150878906,9.137680053710938
0,426798,7.758801460266113,-41.57048416137695,-24.492820739746094,-30.797603607177734
0,426798,71.91725158691406,-34.788333892822266,-10.964591979980469,-27.42110252380371
0,426798,87.7980728149414,-32.47822952270508,-16.895692825317383,1.2194808721542358
0,426798,90.53614807128906,-33.70144271850586,-7.515132904052734,-13.32387924194336
0,426799,92.55955505371094,-0.16894330084323883,1.1906012296676636,-34.542747497558594
0,426799,46.841209411621094,27.791513442993164,3.071667432785034,-23.709596633911133
0,426799,-30.150135040283203,10.784582138061523,3.7132976055145264,8.966818809509277
0,426799,-81.43465423583984,17.565311431884766,-3.632391929626465,25.467527389526367
0,426799,-84.94017028808594,21.358598709106445,28.137258529663086,7.625109672546387
0,426799,-28.655256271362305,2.363255739212036,12.546486854553223,7.471341609954834
0,426800,13.101094245910645,-16.381671905517578,-29.53828239440918,1.3302278518676758
0,426800,21.230579376220703,-17.809480667114258,-9.729522705078125,-23.087980270385742
0,426800,57.45478057861328,-7.314414024353027,-3.499483108520508,-22.847543716430664
0,426800,82.00933837890625,-13.4390230178833,-2.277416706085205,-17.342510223388672
0,426800,50.159454345703125,-2.8856019973754883,18.866073608398438,-5.731954574584961
0,426800,-2.5647754669189453,5.815853118896484,1.471479058265686,-8.996315956115723
0,426801,-19.51891326904297,9.8207368850708,-11.418469429016113,7.815084457397461
0,426801,-42.15065383911133,29.207265853881836,20.830198287963867,54.843318939208984
0,426801,-42.12400436401367,5.98402214050293,20.08901023864746,67.6879653930664
0,426801,-17.98008918762207,-15.55408000946045,-9.5690279006958,56.229576110839844
0,426801,-25.598844528198242,11.64552116394043,-4.58458948135376,33.04841232299805
0,426801,18.487916946411133,-11.715415000915527,-6.306296348571777,19.535625457763672
0,426802,53.571754455566406,-15.363300323486328,-26.329072952270508,26.863431930541992
0,426802,33.78235626220703,11.117751121520996,-0.8825017809867859,36.79216003417969
0,426802,22.58521842956543,-0.5787210464477539,16.713172912597656,26.955366134643555
0,426802,-4.336582183837891,-1.1304328441619873,-0.5837977528572083,-24.63075828552246
0,426803,85.06993103027344,-18.82178497314453,-3.384176254272461,-122.46717071533203
0,426804,68.3164291381836,-9.51805591583252,-9.83741283416748,-88.0052490234375
0,426804,-135.9314422607422,15.89239501953125,2.797638177871704,54.74430465698242
0,426805,23.555286407470703,5.732028007507324,40.75056076049805,88.50753021240234
0,426806,127.30581665039062,67.1125717163086,32.59660339355469,32.426422119140625
0,426808,-138.65670776367188,79.23767852783203,-5.664844989776611,-203.79974365234375
0,426810,-261.48590087890625,-40.241641998291016,-6.60172176361084,-804.7139282226562
0,426812,-126.30622100830078,-71.46515655517578,-39.44186019897461,-101.72020721435547
0,426814,32.52216339111328,-14.61567211151123,-28.90057373046875,981.6351928710938
0,426816,32.955177307128906,33.93861389160156,43.592628479003906,233.21426391601562
0,426818,-92.02979278564453,58.513404846191406,60.636932373046875,18.02294921875
0,426820,-89.60675811767578,-9.624810218811035,-19.362518310546875,61.355464935302734
0,426822,227.8131103515625,-116.59738159179688,-115.35311889648438,-361.6977233886719
0,426824,295.6117858886719,-79.30856323242188,-21.07668685913086,-32.68741989135742
0,426826,119.3824462890625,56.15792465209961,76.90058135986328,132.1265106201172
0,426828,-39.2509880065918,63.1388053894043,18.375783920288086,-78.41205596923828
0,426830,-282.4172668457031,44.52001190185547,2.1655993461608887,120.65692901611328
0,426832,-86.84986114501953,27.482208251953125,33.13347625732422,274.2264099121094
0,426834,174.1639862060547,-68.3150634765625,-38.54841232299805,-309.6737060546875
0,426836,15.694710731506348,-11.830789566040039,-34.73176574707031,-528.6442260742188
0,426916,-46.35647964477539,46.715885162353516,71.99768829345703,597.4448852539062
0,426916,-35.62615203857422,-1.274389386177063,18.59250259399414,675.54638671875
0,426916,-121.92411041259766,0.5882940888404846,-46.46381759643555,-591.5689086914062
0,426917,-106.81063842773438,8.888121604919434,1.1185343265533447,-303.8682861328125
0,426917,2.625584363937378,9.420907020568848,5.043571949005127,216.12130737304688
0,426917,64.61077880859375,-26.6749210357666,-16.40331268310547,-21.217985153198242
0,426917,81.95507049560547,-34.00260543823242,-6.399772644042969,-52.501808166503906
0,426917,90.80978393554688,3.6678526401519775,-0.02229446731507778,-84.911376953125
0,426917,74.0195541381836,-13.346748352050781,-18.524362564086914,-122.25609588623047
0,426918,22.3699951171875,-5.787064075469971,-13.485027313232422,-154.56103515625
0,426918,-40.157798767089844,27.516937255859375,27.980554580688477,-144.93690490722656
0,426918,-65.08871459960938,5.65964937210083,15.443400382995605,-67.91354370117188
0,426918,-74.64064025878906,-14.731366157531738,-18.3347110748291,33.52485656738281
0,426918,-45.91142654418945,-8.358949661254883,-12.740269660949707,120.99685668945312
0,426918,4.6827287673950195,-5.752028942108154,9.502458572387695,170.32037353515625
0,426919,47.23448181152344,-6.2911152839660645,-13.282355308532715,155.91734313964844
0,426919,70.64727783203125,-14.4747314453125,-23.851726531982422,109.45812225341797
0,426919,46.696067810058594,-17.8043270111084,28.48706817626953,69.3303451538086
0,426919,35.0697135925293,3.282071352005005,7.732204914093018,9.688253402709961
0,426919,19.1500244140625,1.1309696435928345,-39.4449348449707,-19.54959487915039
0,426919,-26.560148239135742,-5.7187347412109375,1.9299672842025757,6.662398815155029
0,426920,-37.12690734863281,35.55287170410156,40.12542724609375,-7.930378437042236
0,426920,-7.569235801696777,36.80607604980469,-5.957868576049805,-4.989437103271484
0,426920,-14.439244270324707,-23.229787826538086,-24.32822036743164,41.22652053833008
0,426920,-7.650969505310059,-19.248632431030273,13.838089942932129,47.78004455566406
0,426920,29.98798370361328,1.0944751501083374,9.409579277038574,8.801460266113281
0,426921,30.146015167236328,-22.279720306396484,1.0373106002807617,-34.38792037963867
0,426921,33.45944595336914,-6.664122104644775,1.7381458282470703,-50.81602478027344
0,426921,33.588985443115234,13.87483024597168,-12.585977554321289,-90.5901107788086
0,426921,3.5635416507720947,-2.9955949783325195,-1.2001385688781738,-113.96526336669922
0,426921,-32.219329833984375,6.366338729858398,13.070472717285156,-72.34992980957031
0,426921,-27.885295867919922,28.721965789794922,7.852938175201416,-36.8221321105957
0,426922,-2.7726194858551025,-7.7749409675598145,13.664264678955078,-37.109310150146484
0,426922,-17.452608108520508,-16.962913513183594,-12.333799362182617,-19.987632751464844
0,426922,-27.697526931762695,11.511079788208008,-25.784866333007812,34.994564056396484
0,426922,-3.0016448497772217,-4.081481456756592,-2.2380452156066895,47.06780242919922
0,426922,21.66803550720215,0.438144713640213,5.296266078948975,25.817707061767578
0,426922,22.615997314453125,11.663858413696289,24.012237548828125,32.40260696411133
0,426923,21.346969604492188,3.405707836151123,25.232831954956055,19.26138687133789
0,426923,24.668922424316406,4.4751129150390625,-17.524953842163086,-4.922350883483887
0,426924,102.3471450805664,-7.05017614364624,-24.692964553833008,-24.637266159057617
0,426924,71.1114273071289,-3.0305821895599365,25.90391731262207,-14.294418334960938
0,426924,-107.7533187866211,19.350034713745117,29.112829208374023,9.042378425598145
0,426924,-64.26199340820312,9.460672378540039,-7.464206218719482,21.35358238220215
0,426926,48.830535888671875,7.407084941864014,-7.696705341339111,26.27057647705078
0,426929,-112.38322448730469,51.73103332519531,19.814388275146484,208.9355010986328
0,426930,-231.52330017089844,18.00677490234375,3.1692616939544678,139.52186584472656
0,426933,-50.542808532714844,-35.54134750366211,-20.701812744140625,-475.1451721191406
0,426934,44.20689392089844,41.060569763183594,14.702930450439453,-655.3311767578125
0,426937,13.741177558898926,12.301074981689453,10.119824409484863,624.5843505859375
0,426938,-104.5998764038086,-100.25965881347656,-40.015777587890625,1245.0599365234375
0,426941,-112.88288879394531,-122.4274673461914,-133.03553771972656,-1244.8541259765625
0,426942,136.7426300048828,-68.05388641357422,-68.51025390625,-1645.72900390625
0,426945,442.2628479003906,93.95745086669922,160.03179931640625,1394.5811767578125
0,426946,334.1912536621094,109.90426635742188,93.32791137695312,1488.69384765625
0,426949,-292.45977783203125,36.85558319091797,-19.315885543823242,-397.09674072265625
0,426950,-317.8743591308594,13.94059944152832,25.918766021728516,-496.39398193359375
0,426953,48.35904312133789,-78.37445831298828,-49.86872482299805,-49.20085525512695
0,426954,55.04277801513672,-50.85284423828125,-58.67744827270508,-21.789051055908203
0,426957,52.928775787353516,88.12730407714844,60.90580749511719,59.68601989746094
0,426958,-121.21232604980469,87.8010025024414,71.8550796508789,42.57541275024414
0,427049,42.36222457885742,-78.91943359375,-50.59071350097656,-266.0122375488281
0,427049,249.7695770263672,-70.59635162353516,-72.70128631591797,-258.2636413574219
0,427049,-230.1832733154297,51.34395980834961,17.53046989440918,161.476806640625
0,427049,-171.76585388183594,-29.21632957458496,-9.173138618469238,60.097774505615234
0,427049,121.13333892822266,-64.58383178710938,-41.530128479003906,-105.7973403930664
0,427050,57.93765640258789,-6.222269058227539,-7.494638919830322,26.402822494506836
0,427050,88.9269790649414,8.579157829284668,17.35511589050293,61.633766174316406
0,427050,47.90010452270508,4.842015266418457,33.35587692260742,121.85020446777344
0,427050,-27.183046340942383,27.03948211669922,12.339677810668945,121.6198501586914
0,427050,-49.45581817626953,46.31587219238281,0.33554548025131226,77.75108337402344
0,427050,-98.21047973632812,-4.6602463722229,18.99370574951172,55.730831146240234
0,427051,-84.93299865722656,-9.043187141418457,18.072969436645508,-8.90196704864502
0,427051,-15.968576431274414,29.583179473876953,-7.453873634338379,-53.34080123901367
0,427051,-4.236136436462402,-9.706790924072266,-6.820944786071777,-71.40628814697266
0,427051,25.295991897583008,-38.151397705078125,0.6511657238006592,-98.24353790283203
0,427051,73.76361083984375,-22.239768981933594,-16.046255111694336,-64.03247833251953
0,427051,72.3892822265625,-6.779101848602295,-22.375186920166016,-7.222316741943359
0,427052,30.942689895629883,26.478801727294922,-6.2092695236206055,3.1289782524108887
0,427052,-16.565582275390625,15.70392894744873,23.9223690032959,39.01564407348633
0,427052,-39.25969696044922,6.663769245147705,18.941104888916016,83.78324127197266
0,427052,-42.27724838256836,34.80381393432617,4.586850643157959,25.82860565185547
0,427052,-33.426570892333984,8.368382453918457,-16.402393341064453,-41.510101318359375
0,427053,-15.828348159790039,-27.422313690185547,-16.33666229248047,-25.20379066467285
0,427053,9.712851524353027,-12.030328750610352,27.070302963256836,-14.119099617004395
0,427053,43.01172637939453,17.323881149291992,-2.4497618675231934,-42.39131164550781
0,427053,34.759056091308594,-1.8628541231155396,-16.553098678588867,-33.94890213012695
0,427053,11.818700790405273,-23.759063720703125,1.1134603023529053,0.6863815188407898
0,427053,19.75166893005371,6.775315761566162,-7.0846662521362305,19.944124221801758
0,427054,8.410135269165039,21.541494369506836,32.17143630981445,45.7708625793457
0,427054,-14.297801971435547,6.649038791656494,22.23305892944336,31.71175765991211
0,427054,-22.0107421875,-2.4746077060699463,-16.227548599243164,11.103389739990234
0,427054,-24.783336639404297,7.8086256980896,-1.7702515125274658,0.7667717933654785
0,427054,-9.6948881149292,5.84440803527832,6.912365436553955,-7.842802047729492
0,427054,-14.181214332580566,-3.302605628967285,-8.348531723022461,-3.2319772243499756
0,427055,12.09006404876709,-7.133272647857666,-17.801305770874023,-35.620967864990234
0,427055,50.68534469604492,-28.972932815551758,-9.922345161437988,-20.81438446044922
0,427055,12.37096118927002,-7.216596603393555,-5.150502681732178,10.487674713134766
0,427055,-3.669492244720459,11.053424835205078,4.172552585601807,-14.985733032226562
0,427055,3.599259614944458,-10.836950302124023,-6.473536968231201,3.675119161605835
0,427055,-12.232367515563965,-4.0669074058532715,-3.3418962955474854,46.72214889526367
0,427056,-19.379867553710938,0.3059072494506836,11.392606735229492,9.7046537399292
0,427056,-35.33180236816406,6.795032024383545,1.2403271198272705,-22.92520523071289
0,427056,-24.440311431884766,34.65582275390625,4.463695526123047,-2.0848071575164795
0,427056,17.22200584411621,21.430335998535156,2.243746757507324,-26.373777389526367
0,427056,9.298395156860352,-33.622440338134766,0.6073588728904724,-20.207122802734375
0,427058,-102.10456848144531,-18.715011596679688,-9.398984909057617,40.97512435913086
0,427058,-64.99990844726562,13.739047050476074,-15.368252754211426,20.778514862060547
0,427058,108.24553680419922,-2.843898296356201,25.719301223754883,-26.384925842285156
0,427058,57.059776306152344,-7.03038215637207,2.0768957138061523,5.259150981903076
0,427058,-31.775821685791016,0.8940389752388,-37.22859191894531,24.48322868347168
0,427061,77.62934112548828,-50.663360595703125,-17.662599563598633,40.08073425292969
0,427062,193.4982452392578,-85.31781005859375,11.55634880065918,27.234365463256836
0,427065,231.13128662109375,-6.06252908706665,13.951841354370117,-114.64764404296875
0,427066,67.32231903076172,42.670188903808594,5.873124122619629,-95.66996765136719
0,427069,-344.1009826660156,84.45147705078125,57.56958770751953,206.60494995117188
0,427070,-280.9651794433594,56.25794982910156,2.640784502029419,213.52198791503906
0,427073,87.2343521118164,-41.46897506713867,-78.80565643310547,-258.96435546875
0,427074,72.86245727539062,-27.880250930786133,25.754722595214844,-522.7968139648438
0,427076,-2.155364990234375,-22.184823989868164,-3.092233657836914,-320.9228820800781
0,427078,-236.58494567871094,72.76795959472656,-39.49778366088867,329.05419921875
0,427080,-202.7106170654297,95.15186309814453,77.09300994873047,890.6981201171875
0,427082,333.7734069824219,-120.458251953125,-24.739376068115234,251.30435180664062
0,427084,292.9909362792969,-103.27268981933594,-45.96640396118164,-503.20343017578125
0,427086,-1.177872657775879,69.27774810791016,53.82691955566406,-276.43701171875
0,427088,-72.98229217529297,89.71278381347656,29.910152435302734,5.29040002822876
0,427090,-193.05670166015625,-10.505611419677734,-23.024995803833008,120.67804718017578
0,427092,-74.88418579101562,-73.4754409790039,-25.259153366088867,95.40167236328125
0,427094,114.68521881103516,23.984527587890625,39.111576080322266,33.413902282714844
0,427096,49.575164794921875,47.278594970703125,29.343093872070312,236.80087280273438
0,427199,-170.21434020996094,-24.808988571166992,-32.5355339050293,-120.18441009521484
0,427199,-186.76748657226562,-6.937082767486572,-53.30295944213867,-494.17694091796875
0,427200,32.257991790771484,6.815060138702393,23.4204158782959,34.580265045166016
0,427200,24.560871124267578,-11.687637329101562,21.484508514404297,148.64913940429688
0,427200,-18.585704803466797,3.34456729888916,-53.290348052978516,-62.3322868347168
0,427200,83.4060287475586,-32.52281951904297,-23.554475784301758,53.48113250732422
0,427200,125.25240325927734,-31.16339874267578,26.757848739624023,97.69733428955078
0,427200,145.115966796875,11.244505882263184,23.2700138092041,64.23377227783203
0,427201,117.02680969238281,-24.915376663208008,-17.540945053100586,28.424488067626953
0,427201,21.136489868164062,10.047771453857422,7.571817398071289,5.240658760070801
0,427201,-19.50722885131836,42.3250846862793,33.15577697753906,-31.250661849975586
0,427201,-27.49859046936035,8.964341163635254,-8.05985164642334,-44.837711334228516
0,427201,-65.09046173095703,7.6714982986450195,-14.516432762145996,-42.89204025268555
0,427201,-75.36259460449219,-2.487090587615967,-1.2913416624069214,-8.018413543701172
0,427202,-40.11548614501953,-1.1614434719085693,2.9686877727508545,-0.30182063579559326
0,427202,19.750003814697266,-10.672340393066406,-0.7844223380088806,-46.16021728515625
0,427202,45.99288558959961,-30.11667823791504,-9.18921947479248,-15.002402305603027
0,427202,47.13172149658203,-6.4345574378967285,-1.1387217044830322,21.729272842407227
0,427202,39.60133361816406,27.11368751525879,9.379862785339355,-13.319453239440918
0,427202,12.123318672180176,16.323904037475586,-4.717523097991943,-17.322826385498047
0,427203,-15.130644798278809,-6.038369655609131,-8.932209014892578,-4.514228820800781
0,427203,-41.93931198120117,22.8541316986084,23.861988067626953,-9.374405860900879
0,427203,-47.33790969848633,11.485904693603516,14.342716217041016,-13.721048355102539
0,427203,-21.71708869934082,-21.50278663635254,-6.795426845550537,-12.977395057678223
0,427203,-8.735913276672363,0.9155192971229553,-6.7528252601623535,22.55851936340332
0,427203,2.1128334999084473,11.344172477722168,-6.282464981079102,39.077369689941406
0,427204,37.80796813964844,-13.339258193969727,-4.709683418273926,1.9154956340789795
0,427204,39.591835021972656,-31.225543975830078,5.419627666473389,13.29793930053711
0,427204,16.21522331237793,15.633003234863281,12.350334167480469,19.128124237060547
0,427204,-7.983283996582031,12.658510208129883,-11.597731590270996,-17.835372924804688
0,427204,-20.615861892700195,-34.38674545288086,-2.403968334197998,-1.9349720478057861
0,427204,-28.999738693237305,10.523079872131348,1.5095818042755127,-1.8221925497055054
0,427205,-45.54087448120117,16.030622482299805,-2.671348810195923,-19.03388023376465
0,427205,-14.48483657836914,8.066155433654785,9.93901538848877,-12.256046295166016
0,427205,4.931344985961914,10.298338890075684,-18.142654418945312,-5.018947601318359
0,427205,-13.663822174072266,-28.246488571166992,8.003985404968262,27.170808792114258
0,427205,-8.692407608032227,20.054018020629883,30.17820167541504,28.993896484375
0,427205,23.369340896606445,26.76502799987793,-12.49909782409668,-11.08240795135498
0,427206,24.788421630859375,-20.797971725463867,0.8340608477592468,-2.921651601791382
0,427206,-10.481982231140137,13.978215217590332,9.873838424682617,21.217227935791016
0,427206,-10.240335464477539,10.4743013381958,-1.7201682329177856,-10.6423978805542
0,427206,-11.194493293762207,-10.44538688659668,1.956815481185913,-19.240055084228516
0,427206,-48.280216217041016,20.32398796081543,-2.1542210578918457,27.90915870666504
0,427206,-26.04525375366211,7.76755428314209,6.38124418258667,18.623315811157227
0,427207,3.848716974258423,-30.02081871032715,-1.3145005702972412,4.52473783493042
0,427207,-14.470412254333496,-7.688138484954834,-19.806407928466797,38.653831481933594
0,427207,13.156610488891602,19.211938858032227,-0.9214189052581787,13.117571830749512
0,427207,15.646374702453613,2.1848533153533936,-2.5541017055511475,-4.022595405578613
0,427207,-4.1852312088012695,-16.377193450927734,-16.710464477539062,13.21754264831543
0,427208,31.08363914489746,-17.500368118286133,16.05803680419922,-11.05993938446045
0,427208,18.778291702270508,3.2477571964263916,12.659547805786133,11.231325149536133
0,427209,-81.0195541381836,26.785959243774414,-4.82960844039917,39.18016815185547
0,427209,-66.58433532714844,12.043529510498047,11.149331092834473,-43.696922302246094
0,427209,52.20713424682617,-28.519119262695312,-10.807689666748047,-76.63876342773438
0,427209,25.29466438293457,-37.38189697265625,-25.872589111328125,-7.411679744720459
0,427210,-12.988722801208496,15.995491027832031,12.371789932250977,8.732430458068848
0,427211,-9.25029182434082,34.583587646484375,5.3024821281433105,33.46882629394531
0,427212,-8.107297897338867,-14.990065574645996,-15.332418441772461,-76.73806762695312
0,427215,0.8276930451393127,-28.748258590698242,-7.852479457855225,-194.05545043945312
0,427216,-34.73689270019531,24.165359497070312,11.188189506530762,95.43651580810547
0,427219,-62.99685287475586,23.659423828125,17.869464874267578,382.735107421875
0,427220,49.03410720825195,-72.5348129272461,-46.22509002685547,97.78052520751953
0,427222,216.48403930664062,-73.73487854003906,-31.66713523864746,-285.57232666015625
0,427224,305.7561340332031,17.871496200561523,31.460649490356445,-169.7135467529297
0,427226,167.0240936279297,19.557870864868164,17.723608016967773,-3.785923957824707
0,427228,-352.39288330078125,54.817832946777344,27.288442611694336,91.1389389038086
0,427230,-323.9398498535156,96.61909484863281,35.10359573364258,120.65043640136719
0,427232,78.92292785644531,-13.384078025817871,-20.536096572875977,-15.494540214538574
0,427234,16.478578567504883,-36.91603469848633,-28.94068145751953,-6.714472770690918
0,427236,-30.230634689331055,31.89918327331543,27.77130889892578,-336.8231506347656
0,427238,-92.53858184814453,-13.42517375946045,9.540242195129395,-530.4306030273438
0,427240,-18.84263801574707,-65.95250701904297,-29.320743560791016,891.0040893554688
0,427242,193.42173767089844,-6.305050373077393,7.128775119781494,1063.771240234375
0,427244,275.15728759765625,31.595449447631836,0.793195366859436,-1117.3626708984375
0,427246,137.67735290527344,-25.366077423095703,-28.363332748413086,-887.9683837890625
0,427248,-366.5407409667969,12.86633014678955,5.806458950042725,798.5880126953125
0,427362,-288.4857177734375,-11.357025146484375,-20.96794891357422,397.2333984375
0,427362,245.29576110839844,-120.5551986694336,-47.21184158325195,-290.4089660644531
0,427363,204.6000518798828,16.523828506469727,31.759323120117188,-26.708375930786133
0,427363,-23.233793258666992,81.47087097167969,38.242332458496094,50.39393615722656
0,427363,-30.01765251159668,9.689228057861328,-5.621170997619629,-108.91641235351562
0,427363,-46.82243728637695,25.433032989501953,4.676167964935303,-84.0838394165039
0,427363,-107.78609466552734,32.75787353515625,22.873178482055664,2.266282796859741
0,427364,-82.64715576171875,6.060772895812988,8.720625877380371,42.200286865234375
0,427364,-8.388620376586914,-9.689114570617676,-11.007720947265625,32.237422943115234
0,427364,56.69704818725586,5.424215316772461,9.153759002685547,38.26848220825195
0,427364,85.76934814453125,-18.305849075317383,5.370522975921631,4.3625593185424805
0,427364,71.35974884033203,-19.553495407104492,-29.386337280273438,-27.079179763793945
0,427364,40.830509185791016,6.512656211853027,-13.162817001342773,-2.55305552482605
0,427365,9.256281852722168,0.13486763834953308,22.415943145751953,-0.3419828712940216
0,427365,-26.768543243408203,25.874120712280273,9.473393440246582,-41.23420715332031
0,427365,-80.39091491699219,11.600318908691406,-4.184699535369873,-48.33223342895508
0,427365,-95.16258239746094,-32.568119049072266,-15.924358367919922,-18.883230209350586
0,427365,-42.119285583496094,8.608126640319824,-9.261626243591309,5.207828998565674
0,427365,-16.522449493408203,21.928525924682617,24.358421325683594,19.179075241088867
0,427366,9.916071891784668,-14.640237808227539,4.859810829162598,9.748459815979004
0,427366,47.24830627441406,-11.598603248596191,-9.772521018981934,12.967615127563477
0,427366,27.40555763244629,-6.180127143859863,2.7385902404785156,13.891597747802734
0,427366,21.05466651916504,-18.33385467529297,-0.4051138758659363,6.345273971557617
0,427366,8.367415428161621,-6.808839321136475,-4.555375576019287,2.6370036602020264
0,427366,-40.23457717895508,10.086484909057617,10.35568904876709,11.607184410095215
0,427367,-41.105918884277344,16.014652252197266,16.23616600036621,19.627960205078125
0,427367,-37.73940658569336,15.272555351257324,-9.46371841430664,34.69509506225586
0,427367,-33.46870040893555,-2.0688552856445312,-14.89051342010498,61.567989349365234
0,427367,-0.40691250562667847,1.7951794862747192,5.665826797485352,41.45409393310547
0,427367,26.456871032714844,11.435556411743164,14.590706825256348,25.618362426757812
0,427367,57.241310119628906,18.416542053222656,3.368386745452881,6.580158710479736
0,427368,44.81060791015625,3.0059540271759033,13.990364074707031,7.559571743011475
0,427368,2.9787485599517822,-12.525043487548828,5.292702674865723,17.826393127441406
0,427368,5.2526164054870605,14.116509437561035,-33.6156120300293,-49.654998779296875
0,427368,0.16647209227085114,-3.969999313354492,-25.31733512878418,-54.08271789550781
0,427368,-34.105064392089844,-20.67104148864746,14.881769180297852,-11.066062927246094
0,427368,-48.763587951660156,14.86510181427002,11.74022388458252,-27.23564338684082
0,427369,-3.710219144821167,11.60429859161377,-13.170138359069824,-36.56293487548828
0,427369,16.040197372436523,-46.67929458618164,-1.8346439599990845,-9.631763458251953
0,427369,-27.09314727783203,-25.112974166870117,8.926124572753906,20.6920108795166
0,427369,27.873798370361328,31.126611709594727,-10.894444465637207,14.40700912475586
0,427369,49.542362213134766,6.484322547912598,-4.340860366821289,-10.05068302154541
0,427369,-5.715447425842285,-30.001462936401367,8.498983383178711,-0.24254174530506134
0,427370,14.820262908935547,-7.039445400238037,-9.264370918273926,10.253276824951172
0,427370,5.237443923950195,32.65525436401367,10.269471168518066,-7.9349446296691895
0,427370,-24.90828514099121,0.6089808344841003,24.33193588256836,3.543896436691284
0,427370,-18.944711685180664,8.427425384521484,-6.760079860687256,18.291873931884766
0,427370,-1.8458671569824219,21.115476608276367,-12.981385231018066,-6.341674327850342
0,427370,17.319225311279297,-22.77133560180664,-3.662630796432495,-12.063979148864746
0,427371,4.7562456130981445,1.2920129299163818,3.635470151901245,11.633580207824707
0,427371,4.998533725738525,12.017719268798828,-3.6104180812835693,-3.3667094707489014
0,427371,13.697892189025879,-29.076759338378906,-0.6493633389472961,10.262001991271973
0,427371,6.7398505210876465,6.705597400665283,22.244665145874023,18.840076446533203
0,427371,6.962865829467773,21.183135986328125,-11.841279983520508,-45.78274917602539
0,427372,2.978538990020752,-27.919010162353516,-22.038232803344727,-32.451499938964844
0,427372,-11.065153121948242,-6.403213024139404,17.077089309692383,32.439842224121094
0,427372,-11.545029640197754,23.872385025024414,-0.49139365553855896,8.432718276977539
0,427373,-22.632675170898438,-34.89921569824219,-33.26673126220703,-18.364641189575195
0,427373,-24.864595413208008,-42.26016616821289,-1.8123513460159302,19.43551254272461
0,427374,18.33903694152832,29.84782600402832,8.817858695983887,4.3870673179626465
0,427374,12.426023483276367,8.501511573791504,-6.101589202880859,-18.18655776977539
0,427374,1.471464991569519,-10.520709991455078,15.305253982543945,15.352322578430176
0,427375,18.241077423095703,0.12960518896579742,16.19163703918457,-24.44633674621582
0,427376,-65.89808654785156,29.541990280151367,18.416093826293945,-30.43715476989746
0,427378,-121.0040512084961,37.47759246826172,-13.43616771697998,82.33441925048828
0,427380,81.78076934814453,-90.40357971191406,-57.222816467285156,14.219834327697754
0,427382,237.26910400390625,-80.44731140136719,-4.672791957855225,-109.47950744628906
0,427384,252.1699981689453,43.60721206665039,18.9796085357666,-97.16142272949219
0,427386,95.34225463867188,58.00320053100586,25.98077392578125,21.83573341369629
0,427388,-349.543212890625,72.62080383300781,57.81099319458008,87.28876495361328
0,427390,-280.9202880859375,34.14508819580078,-6.50441312789917,-19.230772018432617
0,427392,81.27069091796875,-61.5635871887207,-80.02290344238281,85.81922912597656
0,427394,25.495765686035156,-31.897584915161133,-4.42597770690918,32.1256103515625
0,427396,-67.15992736816406,79.8354721069336,78.69091796875,-85.43022155761719
0,427398,-97.75676727294922,47.251190185546875,6.674118518829346,110.39238739013672
0,427400,58.13060760498047,-103.8285140991211,-50.97524642944336,54.206382751464844
0,427402,190.5157470703125,-95.38960266113281,-30.305194854736328,-66.63067626953125
0,427404,195.29342651367188,15.212823867797852,15.604071617126465,-87.23294067382812
0,427406,109.17718505859375,43.329219818115234,30.817075729370117,-84.77582550048828
0,427409,-313.11614990234375,66.86563873291016,9.711453437805176,47.9481086730957
0,427410,-246.84812927246094,16.822460174560547,4.9468092918396,79.02429962158203
0,427413,151.36412048339844,-23.715572357177734,-10.187063217163086,28.37953758239746
0,427414,109.07073211669922,6.371739864349365,-21.604829788208008,14.56887435913086
0,427538,-124.58456420898438,-32.1146125793457,-19.534257888793945,-46.620609283447266
0,427539,-150.86746215820312,-11.954450607299805,21.47620391845703,-36.12833023071289
0,427539,54.3931884765625,39.07211685180664,10.363444328308105,17.623077392578125
0,427539,3.02539324760437,17.872207641601562,-24.098480224609375,15.120434761047363
0,427539,-86.57799530029297,-21.798690795898438,20.900449752807617,49.69334411621094
0,427539,21.857580184936523,-18.438152313232422,4.39853048324585,24.72864532470703
0,427539,100.5238265991211,-4.574292182922363,-30.10423469543457,-28.642656326293945
0,427540,131.8261260986328,-41.942806243896484,4.043818950653076,-11.54738998413086
0,427540,130.8142852783203,-38.71927261352539,11.033782005310059,-32.3692626953125
0,427540,98.079345703125,13.005810737609863,-14.42518424987793,-41.44655227661133
0,427540,19.156291961669922,13.829130172729492,-0.8123697638511658,-13.569082260131836
0,427540,-32.090614318847656,29.280317306518555,31.96307373046875,-2.9090394973754883
0,427540,-47.489315032958984,35.86307907104492,9.229652404785156,12.617192268371582
0,427541,-81.9491195678711,-3.706421136856079,-7.331296443939209,23.576284408569336
0,427541,-81.69116973876953,-1.4329001903533936,13.091174125671387,3.8283112049102783
0,427541,-15.991957664489746,10.195528984069824,-11.847793579101562,-18.227155685424805
0,427541,25.417598724365234,-27.118350982666016,-27.04117202758789,9.99127197265625
0,427541,25.40114402770996,-51.81099319458008,-9.653427124023438,5.741124629974365
0,427541,50.52294921875,8.664875030517578,8.82682991027832,-26.76925277709961
0,427542,57.622459411621094,34.825584411621094,11.651665687561035,-33.72970962524414
0,427542,22.9779109954834,-10.906193733215332,-18.49224281311035,-9.760825157165527
0,427542,-27.182950973510742,-14.361788749694824,2.5184874534606934,29.506635665893555
0,427542,-56.10146713256836,19.39348030090332,33.21797180175781,27.15627670288086
0,427542,-32.16007614135742,31.843891143798828,-2.2611491680145264,6.156126976013184
0,427542,-25.43730926513672,5.986717700958252,-17.040348052978516,-13.382156372070312
0,427543,-12.261149406433105,-26.794214248657227,-3.1274120807647705,3.789057970046997
0,427543,25.095590591430664,2.910943031311035,7.631043434143066,29.669414520263672
0,427543,34.27651596069336,13.2665376663208,0.6112685203552246,-3.440185546875
0,427543,26.531587600708008,-18.977720260620117,-3.715484142303467,-13.251082420349121
0,427543,14.010836601257324,-0.19743548333644867,12.14459228515625,1.514163851737976
0,427544,7.731014728546143,11.081443786621094,-11.053552627563477,-20.403270721435547
0,427544,-6.958951473236084,-0.7284501791000366,-7.18435525894165,-2.0186455249786377
0,427544,-28.0559024810791,15.132946968078613,15.21762466430664,5.522372722625732
0,427544,-36.658329010009766,14.392603874206543,7.401724815368652,-6.167381763458252
0,427544,-46.62563705444336,-29.819509506225586,3.4965837001800537,18.74729347229004
0,427544,-23.268030166625977,-4.837462902069092,-4.636971473693848,-0.8788091540336609
0,427545,24.61590003967285,45.99788284301758,-5.447831630706787,-8.322901725769043
0,427545,22.88418197631836,4.229433059692383,1.972881555557251,6.273317813873291
0,427545,0.9674504399299622,-40.95703887939453,-4.3538994789123535,-10.397089958190918
0,427545,-6.069498538970947,-17.804967880249023,-5.62102746963501,-17.214893341064453
0,427545,6.878824234008789,15.527070999145508,23.177865982055664,11.488059043884277
0,427545,7.134922027587891,32.35207748413086,14.274707794189453,13.835380554199219
0,427546,-27.264263153076172,15.136608123779297,-10.201401710510254,-17.68634796142578
0,427546,-33.7259521484375,-9.394222259521484,4.281086444854736,13.703295707702637
0,427546,-26.312641143798828,-2.2244479656219482,0.19032351672649384,36.54948425292969
0,427546,-21.494810104370117,-8.586356163024902,-7.813311576843262,7.680472373962402
0,427546,14.667957305908203,-0.5264627933502197,5.137198448181152,-10.97655963897705
0,427546,18.16365623474121,4.729659557342529,-11.837099075317383,-12.601322174072266
0,427547,7.332245349884033,-16.90540885925293,-14.584345817565918,2.688547372817993
0,427547,14.988450050354004,-4.547842979431152,9.850980758666992,0.05273669585585594
0,427547,-2.7786076068878174,5.214297294616699,-6.199729919433594,-9.450544357299805
0,427547,-15.977127075195312,-1.6721103191375732,-11.302145004272461,1.395527958869934
0,427547,-4.087277889251709,-1.6847892999649048,-3.1588594913482666,8.74138069152832
0,427547,-13.588374137878418,-5.848867416381836,-11.928411483764648,4.2299017906188965
0,427548,-23.24934196472168,-15.316095352172852,4.709698677062988,-11.824278831481934
0,427548,24.96437644958496,-27.484277725219727,13.312846183776855,-1.7323224544525146
0,427548,24.042186737060547,2.8129751682281494,-12.621570587158203,19.591419219970703
0,427548,-21.471651077270508,29.130281448364258,-2.4073801040649414,2.4420268535614014
0,427548,-6.855701923370361,-2.409703254699707,10.250499725341797,0.07430274784564972
0,427548,27.730327606201172,-16.388263702392578,5.2782440185546875,9.263627052307129
0,427549,25.12872886657715,15.382102012634277,15.645561218261719,-3.4340946674346924
0,427549,-6.679181098937988,15.073690414428711,5.671233177185059,3.157581329345703
0,427550,-52.006221771240234,15.336126327514648,-11.265576362609863,29.0788516998291
0,427550,-21.880126953125,25.75461769104004,7.739803314208984,14.818684577941895
0,427550,30.4979190826416,-14.520416259765625,13.060696601867676,-30.17327308654785
0,427551,13.224411964416504,-10.663272857666016,-20.088464736938477,-16.17359161376953
0,427551,2.993210792541504,15.315223693847656,-4.778142929077148,17.193082809448242
0,427551,-11.828266143798828,-6.398950576782227,15.336807250976562,-3.323735475540161
0,427552,6.493082523345947,-14.394466400146484,-8.98137092590332,4.465317726135254
0,427555,0.5954771041870117,-18.634422302246094,-13.268461227416992,12.547842025756836
0,427556,-91.11100006103516,4.391260147094727,3.7341156005859375,-52.02419662475586
0,427559,-90.1424789428711,-10.070221900939941,-3.58147931098938,19.987565994262695
0,427560,143.24156188964844,-47.90532302856445,-26.17438316345215,29.70940399169922
0,427563,387.8634948730469,-43.524993896484375,-17.492223739624023,-100.7257308959961
0,427564,186.1904754638672,-31.88414192199707,2.8345229625701904,-37.16358947753906
0,427567,-213.87142944335938,128.3484649658203,45.2938232421875,7.0734052658081055
0,427568,-253.8047332763672,114.04632568359375,56.139244079589844,14.434185981750488
0,427570,-91.6491470336914,-78.75525665283203,-26.369474411010742,53.52909851074219
0,427572,-9.896232604980469,-22.590368270874023,-31.080013275146484,28.752103805541992
0,427574,10.220778465270996,21.19980239868164,8.172011375427246,2.1306838989257812
0,427576,-32.900630950927734,12.492331504821777,19.7299861907959,-25.145061492919922
0,427578,-111.40202331542969,27.918676376342773,23.367700576782227,7.956777095794678
0,427580,68.45500183105469,-57.48759460449219,-53.5369987487793,64.73355102539062
0,427582,221.29037475585938,-73.6883316040039,-49.132606506347656,6.752167701721191
0,427584,163.31295776367188,-54.13209533691406,21.025022506713867,-128.9208526611328
0,427586,67.41197204589844,45.46202850341797,30.008607864379883,-75.17529296875
0,427588,-286.9761962890625,141.39657592773438,17.014204025268555,104.14395141601562
0,427590,-218.8755340576172,-6.661747932434082,-12.973104476928711,71.82008361816406
0,427592,159.9603271484375,-79.33088684082031,-25.77806282043457,-12.60680103302002
0,427594,89.2761001586914,-20.651405334472656,4.2062602043151855,-16.44994354248047
0,427729,70.22095489501953,9.08110237121582,26.039104461669922,-70.34737396240234
0,427730,22.41644287109375,37.37385559082031,-0.6087950468063354,-41.46922302246094
0,427730,-158.78469848632812,38.674598693847656,11.371537208557129,65.13014221191406
0,427730,-116.54257202148438,-10.243202209472656,2.9166743755340576,49.43629455566406
0,427730,-50.97134780883789,-33.86099624633789,-30.7791805267334,6.978702545166016
0,427730,-2.0832624435424805,-1.5502694845199585,2.5091185569763184,6.231020450592041
0,427730,82.33389282226562,15.50002670288086,27.786195755004883,0.783776581287384
0,427731,98.05462646484375,-17.34189224243164,1.9645408391952515,-5.400085926055908
0,427731,83.93843078613281,-26.638643264770508,-30.10790252685547,-19.322288513183594
0,427731,41.25121307373047,22.040454864501953,-7.1230082511901855,-10.613036155700684
0,427731,-21.609455108642578,9.727300643920898,15.58806324005127,5.897450923919678
0,427731,-50.4490966796875,-14.1095552444458,16.974279403686523,19.92494773864746
0,427731,-66.9216537475586,28.307973861694336,13.251107215881348,10.514948844909668
0,427732,-48.494964599609375,29.81371307373047,-4.475598335266113,-3.9167282581329346
0,427732,-17.40979766845703,-11.439717292785645,-2.815861225128174,11.77931022644043
0,427732,0.20125049352645874,-15.511787414550781,-4.815423488616943,5.989940166473389
0,427732,37.10826873779297,-19.12637710571289,-22.44843101501465,-18.629409790039062
0,427732,54.619346618652344,-31.21293830871582,-14.671469688415527,-36.9708366394043
0,427733,44.59064865112305,-10.345197677612305,20.648847579956055,-6.911073207855225
0,427733,25.101634979248047,18.410749435424805,3.5089383125305176,2.7310268878936768
0,427733,-6.607024669647217,-6.0409836769104,-16.72441864013672,-25.878355026245117
0,427733,-32.045387268066406,-7.0495123863220215,13.148507118225098,2.8482754230499268
0,427733,-40.120941162109375,40.95905303955078,9.822807312011719,9.699014663696289
0,427733,-32.36888885498047,21.124223709106445,-0.47367674112319946,-8.397724151611328
0,427734,-19.315309524536133,-11.999932289123535,-6.226293563842773,22.681005477905273
0,427734,-6.340856552124023,-7.383839130401611,-3.965744972229004,19.68906593322754
0,427734,18.254329681396484,-25.930627822875977,-8.240697860717773,-17.873512268066406
0,427734,34.720027923583984,-20.146373748779297,-23.135387420654297,-13.166674613952637
0,427734,26.903736114501953,5.006723880767822,7.3675761222839355,-8.680728912353516
0,427734,17.696916580200195,7.678872108459473,26.279943466186523,2.758492946624756
0,427735,6.678492069244385,19.004255294799805,11.512572288513184,22.718379974365234
0,427735,-11.840742111206055,9.612405776977539,-8.97607135772705,-3.6423370838165283
0,427735,-28.90792465209961,10.48772144317627,-16.745105743408203,-22.569292068481445
0,427735,-49.00109100341797,8.451056480407715,8.65965461730957,-1.891869306564331
0,427735,-31.953529357910156,-6.19498872756958,20.81035614013672,4.085193157196045
0,427735,-4.0529398918151855,-0.027934480458498,-2.588195323944092,16.93052864074707
0,427736,10.508844375610352,-4.269932746887207,-12.28243350982666,3.977346181869507
0,427736,33.50840759277344,-10.545743942260742,4.33671236038208,-5.510342121124268
0,427736,1.6074625253677368,5.211160182952881,0.14602850377559662,9.422531127929688
0,427736,-3.7334043979644775,16.45447540283203,-13.417723655700684,-13.821906089782715
0,427736,5.034485816955566,-22.697534561157227,15.827939987182617,19.043594360351562
0,427736,-19.062118530273438,-3.760692596435547,16.172239303588867,27.386281967163086
0,427737,-3.0545706748962402,21.290987014770508,-15.953097343444824,-8.6612548828125
0,427737,4.676897048950195,-13.042245864868164,-21.95016098022461,17.143917083740234
0,427737,-8.33246898651123,-2.201544761657715,-6.653287410736084,17.360309600830078
0,427737,5.202115058898926,-3.7292585372924805,25.716854095458984,-10.735650062561035
0,427737,27.504344940185547,-9.146265983581543,7.896255016326904,-13.547449111938477
0,427737,7.091981410980225,-10.632940292358398,-21.022497177124023,2.116853952407837
0,427738,8.191359519958496,-0.04504146799445152,-4.222619533538818,3.3972742557525635
0,427738,38.68475341796875,25.83062744140625,11.776607513427734,-12.455530166625977
0,427738,15.632770538330078,-17.2960147857666,-9.916177749633789,-15.493575096130371
0,427738,-35.238670349121094,-25.181909561157227,-20.04311752319336,-14.252059936523438
0,427738,-5.243097305297852,7.161012649536133,7.804687976837158,0.40817439556121826
0,427739,36.976844787597656,0.7763692140579224,1.760215401649475,24.678258895874023
0,427739,-7.820169448852539,10.273080825805664,5.364955902099609,14.552874565124512
0,427739,-9.604161262512207,0.4954579472541809,8.539461135864258,-6.29854679107666
0,427739,22.689247131347656,-6.732838153839111,0.2579611539840698,0.600244402885437
0,427739,24.545522689819336,17.7399959564209,9.047112464904785,1.9438304901123047
0,427739,19.926862716674805,-3.122638463973999,-7.4882612228393555,-19.561613082885742
0,427740,-10.953948020935059,-13.32650089263916,-2.8849406242370605,-17.831594467163086
0,427740,-20.602392196655273,11.696310997009277,3.425889253616333,10.099947929382324
0,427740,15.116985321044922,6.589344501495361,-4.568090915679932,-10.164311408996582
0,427740,17.197725296020508,-2.7490041255950928,5.719458103179932,-15.74234390258789
0,427740,-12.868401527404785,-2.1268670558929443,11.283811569213867,19.24683380126953
0,427740,-15.523686408996582,-3.344238042831421,5.127805709838867,-8.746125221252441
0,427741,0.2682955861091614,-12.487839698791504,-9.58810806274414,-23.55337142944336
0,427741,3.3678321838378906,-2.463376760482788,-17.86135482788086,-0.6408593058586121
0,427742,90.77452087402344,-18.53546142578125,-12.073256492614746,5.631966590881348
0,427742,90.53047180175781,-25.087377548217773,5.039576053619385,7.235726356506348
0,427742,-66.9859848022461,20.77307891845703,2.210874319076538,5.771073341369629
0,427742,-41.397212982177734,-3.8890128135681152,-6.221296310424805,12.047141075134277
0,427743,0.13896863162517548,11.577043533325195,12.197624206542969,8.653532981872559
0,427743,-28.000587463378906,25.544811248779297,5.218761920928955,-5.275713920593262
0,427743,-7.596919059753418,-16.11940574645996,-13.739891052246094,1.2314321994781494
0,427744,31.798233032226562,1.8075634241104126,-9.996350288391113,-11.28012752532959
0,427746,-4.443704605102539,10.436741828918457,27.588191986083984,-67.8875503540039
0,427748,-230.8511962890625,77.66796875,63.83576202392578,-27.159177780151367
0,427750,-199.3560333251953,71.25444793701172,-12.153369903564453,83.5794677734375
0,427752,39.03342819213867,-29.506858825683594,-44.58427047729492,59.41693115234375
0,427754,38.68726348876953,-17.596620559692383,23.827598571777344,-5.802802562713623
0,427756,-53.42893600463867,15.711454391479492,31.237905502319336,-9.864889144897461
0,427758,-93.22053527832031,-21.43920135498047,-21.568626403808594,5.676139831542969
0,427760,158.21697998046875,-84.76785278320312,-46.40208435058594,30.396894454956055
0,427762,323.2745361328125,-62.15796661376953,-10.296134948730469,-1.9320096969604492
0,427764,214.93150329589844,-5.939277172088623,-4.504781246185303,-84.78414154052734
0,427766,61.456153869628906,49.414119720458984,9.468920707702637,-64.89496612548828
0,427768,-321.08154296875,37.962806701660156,2.2761964797973633,97.98477172851562
0,427770,-230.5826873779297,-24.423051834106445,-18.090070724487305,56.14572525024414
0,427772,127.85759735107422,0.39706823229789734,26.923202514648438,-84.45732879638672
0,427774,49.08125686645508,6.128944396972656,31.909927368164062,22.942729949951172
0,427776,-93.06755828857422,55.18537521362305,-4.481068134307861,52.661163330078125
0,427778,-141.2680206298828,45.499202728271484,-13.993780136108398,-22.525972366333008
0,427780,111.92959594726562,-117.07390594482422,-24.1549129486084,-12.88061237335205
0,427782,227.22897338867188,-70.55619812011719,-30.11420440673828,2.4677460193634033
0,427785,120.27789306640625,56.16373062133789,15.531356811523438,-36.74039840698242
0,427786,32.979923248291016,27.06682777404785,59.04303741455078,-60.57872772216797
0,427789,-287.48309326171875,44.98062515258789,32.15927505493164,39.888160705566406
1,427935,-198.5076904296875,4.838652610778809,-41.0493049621582,92.64007568359375
1,427935,161.77220153808594,-62.42887496948242,-30.59609031677246,-12.750802993774414
1,427935,146.0447540283203,-3.714341402053833,9.530972480773926,-75.09901428222656
1,427935,-25.53310775756836,30.249235153198242,15.485203742980957,-5.652075290679932
1,427935,-91.0990219116211,32.363914489746094,11.370173454284668,16.94359016418457
1,427935,-109.40520477294922,15.60364055633545,-11.92143440246582,9.714506149291992
1,427936,-114.20938873291016,15.447176933288574,-3.224381685256958,35.629852294921875
1,427936,-18.94504165649414,12.434821128845215,3.8247900009155273,32.24889373779297
1,427936,43.86362838745117,-22.608280181884766,1.027907133102417,23.087169647216797
1,427936,65.15179443359375,-35.4691162109375,-4.3344502449035645,-7.103928565979004
1,427936,120.13728332519531,-20.810422897338867,-19.944625854492188,-40.85488510131836
1,427937,103.18331909179688,-0.9470639824867249,-21.12720489501953,-17.872516632080078
1,427937,33.407249450683594,-28.3371639251709,5.942752838134766,15.479558944702148
1,427937,-2.5326483249664307,-5.625240325927734,21.557777404785156,-10.358166694641113
1,427937,-43.28418731689453,26.57750701904297,4.1334638595581055,-21.425884246826172
1,427937,-68.78820037841797,-0.7679988145828247,-3.766116142272949,19.91127586364746
1,427937,-41.08045196533203,17.318756103515625,1.3122119903564453,12.824227333068848
1,427938,-22.86162567138672,2.308473825454712,-14.143988609313965,2.604104995727539
1,427938,-9.683655738830566,-22.41684341430664,-5.236214637756348,10.484325408935547
1,427938,41.634246826171875,-21.930755615234375,-3.5244061946868896,-11.42110824584961
1,427938,60.201663970947266,-50.00728225708008,-10.734766006469727,-15.447505950927734
1,427938,67.20606231689453,-3.391472339630127,12.788688659667969,-31.21198844909668
1,427938,44.305355072021484,32.61065673828125,-1.2677381038665771,-25.358652114868164
1,427939,-13.714693069458008,3.6024203300476074,-9.227724075317383,10.302311897277832
1,427939,-16.49847412109375,15.502965927124023,-0.12831348180770874,11.835976600646973
1,427939,-42.74424362182617,12.751924514770508,8.121464729309082,3.813131093978882
1,427939,-56.03270721435547,20.87224769592285,22.39231300354004,-3.311412811279297
1,427939,-11.0394287109375,24.750965118408203,6.911943435668945,8.586732864379883
1,427939,7.217138290405273,-18.400249481201172,-2.8153319358825684,14.441162109375
1,427940,37.48209762573242,-20.651670455932617,-15.683544158935547,1.8535858392715454
1,427940,54.98310089111328,9.222288131713867,-12.046029090881348,-13.923079490661621
1,427940,30.051321029663086,10.89606761932373,18.3029727935791,-19.86865997314453
1,427940,12.5643310546875,-13.64499568939209,6.908316135406494,-0.7558044791221619
1,427940,-6.2778706550598145,9.529314041137695,-13.670257568359375,-5.169856548309326
1,427941,-23.48317527770996,-5.34848690032959,-2.1008858680725098,18.833749771118164
1,427941,-47.40752410888672,-32.512664794921875,14.010808944702148,13.509725570678711
1,427941,-24.137941360473633,21.78640365600586,-11.140530586242676,-15.141998291015625
1,427941,13.58625316619873,16.997941970825195,6.887873649597168,31.003387451171875
1,427941,-20.94957160949707,-22.11712646484375,19.879167556762695,8.080960273742676
1,427941,7.494637489318848,-9.273865699768066,-17.672109603881836,-22.31867027282715
1,427942,54.31930923461914,11.257966041564941,-8.443187713623047,6.880391597747803
1,427942,26.103124618530273,-0.41565853357315063,1.3126592636108398,-1.046698808670044
1,427942,-3.8594086170196533,-7.975791931152344,0.37752068042755127,-15.097620010375977
1,427942,-21.22128677368164,14.787075996398926,8.540571212768555,-12.834406852722168
1,427942,-2.2210144996643066,12.577216148376465,14.972081184387207,-16.041152954101562
1,427942,16.95390510559082,-7.763526439666748,-0.05618900805711746,-5.311513900756836
1,427943,-11.777203559875488,2.29641056060791,-6.731444835662842,24.330305099487305
1,427943,-24.998146057128906,17.201791763305664,9.873147964477539,9.385883331298828
1,427943,-5.40314245223999,-10.247233390808105,-16.496557235717773,-17.052906036376953
1,427943,-12.66935920715332,-27.438350677490234,-13.940815925598145,5.391190052032471
1,427943,14.485869407653809,13.196175575256348,30.0156307220459,2.044678211212158
1,427943,29.814516067504883,25.641813278198242,-5.527670383453369,-12.161208152770996
1,427944,-12.780467987060547,-8.180150032043457,-30.181358337402344,24.54590606689453
1,427944,-21.267536163330078,-31.87793731689453,20.57269859313965,14.341841697692871
1,427944,-10.969051361083984,2.688582420349121,24.31838607788086,-6.853663444519043
1,427944,-7.819042205810547,33.885921478271484,-9.059502601623535,13.41427993774414
1,427944,-7.274908542633057,9.113431930541992,-1.7635111808776855,-15.108874320983887
1,427944,-7.412324905395508,8.480732917785645,-14.041487693786621,-23.467832565307617
1,427945,-6.112947940826416,6.022511005401611,-12.586517333984375,17.697826385498047
1,427945,-10.609659194946289,-8.513262748718262,29.98088836669922,11.251858711242676
1,427945,-2.2205100059509277,10.75329875946045,5.618773460388184,-26.410219192504883
1,427945,15.806243896484375,11.147900581359863,-25.8597412109375,-12.078804969787598
1,427945,-5.341424465179443,-10.935145378112793,13.385913848876953,16.425430297851562
1,427945,-12.016319274902344,-0.7006064653396606,29.07396697998047,13.791325569152832
1,427946,-16.160762786865234,-0.33248624205589294,-23.489273071289062,10.434735298156738
1,427946,-30.54210090637207,6.263445854187012,-15.529281616210938,12.690488815307617
1,427946,-15.930276870727539,11.167129516601562,23.799463272094727,8.262399673461914
1,427946,-0.5879234671592712,-31.156362533569336,-6.4395527839660645,-11.921092987060547
1,427946,5.568941593170166,-21.186277389526367,-11.664258003234863,4.329882621765137
1,427946,2.5891661643981934,16.029041290283203,-6.694148540496826,11.942084312438965
1,427947,7.8468098640441895,-0.8117437958717346,-5.689609527587891,-16.379850387573242
1,427947,-2.611635446548462,-13.457512855529785,4.43421745300293,-3.3513474464416504
1,427947,-11.543442726135254,-0.9798116683959961,-5.942007541656494,4.336519241333008
1,427948,-62.99046325683594,10.773764610290527,4.689023971557617,19.704124450683594
1,427948,-37.45610046386719,-1.8683335781097412,8.486346244812012,28.5163631439209
1,427949,101.56057739257812,-7.174516201019287,-10.716714859008789,-22.329652786254883
1,427949,35.242820739746094,-2.90657639503479,-9.761795997619629,-20.48160171508789
1,427949,-54.67365264892578,-6.642106533050537,9.644081115722656,12.252289772033691
1,427949,1.5280529260635376,8.562740325927734,11.595224380493164,-4.281765937805176
1,427949,39.168601989746094,14.77465534210205,-6.742432594299316,-19.770137786865234
1,427951,-9.228450775146484,-6.290484428405762,-12.098069190979004,17.398162841796875
1,427952,-43.472572326660156,-30.620677947998047,-1.5400335788726807,35.296993255615234
1,427955,19.744998931884766,-16.8706111907959,17.692886352539062,-37.93487548828125
1,427956,-52.62094497680664,23.02065086364746,-8.727448463439941,-94.60151672363281
1,427959,-88.27291107177734,-9.40601921081543,-31.58607292175293,49.82302474975586
1,427960,152.6304473876953,-30.394943237304688,-3.0889499187469482,128.56373596191406
1,427963,372.50555419921875,-27.550701141357422,-8.486891746520996,-72.09114837646484
1,427964,185.95411682128906,-16.805622100830078,13.917509078979492,-116.72516632080078
1,427967,-248.27780151367188,87.55817413330078,55.29787826538086,-15.716779708862305
1,427968,-276.75115966796875,62.17936706542969,10.749171257019043,18.198171615600586
1,427971,-53.44214630126953,-21.382110595703125,-34.274505615234375,99.786376953125
1,427972,14.294868469238281,2.705021858215332,-2.04994535446167,60.186920166015625
1,427975,45.15302658081055,7.391420841217041,22.390661239624023,-97.8902816772461
1,427976,-53.68463134765625,19.232900619506836,19.442975997924805,-19.158103942871094
1,427979,-117.69609832763672,-17.139591217041016,-25.256338119506836,96.28968811035156
1,427980,81.18559265136719,-75.52481842041016,-53.6328125,-3.1784870624542236
1,427983,312.8877258300781,-49.84343719482422,-0.8529176115989685,-90.48699188232422
1,427984,175.44717407226562,3.5943024158477783,28.42262077331543,-47.40925216674805
1,427987,-255.26553344726562,75.92365264892578,32.852684020996094,28.353923797607422
1,427988,-261.62255859375,62.98305130004883,9.957676887512207,64.07173919677734
1,427991,22.823875427246094,-9.715852737426758,-20.989538192749023,30.34925651550293
1,427992,94.40279388427734,-31.345531463623047,-20.400737762451172,-32.02975082397461
1,428764,310.16900634765625,-73.92176055908203,8.809919357299805,-68.5165023803711
1,428767,106.226318359375,15.368961334228516,28.60000228881836,-7.171483039855957
1,428768,-439.7134704589844,101.85424041748047,-14.61324405670166,70.34700775146484
1,428771,-190.19711303710938,11.351547241210938,-7.939985275268555,-2.7094273567199707
1,428772,28.8609561920166,-20.175569534301758,31.295930862426758,19.495988845825195
1,428775,-137.15444946289062,-0.09463503956794739,-3.6223652362823486,53.71540832519531
1,428776,-74.60497283935547,7.639664649963379,-28.403100967407227,-22.156652450561523
1,428785,480.837890625,-95.61099243164062,-18.36761474609375,-57.14264678955078
1,428785,490.3123474121094,-70.96691131591797,-4.165994167327881,-61.753089904785156
1,428785,-260.7603454589844,63.18234634399414,2.5151538848876953,20.443462371826172
1,428785,-157.65338134765625,10.450258255004883,6.662416934967041,38.775390625
1,428787,21.25985336303711,-0.4408758580684662,5.040070056915283,-11.634197235107422
1,428788,-175.7375030517578,53.84311294555664,-10.193408012390137,6.656888484954834
1,428791,-92.87525177001953,23.0260009765625,20.455814361572266,41.428165435791016
1,428792,-32.33634567260742,-35.475257873535156,15.135823249816895,37.732486724853516
1,428795,-67.8879165649414,11.5823392868042,-13.351399421691895,-35.576751708984375
1,428796,-109.05150604248047,43.35662078857422,17.349761962890625,7.910092353820801
1,428799,94.22222900390625,-83.28263854980469,-42.278682708740234,64.82066345214844
1,428800,277.7573547363281,-121.4813461303711,-70.81245422363281,-43.635032653808594
1,428803,230.0435333251953,21.45220184326172,32.139949798583984,-94.03164672851562
1,428804,94.69799041748047,80.55494689941406,62.10103988647461,-48.43174362182617
1,428807,-263.83251953125,93.41633605957031,29.294145584106445,35.22111129760742
1,428808,-224.98365783691406,45.889404296875,12.433521270751953,46.95632553100586
1,428811,103.68531036376953,-58.915260314941406,-13.42045783996582,-7.264890193939209
1,428835,-46.079017639160156,-15.44996166229248,-14.189032554626465,-1.2924023866653442
1,428835,-111.27070617675781,36.31584167480469,-3.3195908069610596,0.5804934501647949
1,428835,33.84307861328125,-1.3583163022994995,-12.903647422790527,2.8761143684387207
1,428835,-19.785396575927734,-22.354890823364258,6.306924819946289,30.145858764648438
1,428835,-50.45417404174805,-3.617663621902466,22.398723602294922,40.19107437133789
1,428835,-22.465431213378906,10.618916511535645,-11.620585441589355,17.675806045532227
1,428836,21.743831634521484,-10.969045639038086,-31.138229370117188,-23.193456649780273
1,428836,98.54060363769531,-32.09434509277344,11.735360145568848,-22.297809600830078
1,428836,112.06684875488281,-14.576610565185547,-2.967041254043579,-19.207866668701172
1,428836,83.65428924560547,-23.99429702758789,-28.196069717407227,-19.388017654418945
1,428836,43.25735092163086,-5.315789699554443,16.258813858032227,20.54900550842285
1,428837,14.201310157775879,33.707557678222656,7.123448371887207,8.030619621276855
1,428838,10.858917236328125,-37.680213928222656,-8.52843952178955,-32.70602035522461
1,428838,-29.91115379333496,-38.26836013793945,1.7853131294250488,-13.25922679901123
1,428841,88.06861114501953,5.394689083099365,-38.198421478271484,-21.63213348388672
1,428842,202.1656951904297,-33.85696029663086,-11.270485877990723,-44.46249771118164
1,428845,-68.29052734375,81.4516372680664,79.4598617553711,-25.346590042114258
1,428846,-257.6225891113281,101.20001983642578,24.986162185668945,4.765700817108154
1,428849,-138.39300537109375,-58.60435104370117,-72.59272003173828,88.78704833984375
1,428850,23.622304916381836,-40.059791564941406,-6.3034796714782715,70.48690032958984
1,428853,54.033565521240234,10.885132789611816,61.21282958984375,-57.12712860107422
1,428854,-68.79283142089844,44.83242416381836,11.71981143951416,-42.283695220947266
1,428857,-168.5446014404297,54.36141586303711,-20.059289932250977,61.54323959350586
1,428858,-43.471839904785156,-75.4789810180664,-40.2539176940918,50.535369873046875
1,428893,148.2119598388672,-7.481488227844238,14.021735191345215,-40.74456787109375
1,428893,33.69504165649414,105.36517333984375,63.61332702636719,-38.520423889160156
1,428893,-79.89278411865234,-48.43494415283203,-21.184951782226562,26.307485580444336
1,428894,40.096744537353516,-54.14863586425781,-24.699108123779297,21.429828643798828
1,428894,96.14292907714844,18.194793701171875,5.903327465057373,-20.381540298461914
1,428894,88.49742126464844,-21.247901916503906,-9.772536277770996,-43.1939811706543
1,428894,48.48906326293945,-8.19660758972168,4.779006004333496,-16.504873275756836
1,428894,-37.03517150878906,32.02845001220703,6.742138385772705,10.534622192382812
1,428894,-58.960567474365234,17.214357376098633,-2.415811061859131,6.368332862854004
1,428895,-74.97402954101562,-13.337611198425293,-1.2471967935562134,37.2810173034668
1,428895,-80.67977142333984,-8.151955604553223,12.858619689941406,34.64324951171875
1,428895,-19.949142456054688,-4.168888092041016,-5.791986465454102,-3.7823374271392822
1,428895,18.86241912841797,-17.096025466918945,-27.04717445373535,5.793980121612549
1,428895,37.82050323486328,-10.439702033996582,1.2047762870788574,1.1986439228057861
1,428895,63.12628173828125,-1.9781397581100464,-6.095156669616699,-28.013206481933594
1,428896,47.251617431640625,-17.259672164916992,-13.012229919433594,-13.7196683883667
1,428896,39.267242431640625,-4.779753684997559,18.33314323425293,-6.460062026977539
1,428897,37.32600402832031,-26.206918716430664,-14.766915321350098,22.27149200439453
1,428897,-19.025493621826172,-9.595033645629883,-25.24493408203125,40.31332778930664
1,428898,25.17732048034668,31.47005844116211,24.509103775024414,-50.607460021972656
1,428900,118.37342071533203,-41.0443115234375,-5.457059860229492,-56.54656219482422
1,428902,165.26951599121094,-21.399816513061523,-16.477659225463867,-9.599133491516113
1,428904,68.11814880371094,85.06178283691406,49.623504638671875,-41.29287338256836
1,428906,-303.2497253417969,71.2713394165039,40.47718048095703,38.53871154785156
1,428908,-257.6285095214844,-1.6259260177612305,-13.572810173034668,65.29191589355469
1,428910,78.92304992675781,-42.6049919128418,-31.63825798034668,-18.316484451293945
1,428912,56.26339340209961,-12.577535629272461,-7.601369857788086,5.88046407699585
1,428914,-89.2569808959961,45.89005661010742,38.355003356933594,0.138214573264122
1,428916,-172.83299255371094,29.454376220703125,17.856111526489258,23.412979125976562
1,428918,36.71895980834961,-58.51243209838867,-43.06834411621094,60.545127868652344
1,428920,195.99008178710938,-64.0288314819336,-35.563331604003906,-34.31910705566406
1,428922,167.4913330078125,6.592046737670898,11.255372047424316,-77.68498992919922
1,428969,-135.5702362060547,65.61199188232422,29.962554931640625,-4.741285800933838
1,428969,-313.3002014160156,43.11262130737305,14.354654312133789,38.65444564819336
1,428970,193.61740112304688,-48.51858901977539,-18.482515335083008,-16.96253204345703
1,428970,232.16134643554688,-23.109943389892578,-21.34917449951172,-40.97654342651367
1,428970,-20.2044620513916,3.340648651123047,1.4404207468032837,2.241537570953369
1,428970,16.781312942504883,7.042235374450684,17.6874942779541,15.620445251464844
1,428970,-51.3707389831543,33.94587707519531,17.119428634643555,5.142411231994629
1,428970,-106.87944793701172,0.2112869769334793,3.5966105461120605,18.72179412841797
1,428971,-93.80945587158203,-7.158797264099121,-9.77789306640625,25.581802368164062
1,428971,-47.237850189208984,-0.5987215638160706,-18.687158584594727,38.02848434448242
1,428971,25.873191833496094,-20.977754592895508,5.774127960205078,32.29095458984375
1,428971,68.48518371582031,-26.66237449645996,-1.571329951286316,-17.3747501373291
1,428971,73.39877319335938,-2.74151349067688,-32.822452545166016,-12.263486862182617
1,428972,60.06498336791992,0.631320595741272,6.50285005569458,-19.713321685791016
1,428972,33.44375228881836,-38.72920227050781,10.252720832824707,-47.21492385864258
1,428972,-6.559593200683594,0.6151078343391418,3.445261240005493,-4.220765113830566
1,428972,-48.597713470458984,78.19921112060547,21.009124755859375,7.532281398773193
1,428972,-42.271671295166016,9.353642463684082,1.421170949935913,-13.171492576599121
1,428972,-31.47911834716797,-44.43741226196289,1.4713722467422485,24.612394332885742
1,428973,-48.62177276611328,20.530920028686523,-13.552603721618652,33.36093521118164
1,428973,-14.871121406555176,0.1964339017868042,-10.953746795654297,-0.4933188855648041
1,428973,44.18577194213867,-25.484458923339844,10.833311080932617,-10.781617164611816
1,428973,53.57300567626953,13.037520408630371,-11.350470542907715,-23.14847755432129
1,428974,-30.051746368408203,20.524423599243164,12.668956756591797,3.443626642227173
1,428975,-50.65390396118164,24.57732391357422,25.48056411743164,26.655847549438477
1,428975,60.92980194091797,11.360443115234375,-5.850039005279541,-18.74713897705078
1,428976,-0.028910338878631592,-20.897525787353516,16.605070114135742,28.548908233642578
1,428979,41.249061584472656,-81.94357299804688,-40.31201171875,67.97967529296875
1,428980,179.97381591796875,-55.518856048583984,-86.47013092041016,-28.139169692993164
1,428983,135.53353881835938,42.5853157043457,33.876712799072266,-238.12432861328125
1,428984,-3.093860149383545,44.360252380371094,83.50390625,-199.7289581298828
1,428987,-289.2458801269531,72.87725830078125,19.905099868774414,335.6942138671875
1,428988,-179.58990478515625,8.275047302246094,-26.499113082885742,288.7956237792969
1,428991,119.43995666503906,-84.72710418701172,-12.690718650817871,-213.08314514160156
1,428992,32.29692459106445,-14.838982582092285,-6.0573930740356445,-146.6124725341797
1,428995,-123.2408218383789,44.50269317626953,-7.525767803192139,43.47408676147461
1,428996,-132.82940673828125,59.178157806396484,13.378172874450684,49.17566680908203
1,429051,140.53050231933594,11.939131736755371,16.50834083557129,30.764265060424805
1,429051,139.29837036132812,-23.553462982177734,20.029273986816406,47.41739273071289
1,429051,-162.59457397460938,-7.795551300048828,-12.83108139038086,16.80367088317871
1,429051,-43.02792739868164,-31.958391189575195,-44.60945510864258,-38.36036682128906
1,429051,107.03704071044922,-48.65239715576172,-18.507904052734375,-17.319246292114258
1,429052,85.08527374267578,-3.767057180404663,12.446784973144531,-1.2847235202789307
1,429052,82.27167510986328,15.936315536499023,0.8157497048377991,-21.292659759521484
1,429052,26.762605667114258,-5.462381839752197,-7.203288555145264,-31.575748443603516
1,429052,-19.669923782348633,6.1341376304626465,11.269618034362793,-7.90745210647583
1,429052,-47.68193817138672,19.648794174194336,11.724274635314941,-0.782613217830658
1,429052,-67.54682159423828,16.28285789489746,2.858055830001831,2.0405235290527344
1,429053,-66.58138275146484,6.3625969886779785,-2.998542308807373,12.288681030273438
1,429053,-38.21159744262695,5.435533046722412,10.946130752563477,11.979931831359863
1,429053,5.571772575378418,11.923176765441895,9.930689811706543,-0.3049400746822357
1,429053,28.29888153076172,-26.460708618164062,-26.63494110107422,-11.13650131225586
1,429053,41.76667785644531,-33.387939453125,8.754755020141602,3.113893985748291
1,429054,55.063106536865234,22.686532974243164,21.23406982421875,-18.119585037231445
1,429054,12.411365509033203,16.294048309326172,-17.38068962097168,-21.884471893310547
1,429054,-25.20293617248535,-13.264575004577637,-5.728190898895264,25.051660537719727
1,429054,-13.321654319763184,15.655893325805664,-5.4317307472229,-5.058769702911377
1,429054,-56.65017318725586,11.385005950927734,13.157468795776367,-9.617033004760742
1,429054,-73.21656799316406,-13.348954200744629,29.035213470458984,45.873714447021484
1,429055,-6.474934101104736,5.39084529876709,-5.015787601470947,24.750051498413086
1,429055,24.67386245727539,-1.4478044509887695,-24.426708221435547,6.9866132736206055
1,429055,29.465198516845703,-29.034000396728516,-15.97787094116211,6.406966686248779
1,429055,39.06413269042969,-17.730382919311523,8.015669822692871,-7.730119228363037
1,429055,28.2220401763916,14.712128639221191,13.88604736328125,-10.022951126098633
1,429057,42.79054641723633,17.53727149963379,-9.622710227966309,-11.806303024291992
1,429057,36.81330871582031,-28.488367080688477,-11.097307205200195,17.179367065429688
1,429057,-15.944400787353516,-26.502145767211914,-5.4903645515441895,9.764737129211426
1,429058,42.89057922363281,12.582450866699219,-9.005793571472168,-39.07292175292969
1,429060,134.10153198242188,-18.633020401000977,-5.328802585601807,-34.40424728393555
1,429062,193.83389282226562,-22.2161865234375,6.584192276000977,-47.32040786743164
1,429064,40.75979232788086,39.45437240600586,21.331933975219727,-38.42784118652344
1,429066,-333.9390563964844,70.50153350830078,17.0339412689209,36.66487503051758
1,429068,-235.93809509277344,19.590335845947266,-2.6993165016174316,84.98506164550781
1,429070,88.23483276367188,-26.249717712402344,-9.914040565490723,55.94596481323242
1,429072,25.515666961669922,-22.446434020996094,-13.687620162963867,-79.21105194091797
1,429074,-136.84019470214844,10.731572151184082,11.580612182617188,-52.521453857421875
1,429076,-120.68496704101562,61.98827362060547,23.66290283203125,130.49612426757812
1,429078,117.87759399414062,-37.22772216796875,-22.710350036621094,69.44581604003906
1,429080,186.59237670898438,-106.68170928955078,-15.013428688049316,-75.4430923461914
1,429082,104.33980560302734,-7.586574554443359,3.4086151123046875,-97.81867218017578
1,429084,56.18998718261719,52.40825271606445,8.063881874084473,-70.02542114257812
1,429150,-316.70196533203125,71.33216094970703,22.054960250854492,144.97755432128906
1,429150,-204.9633331298828,2.690802812576294,-6.3200225830078125,149.1587677001953
1,429150,313.519775390625,-66.00881958007812,-22.093324661254883,-118.21812438964844
1,429150,138.16015625,-3.3488149642944336,-9.595746040344238,-69.2402572631836
1,429150,-76.6258316040039,29.25114631652832,16.645835876464844,25.004148483276367
1,429151,-26.735660552978516,6.008245944976807,14.915855407714844,-13.064146041870117
1,429151,-90.06792449951172,20.474124908447266,-17.513154983520508,4.249923229217529
1,429151,-107.5628433227539,8.491133689880371,-17.092662811279297,28.28839874267578
1,429151,-35.3743896484375,-15.971341133117676,-2.404783010482788,8.409307479858398
1,429151,40.78103256225586,-5.997652053833008,2.9452805519104004,-38.84364318847656
1,429151,80.88645935058594,-26.50125503540039,-3.7022979259490967,-41.942867279052734
1,429152,82.53992462158203,-30.18842124938965,4.757774353027344,-16.83342170715332
1,429152,78.09215545654297,0.5271503329277039,18.82243537902832,-25.883901596069336
1,429152,42.32221984863281,1.7929245233535767,-8.349306106567383,-40.76844024658203
1,429152,-24.604822158813477,-2.4415290355682373,-11.20832633972168,-5.190999984741211
1,429152,-55.25309371948242,22.006242752075195,14.971739768981934,16.473495483398438
1,429152,-71.65274047851562,42.672035217285156,20.59063148498535,30.706256866455078
1,429153,-59.750431060791016,5.074554920196533,18.238637924194336,33.22554397583008
1,429153,-12.961271286010742,-11.886734962463379,-11.567578315734863,3.63217830657959
1,429153,5.503159523010254,1.3213021755218506,-21.585023880004883,12.067540168762207
1,429153,35.40271759033203,-3.090543746948242,21.58245277404785,27.7737979888916
1,429153,53.310394287109375,11.042949676513672,17.107717514038086,6.875988483428955
1,429153,45.40353775024414,-1.8104349374771118,-25.336475372314453,-5.2738118171691895
1,429154,16.29609489440918,-33.078800201416016,-3.6468842029571533,19.864643096923828
1,429154,-34.86392593383789,4.693197250366211,24.82387924194336,29.603872299194336
1,429154,-34.970680236816406,38.92166519165039,0.6851308941841125,17.88007354736328
1,429154,-42.89173889160156,-1.236953854560852,-8.2501220703125,-5.640696048736572
1,429154,-54.90525436401367,-11.179084777832031,5.237137794494629,0.37714821100234985
1,429154,-14.11522388458252,3.5060346126556396,-13.914129257202148,14.365863800048828
1,429155,23.774065017700195,-19.735279083251953,-22.88509750366211,0.1585145741701126
1,429155,26.528343200683594,-23.504100799560547,-6.1911396980285645,0.8979635834693909
1,429155,20.27790641784668,10.902277946472168,-6.732158184051514,-34.443912506103516
1,429155,38.42153549194336,3.3277363777160645,-5.408133506774902,-44.53549575805664
1,429157,34.29682540893555,-63.5385627746582,3.18686842918396,3.638498067855835
1,429157,14.267167091369629,-42.40436553955078,8.598029136657715,4.2715911865234375
1,429157,-5.362443923950195,36.577720642089844,7.5199480056762695,-5.8413166999816895
1,429158,37.75081253051758,1.5185787677764893,1.023683786392212,8.970748901367188
1,429161,250.45318603515625,-39.74689483642578,-22.214296340942383,-34.831363677978516
1,429162,185.7562255859375,3.4075589179992676,-21.510822296142578,-70.25684356689453
1,429165,-216.94485473632812,100.41262817382812,49.450435638427734,-1.0814282894134521
1,429166,-251.44065856933594,90.71916961669922,44.4718017578125,52.70281982421875
1,429169,-66.34334564208984,-46.120426177978516,-31.445293426513672,65.8472671508789
1,429170,-18.830286026000977,-58.53505325317383,-30.299970626831055,6.3580803871154785
1,429173,15.400486946105957,28.070829391479492,41.267494201660156,-43.69175338745117
1,429174,-72.52593231201172,56.53214645385742,27.384973526000977,-10.230558395385742
1,429177,-131.2571258544922,-11.093278884887695,-73.11215209960938,-9.17577075958252
1,429178,88.850830078125,-46.098106384277344,-23.185436248779297,-41.83760452270508
1,429181,274.3498840332031,-59.64763641357422,15.073431015014648,81.55693054199219
1,429182,125.19402313232422,-38.057586669921875,-18.389217376708984,134.34425354003906
1,429185,-179.42855834960938,71.491943359375,49.44740295410156,-119.23321533203125
1,429186,-169.68658447265625,38.38780975341797,36.578392028808594,-38.899227142333984
1,429189,16.567636489868164,-44.9621696472168,-32.61418151855469,44.36439895629883
1,429266,97.89845275878906,2.175368070602417,-152.47776794433594,-140.65850830078125
1,429267,137.51959228515625,38.108158111572266,-152.6917266845703,-28.518417358398438
1,429267,-31.137208938598633,13.737584114074707,98.54784393310547,84.70587921142578
1,429267,-143.0339813232422,7.495690822601318,104.95468139648438,25.68724822998047
1,429267,-77.25059509277344,-3.6531331539154053,4.168556213378906,-1.2620840072631836
1,429267,-55.38283157348633,12.65593433380127,21.747432708740234,-5.00485372543335
1,429267,-24.571205139160156,7.89632511138916,16.572769165039062,8.1566801071167
1,429268,26.479618072509766,-56.46095657348633,15.589056968688965,19.186962127685547
1,429268,72.047119140625,-33.729312896728516,20.97597885131836,0.15953990817070007
1,429268,98.23389434814453,-6.121182441711426,31.293231964111328,-15.078099250793457
1,429268,76.7732925415039,-10.26101016998291,46.019813537597656,2.541412353515625
1,429268,42.7164306640625,37.97282791137695,47.721187591552734,20.27015495300293
1,429268,-16.975971221923828,12.041032791137695,-6.297449588775635,6.381584644317627
1,429269,-50.5533561706543,-8.452631950378418,1.342654824256897,29.863346099853516
1,429269,-24.364553451538086,42.338199615478516,12.856924057006836,38.35136032104492
1,429269,-37.284297943115234,3.378107786178589,-17.5003719329834,-8.411184310913086
1,429269,-7.7305402755737305,-20.84865951538086,-7.962088108062744,3.243457078933716
1,429269,43.99834442138672,17.059738159179688,-36.60102844238281,22.540910720825195
1,429269,39.696311950683594,-18.743669509887695,-13.111404418945312,-14.00528335571289
1,429270,64.87786865234375,-40.60832977294922,23.408340454101562,-12.138859748840332
1,429270,38.14375686645508,3.5784220695495605,12.811474800109863,-13.0748872756958
1,429270,-38.59370803833008,10.944597244262695,9.179144859313965,-32.3253059387207
1,429270,-52.3058967590332,7.712625980377197,-6.284049034118652,-5.838502883911133
1,429270,-54.74240493774414,2.7999250888824463,6.354119777679443,-12.67912769317627
1,429270,-78.47322082519531,11.107646942138672,-21.38527488708496,-27.585420608520508
1,429271,-82.65386199951172,13.889725685119629,-29.703828811645508,14.723040580749512
1,429271,-51.84894943237305,-19.891645431518555,-3.8148982524871826,32.731910705566406
1,429271,-10.154921531677246,-10.786136627197266,-31.858295440673828,7.464901924133301
1,429271,20.44719696044922,-1.4185603857040405,-29.02367401123047,5.3860249519348145
1,429271,7.835614204406738,-12.945538520812988,-1.8613799810409546,19.55199432373047
1,429272,16.94717788696289,-25.090221405029297,-1.9356443881988525,14.08399486541748
1,429272,17.835336685180664,-3.2296745777130127,-12.711813926696777,-3.3836042881011963
1,429272,-15.419364929199219,7.030837059020996,-2.008897542953491,-4.630930423736572
1,429272,11.1870698928833,-13.230826377868652,6.625093936920166,11.164449691772461
1,429272,18.5177001953125,22.663501739501953,-11.790480613708496,-3.3409602642059326
1,429272,-8.458795547485352,11.837328910827637,-12.647599220275879,-42.56827926635742
1,429273,-1.2675347328186035,-20.48060417175293,13.930505752563477,-16.448007583618164
1,429273,13.855677604675293,5.657561779022217,31.8577823638916,-4.124752998352051
1,429273,25.22933006286621,30.79944610595703,-2.3096461296081543,-35.091819763183594
1,429274,26.84872055053711,68.66438293457031,37.41545486450195,-1.7441234588623047
1,429274,38.44097137451172,39.80984115600586,51.10379409790039,15.886089324951172
1,429275,19.378604888916016,-50.576053619384766,-44.0357666015625,19.104965209960938
1,429275,-26.268972396850586,-9.161553382873535,-1.4014286994934082,27.600881576538086
1,429276,-13.250133514404297,-1.9764143228530884,14.690192222595215,-16.90203857421875
1,429279,117.01114654541016,-80.8095474243164,-47.2293815612793,-83.66748046875
1,429280,203.2384796142578,-60.312198638916016,-43.454925537109375,-12.694215774536133
1,429283,139.7352752685547,12.606690406799316,9.465414047241211,24.689842224121094
1,429284,-53.410247802734375,79.60575866699219,58.26996994018555,-92.38816833496094
1,429287,-324.1705322265625,79.11990356445312,17.7189998626709,18.3514461517334
1,429288,-152.7415008544922,-3.794041156768799,-22.383249282836914,131.4287567138672
1,429291,116.08851623535156,-125.09123229980469,-30.638519287109375,-26.912668228149414
1,429292,-3.3091626167297363,-78.30652618408203,-48.6502685546875,-51.88357162475586
1,429295,-173.8739776611328,134.8997039794922,38.59220886230469,65.81852722167969
1,429296,-133.95225524902344,122.95928955078125,84.41638946533203,55.69845199584961
1,429299,221.6820068359375,-87.18610382080078,-56.704917907714844,104.46357727050781
1,429300,248.15960693359375,-120.9881820678711,-63.0837516784668,52.138160705566406
1,429303,34.05149459838867,-2.220639705657959,51.62991714477539,-230.5194549560547
1,429304,-17.95644760131836,83.03227996826172,38.64404296875,-185.655029296875
1,429307,-255.07423400878906,85.83999633789062,-19.87042236328125,154.2592010498047
1,429308,-161.81321716308594,-43.25193405151367,-24.74567413330078,151.59910583496094
1,429397,143.99627685546875,-80.12410736083984,43.04861831665039,-9.500495910644531
1,429397,89.28759765625,28.238801956176758,50.54828643798828,10.346196174621582
1,429398,20.082435607910156,17.358686447143555,-23.143756866455078,-53.85751724243164
1,429398,-28.472787857055664,-3.9750821590423584,-6.5980963706970215,-53.925811767578125
1,429398,-86.9354019165039,13.868547439575195,-6.9899139404296875,14.991890907287598
1,429398,-66.2470474243164,-4.970579147338867,-15.04016399383545,20.768173217773438
1,429398,-15.05245590209961,4.142357349395752,4.942907810211182,39.49357986450195
1,429398,60.55022430419922,-21.921199798583984,-23.479103088378906,-0.2909235656261444
1,429399,109.85548400878906,-36.72864532470703,-44.26331329345703,-24.97763442993164
1,429399,90.23181915283203,-14.188276290893555,-16.327003479003906,-5.353487491607666
1,429399,68.46538543701172,0.5978042483329773,9.024718284606934,-16.01671028137207
1,429399,58.19736862182617,18.35049057006836,-5.094810485839844,-40.17668914794922
1,429399,-7.180413246154785,14.056061744689941,6.826587200164795,-25.905162811279297
1,429400,-70.73126220703125,21.314268112182617,13.120402336120605,-2.6451518535614014
1,429400,-71.99724578857422,18.24037742614746,10.591583251953125,1.4551547765731812
1,429400,-57.07355880737305,-0.9700161814689636,0.8748922348022461,30.453222274780273
1,429400,-26.445880889892578,-11.531923294067383,18.795536041259766,32.37824249267578
1,429400,14.681772232055664,-24.383014678955078,19.898658752441406,5.105817794799805
1,429400,26.67818260192871,-4.715683937072754,-31.76618194580078,11.94587516784668
1,429400,54.62310028076172,5.946109771728516,-4.655777454376221,-17.20542335510254
1,429401,45.78242111206055,-10.743066787719727,17.895183563232422,-15.247472763061523
1,429401,6.3899664878845215,-3.5174572467803955,3.193096160888672,-2.5572171211242676
1,429401,-11.373834609985352,-6.987802982330322,-4.464929103851318,-16.92304229736328
1,429401,-48.753456115722656,3.8549699783325195,-8.452178001403809,14.05394458770752
1,429401,-55.7215690612793,53.27210235595703,15.922962188720703,16.74221420288086
1,429402,-41.122314453125,25.8529052734375,11.459452629089355,9.572979927062988
1,429402,-23.720930099487305,-30.570066452026367,-7.988398551940918,11.130437850952148
1,429402,4.617119312286377,-5.9004597663879395,2.617259979248047,11.406417846679688
1,429402,30.066007614135742,18.360597610473633,13.478639602661133,3.737199544906616
1,429402,45.313621520996094,13.4981050491333,3.879467010498047,-29.892423629760742
1,429402,26.26289176940918,-17.22983741760254,-4.5104594230651855,-30.785343170166016
1,429403,-1.8785784244537354,-6.488023281097412,-10.749957084655762,-7.054152011871338
1,429403,-12.360411643981934,27.639490127563477,3.8930845260620117,-5.00462532043457
1,429403,-16.13035774230957,-6.106266021728516,15.132119178771973,0.3699270486831665
1,429403,-41.79190444946289,2.97304105758667,4.408527851104736,-2.7030181884765625
1,429403,-45.67417907714844,14.834121704101562,3.486421585083008,1.9714677333831787
1,429403,1.2715623378753662,-20.424869537353516,-19.41958999633789,14.844230651855469
1,429404,2.3873977661132812,-4.2289276123046875,-13.0665864944458,9.751575469970703
1,429404,-11.151410102844238,-3.5801234245300293,7.393853187561035,13.365194320678711
1,429404,5.469899654388428,-22.19643783569336,-17.373449325561523,2.5806243419647217
1,429404,-0.4899318218231201,2.3955869674682617,-10.909565925598145,0.6144865155220032
1,429404,16.40456199645996,3.8953959941864014,13.711653709411621,-7.4269561767578125
1,429404,17.092382431030273,-16.840595245361328,-9.024327278137207,-16.950834274291992
1,429405,-27.004911422729492,-16.566375732421875,-20.33988380432129,18.2109432220459
1,429406,-80.90325927734375,32.787349700927734,-0.18612374365329742,30.05473518371582
1,429406,-41.95198059082031,26.127246856689453,10.79098892211914,-2.049481153488159
1,429406,57.44203186035156,-28.461484909057617,13.743985176086426,6.480233669281006
1,429406,35.76750564575195,5.162895679473877,-2.475984811782837,21.74990463256836
1,429407,23.74350357055664,14.622591972351074,7.22721529006958,-8.219504356384277
1,429408,-13.35527515411377,-24.829858779907227,11.373371124267578,-2.124415874481201
1,429411,-51.80331039428711,21.540658950805664,-28.455276489257812,-22.697994232177734
1,429412,23.68233871459961,31.818986892700195,12.98648452758789,-35.00737380981445
1,429415,-66.06548309326172,-31.636648178100586,32.734127044677734,22.821338653564453
1,429416,-94.093017578125,10.344196319580078,-8.681967735290527,64.45770263671875
1,429419,249.50694274902344,-53.633060455322266,-34.382083892822266,27.332149505615234
1,429420,308.2384948730469,-112.11862182617188,-56.38673400878906,-75.1374740600586
1,429423,45.361907958984375,39.25931930541992,44.28886413574219,-217.43447875976562
1,429424,-87.64352416992188,85.5412826538086,87.33296966552734,-40.726806640625
1,429427,-250.45025634765625,57.61759567260742,-60.65037155151367,279.8545227050781
1,429428,-141.97918701171875,-6.929317951202393,-9.164078712463379,40.716285705566406
1,429431,162.13180541992188,-57.86083984375,111.14663696289062,-103.1587905883789
1,429432,124.05914306640625,30.38495635986328,15.431077003479004,27.002853393554688
1,429435,-244.0380859375,60.84420394897461,-83.66748809814453,-17.07378387451172
1,429436,-232.90264892578125,-26.61662483215332,-107.13509368896484,-1.3013824224472046
1,429439,303.8808898925781,-108.0030517578125,-68.02198791503906,74.39533233642578
1,429440,223.82997131347656,-51.85444641113281,-14.179381370544434,104.61237335205078
1,429443,-17.098758697509766,55.07283020019531,92.6512680053711,-57.47303771972656
1,429542,31.689125061035156,-34.65834426879883,77.82646942138672,-118.05728912353516
1,429542,-126.41133880615234,-72.19477081298828,-54.42192459106445,27.399316787719727
1,429543,-5.508899211883545,52.896888732910156,-45.32094192504883,-6.969413757324219
1,429543,99.56623077392578,28.05691909790039,18.8364315032959,-32.49220275878906
1,429543,4.941558837890625,-1.46380615234375,24.637527465820312,-7.636857986450195
1,429543,-5.005152225494385,53.80025863647461,35.074974060058594,-21.002107620239258
1,429543,-65.96465301513672,59.53348922729492,46.05605697631836,-8.43835163116455
1,429544,-113.47666931152344,39.34279251098633,19.768205642700195,-1.1429303884506226
1,429544,-108.3856430053711,30.92096710205078,14.60686206817627,7.142668724060059
1,429544,-64.64690399169922,5.892328262329102,-8.943236351013184,11.965276718139648
1,429544,-11.694247245788574,-18.040464401245117,-26.34183120727539,23.159862518310547
1,429544,34.099151611328125,-15.195433616638184,-10.294671058654785,3.3915188312530518
1,429544,62.21310043334961,-30.34872817993164,-1.7952401638031006,-10.483885765075684
1,429545,47.71074676513672,-26.716066360473633,13.516263008117676,-5.1186137199401855
1,429545,48.149105072021484,-13.793037414550781,13.915550231933594,-7.622952938079834
1,429545,36.84686279296875,-11.083316802978516,-26.0429630279541,-8.636003494262695
1,429545,-31.283519744873047,6.660861968994141,-2.9504218101501465,-2.8020148277282715
1,429545,-35.63031005859375,11.456246376037598,38.44566345214844,24.348575592041016
1,429545,-7.2624382972717285,3.331907033920288,-5.357400894165039,22.98540687561035
1,429546,-27.222740173339844,8.025884628295898,-27.779788970947266,-5.640273094177246
1,429546,-6.80430269241333,8.688313484191895,-15.484747886657715,9.599186897277832
1,429546,25.676172256469727,-0.8147997260093689,-21.67131996154785,13.404245376586914
1,429546,12.59099292755127,-34.04313278198242,-40.462562561035156,5.152227878570557
1,429546,16.113496780395508,-24.080795288085938,-31.005294799804688,16.670148849487305
1,429546,45.53913116455078,17.00798797607422,16.022504806518555,3.1562395095825195
1,429547,28.58963966369629,0.3743281960487366,14.232245445251465,-17.493772506713867
1,429547,-43.94192123413086,1.6952983140945435,3.086991786956787,-36.6238899230957
1,429547,-49.64940643310547,29.04058837890625,28.482667922973633,-30.440475463867188
1,429547,-23.06978988647461,8.922969818115234,37.72686767578125,-9.303378105163574
1,429547,-24.692790985107422,0.6907548308372498,29.421497344970703,-5.128127574920654
1,429547,6.381624698638916,19.22379493713379,18.34886932373047,-12.081500053405762
1,429548,28.65056037902832,5.660178184509277,1.3007227182388306,-25.632335662841797
1,429548,29.2312068939209,3.915658712387085,-22.087392807006836,-6.052483081817627
1,429548,19.19610595703125,-1.8592145442962646,5.037994861602783,17.719804763793945
1,429548,27.78761863708496,-11.440513610839844,16.754745483398438,8.536147117614746
1,429548,19.349576950073242,-1.0145512819290161,-18.881654739379883,24.783611297607422
1,429549,-31.52059555053711,-14.835371017456055,-11.77762222290039,40.93650817871094
1,429549,-40.72773361206055,-17.509708404541016,-2.3340744972229004,13.997459411621094
1,429549,-22.917558670043945,10.222025871276855,-9.683276176452637,23.68808364868164
1,429549,-21.057939529418945,-3.02003812789917,-5.952320575714111,67.94022369384766
1,429549,16.827903747558594,-23.6138858795166,-20.807424545288086,22.934518814086914
1,429549,31.095518112182617,-16.712202072143555,-31.341167449951172,-33.61818313598633
1,429550,-13.577948570251465,-16.35312843322754,7.8364739418029785,2.542330503463745
1,429550,-10.240280151367188,3.778247833251953,10.3963623046875,-4.163113117218018
1,429550,23.5675048828125,-0.4014225900173187,-6.864448547363281,-38.56595230102539
1,429550,15.531967163085938,-7.312623023986816,8.254197120666504,-20.159400939941406
1,429550,-9.221125602722168,23.215456008911133,13.89029598236084,-22.125450134277344
1,429550,7.364507675170898,31.569684982299805,2.107802629470825,-30.3156795501709
1,429551,0.5500470399856567,-4.683043956756592,-39.940155029296875,-10.81706428527832
1,429551,-30.245637893676758,-15.87639331817627,-22.491971969604492,-0.6140475273132324
1,429552,-37.05077362060547,15.224132537841797,-15.681678771972656,1.2878514528274536
1,429552,-19.695005416870117,-2.813667058944702,-43.20322799682617,20.6280574798584
1,429552,2.1059839725494385,-17.372802734375,26.72256088256836,32.634700775146484
1,429553,7.946564197540283,-0.05087323114275932,33.328453063964844,5.5582122802734375
1,429553,4.324411869049072,3.9319825172424316,-8.331317901611328,-6.650898456573486
1,429554,-71.38539123535156,-2.6439762115478516,5.344747543334961,115.65132904052734
1,429557,-5.024840354919434,-31.140710830688477,3.0531489849090576,128.72193908691406
1,429558,204.74574279785156,-15.821375846862793,51.095497131347656,-91.44354248046875
1,429561,308.8398742675781,-21.687246322631836,12.078987121582031,-189.31320190429688
1,429562,156.86158752441406,-34.89350891113281,-37.46542739868164,-93.27825164794922
1,429565,-235.46142578125,134.74325561523438,186.2539825439453,6.010302543640137
1,429566,-289.2767028808594,137.98130798339844,97.21724700927734,14.09169864654541
1,429569,-130.6256866455078,-93.54576110839844,-271.0165710449219,70.23431396484375
1,429570,-16.36701202392578,-67.91368865966797,-92.09173583984375,39.6947135925293
1,429573,135.61602783203125,35.35280990600586,144.62271118164062,-166.7905731201172
1,429574,-2.4487509727478027,51.97077941894531,64.41268920898438,-14.958251953125
1,429577,-169.7198944091797,43.064083099365234,-50.699649810791016,181.31430053710938
1,429578,-10.136881828308105,-120.64977264404297,-156.8583984375,-2.8085708618164062
1,429581,314.3611145019531,-195.0625762939453,-128.72886657714844,-11.752969741821289
1,429582,220.44467163085938,-35.2684440612793,23.887405395507812,-76.97059631347656
1,429585,-261.55487060546875,225.6115264892578,258.3708801269531,5.594171047210693
1,429586,-222.2708282470703,170.2244110107422,169.43466186523438,239.6620330810547
1,429589,102.13849639892578,-117.21833038330078,-120.93597412109375,-49.632789611816406
1,429590,92.5202865600586,-64.43058776855469,-84.29029846191406,-97.20516967773438
1,429592,-2.9813156127929688,-11.329611778259277,-8.519377708435059,35.92438888549805
1,429704,150.30722045898438,-31.576494216918945,13.28144645690918,-143.64093017578125
1,429704,116.82628631591797,80.63117980957031,67.51350402832031,-87.13429260253906
1,429704,-243.47119140625,55.162109375,12.973609924316406,100.89152526855469
1,429705,-198.7238311767578,-23.952434539794922,-41.301883697509766,70.39065551757812
1,429705,-5.963497161865234,-6.163161754608154,-17.831342697143555,27.100427627563477
1,429705,45.40211486816406,-18.95415496826172,-24.19720458984375,-0.042667098343372345
1,429705,98.96986389160156,-41.71688461303711,-33.15860366821289,-19.761089324951172
1,429705,53.757808685302734,-8.340130805969238,-7.954957008361816,4.678494453430176
1,429706,14.725428581237793,0.21512721478939056,1.083207607269287,-10.477521896362305
1,429706,-14.727531433105469,-7.227096080780029,10.72896957397461,0.1801462471485138
1,429706,-55.9731559753418,20.040477752685547,29.47058868408203,22.34860610961914
1,429706,-67.50237274169922,46.768863677978516,26.411684036254883,0.9737577438354492
1,429706,-48.09535217285156,16.16930389404297,-11.91240119934082,10.624924659729004
1,429706,-29.391355514526367,-18.039628982543945,-29.26966094970703,2.096867799758911
1,429707,-20.792980194091797,-13.946144104003906,-3.061549663543701,-24.167564392089844
1,429707,35.88794708251953,-14.577865600585938,-11.082969665527344,-6.388550758361816
1,429707,85.6004409790039,-20.2801456451416,-31.411130905151367,-8.181828498840332
1,429707,58.105228424072266,-23.172361373901367,-21.264915466308594,-21.759723663330078
1,429707,23.436080932617188,-28.424053192138672,10.925664901733398,-11.348881721496582
1,429707,10.912623405456543,-4.449769020080566,23.989957809448242,19.763519287109375
1,429708,-28.535856246948242,38.75680923461914,17.24468421936035,16.695125579833984
1,429708,-48.14426040649414,22.383481979370117,17.932552337646484,-3.7286810874938965
1,429708,-37.762290954589844,4.147604942321777,15.802989959716797,10.6683931350708
1,429708,-46.16877746582031,21.42163848876953,3.752164840698242,14.27475643157959
1,429708,4.485084056854248,10.911766052246094,-15.36231517791748,-16.71817970275879
1,429708,50.91309356689453,-16.61857032775879,2.1849379539489746,-11.81387996673584
1,429709,31.823490142822266,-19.47284698486328,21.960100173950195,21.805057525634766
1,429709,37.24386215209961,-9.900922775268555,-4.675314426422119,-2.4808907508850098
1,429709,40.3171501159668,13.612519264221191,-3.3673529624938965,-9.089794158935547
1,429709,7.998744010925293,36.63138961791992,22.605600357055664,6.799740314483643
1,429709,-11.694767951965332,-5.065501689910889,9.063889503479004,-19.15762710571289
1,429709,-22.2584171295166,-16.225975036621094,-5.932420253753662,-8.492605209350586
1,429710,-41.680233001708984,13.6889066696167,-8.882084846496582,12.4799222946167
1,429710,-33.990333557128906,3.2503480911254883,-17.95740509033203,13.944178581237793
1,429710,-8.770736694335938,-3.1111462116241455,-7.107851982116699,23.188213348388672
1,429710,14.299295425415039,-15.62222957611084,-6.022373676300049,-22.780893325805664
1,429710,39.619041442871094,-22.715505599975586,-33.22164535522461,-25.790523529052734
1,429711,24.4663143157959,-29.04052734375,-10.61435604095459,24.655765533447266
1,429711,-15.424689292907715,-7.297018527984619,27.42595863342285,-12.26953411102295
1,429711,1.7666887044906616,36.44619369506836,-9.6889066696167,-36.388916015625
1,429711,-5.868702411651611,-3.528482437133789,-24.03144073486328,2.8406245708465576
1,429711,-40.32838439941406,-13.908171653747559,22.623929977416992,11.527833938598633
1,429711,-4.6561408042907715,8.663886070251465,18.501073837280273,-9.784714698791504
1,429712,6.136192321777344,-7.309547424316406,-5.9073486328125,-1.9750847816467285
1,429712,-4.0874223709106445,5.022778034210205,-12.044703483581543,19.312156677246094
1,429712,19.662818908691406,1.3259655237197876,-4.582334995269775,8.002615928649902
1,429712,-3.4881818294525146,-4.443132400512695,3.0336759090423584,0.3405115008354187
1,429712,-3.329066276550293,17.406373977661133,7.049313545227051,-3.181262493133545
1,429712,46.682315826416016,29.23443031311035,24.459131240844727,-14.155774116516113
1,429713,4.002572536468506,1.3125306367874146,-3.337775230407715,-2.0441830158233643
1,429713,-37.3748779296875,-22.297958374023438,-18.977582931518555,12.820596694946289
1,429713,-29.853816986083984,19.481571197509766,12.57445240020752,10.801173210144043
1,429713,-25.091800689697266,16.994436264038086,6.428951263427734,9.93659782409668
1,429713,-2.9276978969573975,-11.664141654968262,-19.988744735717773,7.442888259887695
1,429713,1.581955075263977,-4.048820972442627,-4.034414768218994,3.8039402961730957
1,429714,-1.9072818756103516,-9.166149139404297,24.988656997680664,2.199131965637207
1,429715,-23.91661834716797,-21.50937271118164,-5.1153082847595215,13.030373573303223
1,429715,-1.767911434173584,-27.042762756347656,-9.992908477783203,7.286383152008057
1,429715,47.445987701416016,16.720462799072266,16.566274642944336,-12.103407859802246
1,429715,21.373079299926758,14.434439659118652,-12.380779266357422,-6.663867950439453
1,429716,13.269969940185547,-15.197402954101562,-17.661163330078125,3.4036600589752197
1,429717,61.99589920043945,0.4476223289966583,-2.831735849380493,-2.605839490890503
1,429718,125.52581024169922,-14.289203643798828,22.56942367553711,-19.043880462646484
1,429721,222.5712890625,-98.29207611083984,-44.89453125,-22.459144592285156
1,429722,117.59823608398438,-41.32392501831055,-23.84987449645996,34.236183166503906
1,429725,-229.9392852783203,169.43763732910156,158.57789611816406,78.57295989990234
1,429726,-307.4573059082031,78.36447143554688,22.327699661254883,-115.47007751464844
1,429729,-81.9930648803711,-53.463985443115234,-155.0766143798828,-181.63711547851562
1,429730,47.85197448730469,14.035759925842285,-36.27305221557617,126.36686706542969
1,429733,-4.3501877784729,36.400245666503906,121.30326080322266,9.923958778381348
1,429734,-161.97671508789062,35.802825927734375,124.59168243408203,-151.87840270996094
1,429737,-22.122379302978516,-90.2271499633789,-117.31806182861328,462.0826416015625
1,429738,249.70962524414062,-127.20604705810547,-177.92547607421875,271.8819274902344
1,429741,200.76168823242188,33.88840866088867,126.53360748291016,-524.5437622070312
1,429742,110.04410552978516,51.632484436035156,138.91799926757812,-242.7613983154297
1,429745,-236.5544891357422,53.827552795410156,-170.7490234375,114.4608383178711
1,429746,-268.1363220214844,51.56452941894531,-188.26947021484375,84.72579193115234
1,429749,160.1337432861328,-61.990291595458984,188.21910095214844,112.60848236083984
1,429750,39.12885284423828,-38.50937271118164,225.03158569335938,19.328781127929688
1,429752,-52.59903335571289,17.934961318969727,-138.07057189941406,-69.50394439697266
1,429871,63.89353942871094,-16.511749267578125,-114.77342987060547,-38.293006896972656
1,429871,-70.79542541503906,26.513851165771484,54.89347839355469,-7.681119918823242
1,429872,-130.3880157470703,59.51594543457031,48.69335174560547,8.717766761779785
1,429872,-47.66477584838867,-12.234721183776855,4.2867751121521,21.14702033996582
1,429872,14.75606918334961,-14.669889450073242,-16.43227767944336,28.274673461914062
1,429872,58.468902587890625,1.3223199844360352,-0.5548919439315796,31.906492233276367
1,429872,94.76502990722656,-39.30485153198242,-10.534327507019043,1.0909909009933472
1,429872,110.79913330078125,-15.642706871032715,-11.819649696350098,-26.042699813842773
1,429873,47.53825378417969,-9.407092094421387,2.218554973602295,-5.616959571838379
1,429873,-18.660295486450195,-5.022292613983154,15.361772537231445,-13.161273002624512
1,429873,-27.58670997619629,31.277706146240234,-8.31331729888916,-63.577877044677734
1,429873,-66.46610260009766,28.659120559692383,-22.801118850708008,-26.048336029052734
1,429873,-85.56700897216797,15.292604446411133,20.95101547241211,37.14580154418945
1,429874,-31.019765853881836,-7.441205024719238,11.491984367370605,18.627017974853516
1,429874,15.000651359558105,-25.41690444946289,-29.79009246826172,21.57404327392578
1,429874,7.278253555297852,-22.242809295654297,-5.008421897888184,43.562721252441406
1,429874,44.417747497558594,-5.412895679473877,7.214069843292236,19.768260955810547
1,429874,94.35639953613281,2.951059341430664,-14.377964973449707,-8.336207389831543
1,429874,54.05834197998047,-15.828969955444336,-10.055220603942871,-1.060717225074768
1,429874,-16.10960578918457,-2.7071993350982666,13.750186920166016,-5.483879566192627
1,429875,-25.023279190063477,29.80526351928711,17.314062118530273,-25.586137771606445
1,429875,-3.042518377304077,-17.404735565185547,15.958195686340332,-14.982122421264648
1,429875,-43.74406051635742,-13.559555053710938,23.904848098754883,1.760338306427002
1,429875,-64.5774917602539,31.395797729492188,1.617153286933899,15.80044937133789
1,429875,1.713971495628357,-5.7721967697143555,0.01676858775317669,1.398764729499817
1,429876,51.66387176513672,-32.940834045410156,-42.895511627197266,-13.661481857299805
1,429876,41.73977279663086,-19.169132232666016,-56.60377883911133,-13.090278625488281
1,429876,18.827241897583008,-0.26651617884635925,3.1108150482177734,6.6650519371032715
1,429876,27.37787437438965,2.722381830215454,-5.271738529205322,15.982888221740723
1,429876,22.283857345581055,17.910442352294922,-1.0817064046859741,-1.9461475610733032
1,429876,-11.970051765441895,12.463789939880371,-1.9624338150024414,-20.703170776367188
1,429877,-35.701045989990234,5.797276496887207,9.112580299377441,-36.11430358886719
1,429877,-23.34710121154785,15.675783157348633,21.201385498046875,-16.64936637878418
1,429877,-12.883666038513184,-7.454278945922852,-27.215517044067383,4.027087688446045
1,429877,-6.764746189117432,-5.256150722503662,14.408781051635742,-2.0824849605560303
1,429877,14.924420356750488,-9.228765487670898,50.13408279418945,1.5714983940124512
1,429877,5.932876110076904,-6.264580249786377,7.3190789222717285,10.3145751953125
1,429878,17.685365676879883,27.752819061279297,4.743168830871582,-23.98329734802246
1,429878,24.583816528320312,-5.954257965087891,-10.101570129394531,-27.352758407592773
1,429878,-7.275107383728027,-36.91275405883789,-20.65609359741211,18.571380615234375
1,429878,-14.371431350708008,12.832925796508789,6.8752760887146,6.999228477478027
1,429878,-9.871305465698242,25.766677856445312,10.507384300231934,1.6657482385635376
1,429878,-10.83073902130127,-18.669387817382812,-6.030417442321777,36.610172271728516
1,429879,-3.3811795711517334,0.8322691321372986,-14.95649242401123,21.752351760864258
1,429879,-3.206799268722534,24.80445671081543,-4.391635417938232,13.197120666503906
1,429879,30.643896102905273,-5.484095096588135,9.393514633178711,17.65040397644043
1,429879,43.944637298583984,-9.39588737487793,9.079469680786133,-6.664250373840332
1,429879,-1.1496533155441284,0.7495175004005432,24.046789169311523,-6.367427825927734
1,429879,3.8329877853393555,-1.4126495122909546,16.543399810791016,-24.900245666503906
1,429880,31.502962112426758,3.054378032684326,-20.657939910888672,-38.67916488647461
1,429880,10.053750991821289,6.848874092102051,-8.469246864318848,-23.32306671142578
1,429880,-28.51448631286621,-3.685811996459961,1.362654209136963,-31.516992568969727
1,429880,-39.46721649169922,0.9572956562042236,-6.681769371032715,-18.94054412841797
1,429880,-15.039013862609863,16.121097564697266,9.58315372467041,3.7100582122802734
1,429881,-7.251985549926758,-12.044442176818848,-14.78533935546875,13.444051742553711
1,429881,-17.286733627319336,-9.452865600585938,-25.294960021972656,41.70156478881836
1,429881,-11.442697525024414,26.266328811645508,15.685201644897461,73.0794677734375
1,429881,3.8111424446105957,3.2974843978881836,16.61908531188965,63.69398880004883
1,429881,12.385358810424805,-18.469505310058594,-11.126129150390625,56.31019973754883
1,429883,-9.979374885559082,25.806018829345703,4.57843017578125,128.95860290527344
1,429883,-27.973312377929688,29.229076385498047,33.6367301940918,44.9197998046875
1,429883,-25.043935775756836,-18.429494857788086,9.8059663772583,-124.26091003417969
1,429883,-5.511139392852783,7.519374847412109,-20.776599884033203,-56.17473220825195
1,429883,-10.15357780456543,9.729236602783203,-5.032820224761963,-0.5225256085395813
1,429883,-17.035369873046875,-11.721721649169922,-5.07589054107666,-39.69601821899414
1,429885,-39.68082809448242,18.898771286010742,-31.993009567260742,-93.24800109863281
1,429886,-93.22637176513672,5.701387405395508,14.460424423217773,-39.34645462036133
1,429889,-68.97314453125,-13.1516695022583,93.22383880615234,64.70728302001953
1,429890,24.787151336669922,-1.4894819259643555,-0.7281215786933899,-16.20900535583496
1,429893,41.86676788330078,2.7523653507232666,-117.63885498046875,-90.1388168334961
1,429894,-74.90858459472656,8.40092945098877,-40.34128189086914,-13.309392929077148
1,429897,69.74479675292969,-85.48434448242188,52.4710578918457,79.63446044921875
1,429898,246.02427673339844,-93.99993896484375,45.66697692871094,46.876644134521484
1,429901,190.5835418701172,15.37522029876709,-49.54586410522461,3.8957743644714355
1,429902,117.97148132324219,2.0687856674194336,-53.505035400390625,-75.2433090209961
1,429905,-163.64064025878906,73.40184783935547,74.26548767089844,-40.417442321777344
1,429906,-227.7777862548828,86.20207977294922,75.44254302978516,117.12535095214844
1,429909,-35.7852668762207,-53.75056457519531,-53.68604278564453,26.59807586669922
1,429910,24.131181716918945,-27.058490753173828,-43.331607818603516,-51.48240661621094
1,429913,-4.137198448181152,74.89677429199219,47.32764434814453,-58.03045654296875
1,429914,-84.515625,37.138824462890625,2.1088075637817383,4.772350311279297
1,429917,-13.191680908203125,-115.59590911865234,-57.950782775878906,134.13400268554688
1,429918,107.23191833496094,-89.48969268798828,-16.896228790283203,5.86789608001709
1,429921,227.8280487060547,68.9951400756836,34.920997619628906,-78.84609985351562
1,429922,162.84561157226562,30.237960815429688,17.720468521118164,-20.19580841064453
1,429925,-252.05751037597656,31.619525909423828,24.16779136657715,-22.524982452392578
1,429926,-240.28553771972656,75.79129028320312,16.121932983398438,10.405226707458496
1,430057,60.75163650512695,-98.2413330078125,-71.584716796875,73.0844955444336
1,430057,80.34232330322266,-111.11097717285156,-49.58698654174805,23.787948608398438
1,430057,75.9992904663086,58.42596435546875,39.449798583984375,-79.48931121826172
1,430058,13.655269622802734,51.225318908691406,27.461528778076172,-33.87765121459961
1,430058,-99.03903198242188,7.180155277252197,7.623591423034668,26.120798110961914
1,430058,-107.0267562866211,26.346940994262695,8.515010833740234,15.92611026763916
1,430058,-38.045284271240234,10.935526847839355,3.240375280380249,34.750972747802734
1,430058,25.379846572875977,-25.678613662719727,-8.411145210266113,31.600122451782227
1,430058,71.93388366699219,-27.6126766204834,-13.167557716369629,-12.372554779052734
1,430059,113.2373275756836,-13.627124786376953,-3.440495252609253,-23.550052642822266
1,430059,92.05386352539062,-25.87470245361328,-10.011133193969727,-11.200385093688965
1,430059,42.90642166137695,-18.197423934936523,6.19245719909668,-23.50291633605957
1,430059,12.732730865478516,27.375308990478516,12.155688285827637,-26.158592224121094
1,430059,-13.063204765319824,39.4879150390625,3.2175848484039307,-3.4913172721862793
1,430059,-59.45227813720703,12.63044261932373,18.754093170166016,10.033500671386719
1,430060,-91.1267318725586,12.350075721740723,12.72109603881836,2.738893747329712
1,430060,-58.97222900390625,20.886964797973633,-13.729955673217773,5.183438777923584
1,430060,1.1624919176101685,4.0709052085876465,-11.08128833770752,5.203775882720947
1,430060,48.52986145019531,-21.708454132080078,0.4826447665691376,4.918816566467285
1,430060,43.07136154174805,-18.091724395751953,-7.521675109863281,-0.45943596959114075
1,430061,21.407041549682617,-14.517494201660156,1.7689766883850098,-9.945934295654297
1,430061,28.22490119934082,-20.965087890625,14.35830307006836,-6.268650054931641
1,430061,10.034878730773926,15.677921295166016,-2.1707193851470947,-8.873270034790039
1,430061,-36.16539001464844,17.746952056884766,-18.657920837402344,-5.784916877746582
1,430061,-49.94245529174805,5.1536173820495605,0.24419650435447693,-10.911952018737793
1,430061,-63.210418701171875,21.580089569091797,23.428409576416016,9.061605453491211
1,430062,-41.52134704589844,2.166314125061035,4.700958251953125,21.79741859436035
1,430062,7.025838851928711,-10.035274505615234,-5.043472766876221,3.460557699203491
1,430062,15.407954216003418,-0.4115186929702759,9.62061595916748,4.459400177001953
1,430062,25.850133895874023,-15.253159523010254,-7.678093910217285,-23.71010971069336
1,430062,12.988224983215332,-19.51884651184082,-7.827396869659424,-14.751976013183594
1,430062,8.746990203857422,23.34752082824707,14.889627456665039,25.521820068359375
1,430063,14.984733581542969,30.424240112304688,-2.0817337036132812,1.1831713914871216
1,430063,-28.961347579956055,-7.876726150512695,2.2124712467193604,0.903691291809082
1,430063,-43.468955993652344,11.029364585876465,23.26439666748047,12.21937370300293
