Aktueller Finger,timestamp_ms,sensor_0,sensor_1,sensor_2,sensor_3
0,1633627,19.809459686279297,-18.10112953186035,-32.30245590209961,-48.610374450683594
0,1633628,4.840061187744141,4.316506862640381,-0.7941269278526306,-4.409229755401611
0,1633631,-8.389326095581055,7.020049571990967,11.081857681274414,28.41808319091797
0,1633632,-9.900164604187012,-20.57207679748535,37.271148681640625,31.158830642700195
0,1633635,14.083961486816406,-13.931922912597656,22.770225524902344,-26.832239151000977
0,1633636,15.056729316711426,37.34972381591797,-34.169612884521484,-15.640283584594727
0,1633643,-6.317612648010254,30.818687438964844,-24.291179656982422,47.7808723449707
0,1633644,-10.71633529663086,-15.928067207336426,25.546770095825195,-4.657234191894531
0,1633644,-0.6636742353439331,-18.938318252563477,-3.9462759494781494,-20.252243041992188
0,1633645,-6.993221282958984,-5.922574520111084,-20.362146377563477,18.978483200073242
0,1633646,3.576413869857788,17.512678146362305,2.8856987953186035,-14.73981761932373
0,1633649,18.63606071472168,-6.588473796844482,6.877844333648682,-15.97183895111084
0,1633650,-13.803826332092285,-11.221821784973145,2.8305511474609375,18.29102325439453
0,1633653,11.882123947143555,31.122840881347656,-10.621187210083008,-7.546454429626465
0,1633654,12.563084602355957,0.5464150905609131,10.049661636352539,-3.299997329711914
0,1633657,-22.060081481933594,-15.151512145996094,13.28012752532959,13.568924903869629
0,1633658,-0.1550426185131073,-14.586067199707031,3.402155637741089,-20.47803497314453
0,1633661,4.241383075714111,-0.6955605745315552,4.994243621826172,-7.061578750610352
0,1633662,24.28244972229004,17.245859146118164,-11.13209056854248,-0.13993079960346222
0,1633682,-5.495779991149902,6.78897762298584,-3.932903528213501,8.585078239440918
0,1633682,-11.655473709106445,12.782265663146973,18.76126480102539,14.1162691116333
0,1633682,7.332784175872803,-26.717817306518555,0.49664273858070374,-4.245217323303223
0,1633682,-19.697559356689453,-31.290742874145508,-7.95944881439209,11.027626991271973
0,1633682,2.923577308654785,31.37255859375,-8.616118431091309,-18.857133865356445
0,1633682,-12.661767959594727,18.834367752075195,-16.599464416503906,-9.636114120483398
0,1633683,-15.210363388061523,-28.154935836791992,19.2534122467041,48.440494537353516
0,1633683,10.137998580932617,9.469650268554688,-13.59943962097168,-4.0669403076171875
0,1633683,-0.6725828647613525,20.29145050048828,-13.937929153442383,-19.326770782470703
0,1633684,19.585233688354492,-29.425025939941406,34.01800537109375,13.72502326965332
0,1633684,-2.0961766242980957,-9.447157859802246,-4.257566928863525,0.3814235329627991
0,1633687,-24.63445472717285,20.286821365356445,-5.7474284172058105,-26.19809341430664
0,1633689,34.55269241333008,-12.455777168273926,10.02430248260498,-26.710458755493164
0,1633691,16.003984451293945,-0.7392468452453613,-6.095725059509277,31.390424728393555
0,1633693,-16.07707977294922,32.72398376464844,-11.490975379943848,16.794143676757812
0,1633695,4.117157459259033,-11.534374237060547,8.400952339172363,-8.892488479614258
0,1633697,-7.064345836639404,-21.1710262298584,12.454378128051758,-2.6532843112945557
0,1633699,-2.0294086933135986,7.030242919921875,-15.395158767700195,-9.801092147827148
0,1633701,4.55836820602417,17.65953254699707,6.174781799316406,4.953563213348389
0,1633703,-1.680215835571289,7.383451461791992,-3.555525541305542,-16.272403717041016
0,1633732,1.9365054368972778,-26.368661880493164,0.8518061637878418,13.483566284179688
0,1633732,-0.6740701198577881,4.422390460968018,33.05986022949219,42.32680130004883
0,1633732,-14.020567893981934,10.65583610534668,-38.02334976196289,-11.717034339904785
0,1633733,4.614105224609375,-21.39760971069336,-25.123655319213867,-25.140714645385742
0,1633733,17.67298126220703,11.002177238464355,37.27729415893555,-14.975178718566895
0,1633733,-9.492987632751465,14.153508186340332,6.939046859741211,-10.348217964172363
0,1633733,-12.458344459533691,-13.943009376525879,-24.641145706176758,16.01589012145996
0,1633733,10.938684463500977,-5.377039909362793,-22.05373191833496,7.710882186889648
0,1633733,0.8589155077934265,-1.9751980304718018,21.48284912109375,-18.420164108276367
0,1633734,-18.964447021484375,-7.339732646942139,20.075292587280273,20.12347412109375
0,1633734,1.126369833946228,8.695381164550781,-27.962656021118164,15.66072940826416
0,1633734,20.473316192626953,33.871307373046875,-1.0465136766433716,-38.7410774230957
0,1633734,-2.2863261699676514,-0.04465622827410698,8.269514083862305,-4.649719715118408
0,1633734,-20.34220314025879,-32.40878677368164,1.2253514528274536,25.975332260131836
0,1633736,11.38020133972168,-8.032062530517578,6.7297773361206055,2.2059381008148193
0,1633736,1.2605783939361572,5.978297233581543,-3.9842519760131836,7.78080940246582
0,1633737,-18.379789352416992,10.86268424987793,28.900676727294922,16.136777877807617
0,1633738,18.119464874267578,-3.195911407470703,-8.717031478881836,-13.388901710510254
0,1633741,10.126341819763184,3.657660722732544,-30.57254409790039,-33.251625061035156
0,1633742,-10.950292587280273,15.596793174743652,23.276681900024414,-8.345978736877441
0,1633745,-4.629810810089111,-6.681009292602539,7.728076934814453,16.904033660888672
0,1633746,13.308061599731445,-12.740507125854492,-12.912251472473145,17.69186019897461
0,1633749,-0.3987652361392975,-2.1565563678741455,9.911869049072266,12.438575744628906
0,1633750,-8.639305114746094,9.177695274353027,9.1145601272583,-3.620185136795044
0,1633753,4.618844032287598,-2.1067988872528076,-22.781219482421875,-28.161378860473633
0,1633754,-1.9014711380004883,-5.553760051727295,-22.645282745361328,-2.8277366161346436
0,1633793,20.934600830078125,6.355203151702881,8.32661247253418,24.7017822265625
0,1633793,-1.8920267820358276,-15.30199146270752,21.177396774291992,2.745934009552002
0,1633793,-20.046175003051758,0.7167186141014099,1.938521385192871,-4.128701210021973
0,1633793,4.042294979095459,28.031166076660156,0.648440420627594,-4.094651699066162
0,1633793,3.1989238262176514,-11.749295234680176,14.3831787109375,-2.872791290283203
0,1633793,-2.4620394706726074,-19.359182357788086,-16.585063934326172,-4.341711044311523
0,1633794,-14.077203750610352,6.52510929107666,-33.14859390258789,-8.665997505187988
0,1633794,-1.6814855337142944,3.475947141647339,8.582374572753906,7.323031902313232
0,1633794,10.992846488952637,10.370542526245117,27.361116409301758,7.086879730224609
0,1633794,10.484962463378906,-14.980774879455566,-5.167402267456055,-14.902931213378906
0,1633794,5.285486221313477,-18.899511337280273,-11.272849082946777,-3.6567490100860596
0,1633794,-22.775346755981445,19.72942352294922,20.50371551513672,26.34449005126953
0,1633795,-8.903706550598145,20.284881591796875,-5.873157501220703,5.804872512817383
0,1633795,37.98246383666992,17.207448959350586,-10.093005180358887,-25.96906280517578
0,1633795,11.496868133544922,-20.821510314941406,13.352112770080566,-2.336005687713623
0,1633795,-28.110149383544922,-29.726806640625,-17.90216827392578,15.95868968963623
0,1633795,-9.647695541381836,19.17704963684082,1.019996166229248,1.765180230140686
0,1633795,3.9817183017730713,15.756072998046875,25.202741622924805,-10.277568817138672
0,1633796,4.832527160644531,-6.893222332000732,5.955008506774902,-17.87128448486328
0,1633797,-0.6644769906997681,0.05133356899023056,-8.438775062561035,27.464187622070312
0,1633797,-16.140718460083008,1.9637447595596313,-13.877552032470703,26.79281997680664
0,1633799,-3.2859764099121094,-25.551177978515625,-15.886539459228516,-15.23624038696289
0,1633801,21.333044052124023,-28.80122947692871,7.405953884124756,26.10152244567871
0,1633803,3.6638426780700684,27.13616943359375,6.393062591552734,-13.656607627868652
0,1633805,-20.45234489440918,28.91728401184082,-3.6973531246185303,-56.32673645019531
0,1633807,1.596869945526123,-8.754520416259766,-1.3027973175048828,9.977824211120605
0,1633809,8.65854263305664,13.016461372375488,10.254304885864258,15.412240028381348
0,1633811,-17.720195770263672,-9.743800163269043,8.534052848815918,0.6654825806617737
0,1633813,3.8872857093811035,-42.68767166137695,-41.452571868896484,15.582979202270508
0,1633815,28.13670539855957,21.463449478149414,5.0402727127075195,-12.441994667053223
0,1633817,7.971966743469238,39.161277770996094,38.106021881103516,-13.36005973815918
0,1633862,-9.711026191711426,-8.396037101745605,-21.51079559326172,3.0089967250823975
0,1633862,-0.10799612104892731,-6.959577560424805,-11.633247375488281,-12.163989067077637
0,1633862,-7.830732822418213,10.358542442321777,23.47464942932129,12.256813049316406
0,1633862,-6.00187873840332,-14.028961181640625,-8.131439208984375,27.40560531616211
0,1633862,11.411527633666992,-14.624894142150879,0.2484625279903412,-1.3671680688858032
0,1633862,7.453193187713623,11.926830291748047,3.5784177780151367,-22.111181259155273
0,1633863,-2.4943220615386963,-12.174810409545898,-17.08400535583496,6.811842441558838
0,1633863,-17.831323623657227,-3.9688689708709717,18.039350509643555,15.842243194580078
0,1633863,3.0753257274627686,9.016936302185059,2.3460776805877686,-2.612643241882324
0,1633863,7.901248931884766,-9.325819969177246,-10.93628215789795,-16.82370948791504
0,1633863,-14.563199996948242,17.089126586914062,7.463942527770996,-23.614717483520508
0,1633863,8.257247924804688,18.567584991455078,-2.3383705615997314,13.226105690002441
0,1633864,4.616002559661865,-15.980076789855957,3.0829970836639404,19.97825813293457
0,1633864,-13.47556209564209,-15.107107162475586,13.270522117614746,-16.654401779174805
0,1633864,17.85434913635254,3.4338717460632324,-19.50156593322754,-11.367725372314453
0,1633864,1.759196162223816,8.603004455566406,-11.094972610473633,25.237733840942383
0,1633864,-16.268157958984375,-0.6837537884712219,28.936262130737305,11.605033874511719
0,1633865,14.636876106262207,2.4126083850860596,-3.2380425930023193,-24.004913330078125
0,1633865,-7.379112720489502,-1.0020687580108643,-23.112388610839844,-3.9350271224975586
0,1633865,-14.635565757751465,-8.013627052307129,2.1147258281707764,14.833984375
0,1633865,13.485579490661621,4.068785667419434,0.02656790241599083,-7.547676086425781
0,1633865,-6.998196125030518,3.9349703788757324,13.365073204040527,8.583057403564453
0,1633867,-10.278721809387207,-6.0602498054504395,18.45873260498047,21.850244522094727
0,1633867,6.426995277404785,-11.729653358459473,-27.326284408569336,-8.301292419433594
0,1633867,0.08434037864208221,10.015252113342285,-8.358987808227539,-29.151700973510742
0,1633868,7.6504807472229,11.60273551940918,23.471343994140625,2.584413766860962
0,1633871,21.258987426757812,-2.8791308403015137,4.852752685546875,7.3594441413879395
0,1633872,-1.5780657529830933,-2.0607311725616455,-7.431715488433838,-10.381556510925293
0,1633875,-13.329390525817871,11.16415786743164,8.333305358886719,13.576904296875
0,1633876,5.218976974487305,10.674540519714355,8.113378524780273,-0.12852396070957184
0,1633879,-8.213700294494629,-26.09653663635254,-23.4906063079834,-6.161850452423096
0,1633880,2.6018736362457275,-19.72842788696289,9.364103317260742,2.7044801712036133
0,1633883,23.532663345336914,17.24117660522461,0.915672779083252,-12.5106201171875
0,1633884,-20.091413497924805,9.783964157104492,-26.578039169311523,-3.7649776935577393
0,1633887,-17.964588165283203,-6.45064115524292,9.478910446166992,12.152083396911621
0,1633888,14.293994903564453,10.985419273376465,7.6127095222473145,1.4273756742477417
0,1633891,1.0641875267028809,9.099328994750977,2.9452388286590576,2.623410224914551
0,1633892,-13.683177947998047,-23.62908363342285,-7.684571266174316,2.1028928756713867
0,1633895,-1.7301244735717773,-0.8601607084274292,-9.728714942932129,12.131134033203125
0,1633896,2.0363528728485107,16.7362003326416,10.646976470947266,9.215718269348145
0,1633955,6.933711528778076,-18.42032241821289,4.348998546600342,-28.214115142822266
0,1633955,24.961320877075195,-1.4025683403015137,7.899375915527344,10.806386947631836
0,1633955,-15.995823860168457,7.986412525177002,17.276926040649414,23.540597915649414
0,1633955,-12.326822280883789,-1.7446773052215576,-16.85979652404785,-30.859821319580078
0,1633955,25.048845291137695,-0.7606261968612671,-22.99968147277832,-9.242192268371582
0,1633955,-2.557070732116699,-7.007724761962891,25.300020217895508,35.125579833984375
0,1633956,-16.884916305541992,5.991437911987305,6.306280612945557,-3.09542179107666
0,1633956,-3.3818271160125732,15.079519271850586,-34.750877380371094,-44.41584777832031
0,1633956,0.57945317029953,-2.9790992736816406,-0.485068142414093,5.680302619934082
0,1633956,-11.053915023803711,-8.957813262939453,25.36394691467285,20.478790283203125
0,1633956,4.469936370849609,0.8147242665290833,-2.1139423847198486,-22.95041275024414
0,1633956,19.443880081176758,-4.080968379974365,-12.610358238220215,18.08298683166504
0,1633957,-1.8774970769882202,2.005040407180786,9.939037322998047,22.682722091674805
0,1633957,-8.329161643981934,-3.491107702255249,-9.969200134277344,-35.798274993896484
0,1633957,-5.658260345458984,-10.887567520141602,-10.710493087768555,16.898969650268555
0,1633957,4.260957717895508,6.7241950035095215,20.401782989501953,33.955657958984375
0,1633957,0.9270082712173462,24.457063674926758,1.135936975479126,-32.19757843017578
0,1633957,4.163496494293213,-8.942235946655273,-9.266793251037598,-18.88583755493164
0,1633958,-0.6962707042694092,-19.230016708374023,1.9957326650619507,13.824004173278809
0,1633958,-12.535687446594238,8.43563175201416,4.792557239532471,15.062153816223145
0,1633958,12.95102310180664,-0.27609285712242126,-14.454710006713867,-2.001737356185913
0,1633958,5.6226911544799805,-2.0193512439727783,4.22420072555542,-12.206993103027344
0,1633958,-15.612218856811523,6.423654556274414,33.22526550292969,3.7074925899505615
0,1633958,-8.00363540649414,21.481929779052734,-2.9516141414642334,0.8787502646446228
0,1633959,6.312200546264648,-8.801156044006348,-39.241050720214844,-11.386750221252441
0,1633959,4.03944206237793,-26.36094093322754,1.5071730613708496,5.749660491943359
0,1633959,7.614742279052734,17.206830978393555,47.25052261352539,12.808478355407715
0,1633959,11.652383804321289,6.518303394317627,-14.408370971679688,-3.6699743270874023
0,1633959,0.8460301756858826,-20.94890785217285,-18.798677444458008,-5.836712837219238
0,1633961,-2.8888518810272217,23.197038650512695,20.364336013793945,-18.378358840942383
0,1633961,-0.4011874198913574,24.37031364440918,-33.783809661865234,-3.1431937217712402
0,1633961,-9.601168632507324,-43.0020866394043,-9.323080062866211,34.34587097167969
0,1633962,-11.510966300964355,-16.41423797607422,18.532663345336914,14.210932731628418
0,1633965,14.79074478149414,38.66844177246094,-21.222726821899414,-32.438228607177734
0,1633966,9.324018478393555,-4.1782002449035645,29.494094848632812,-13.549324035644531
0,1633969,-20.700347900390625,-29.428144454956055,19.497732162475586,24.114370346069336
0,1633970,-1.3102097511291504,13.938214302062988,-45.316776275634766,9.300113677978516
0,1633973,14.1700439453125,15.215457916259766,6.130593776702881,12.219696044921875
0,1633974,-2.1668004989624023,1.6078428030014038,33.66765594482422,-13.598649978637695
0,1633977,-6.221950531005859,-5.5058465003967285,-10.329551696777344,-39.06480407714844
0,1633978,0.172287255525589,-10.472807884216309,-2.4376471042633057,4.153956890106201
0,1633981,8.767850875854492,10.732892990112305,16.521535873413086,22.26042366027832
0,1633982,-2.0555758476257324,-11.520955085754395,2.0270256996154785,14.997414588928223
0,1633985,-10.091015815734863,-13.142346382141113,-6.316819667816162,-9.00689697265625
0,1633986,-4.147922039031982,17.04819679260254,-4.50572395324707,-19.24156951904297
0,1633989,-10.707598686218262,-8.370028495788574,-9.130123138427734,7.654953956604004
0,1633990,19.40920639038086,-6.848416328430176,-8.64964485168457,0.35292959213256836
0,1634062,15.058387756347656,10.101522445678711,11.297550201416016,2.501373052597046
0,1634062,-32.23017120361328,5.736312389373779,8.788820266723633,12.107301712036133
0,1634062,9.553091049194336,3.322976589202881,-8.55856990814209,-9.862746238708496
0,1634062,25.078365325927734,0.8631978034973145,-8.202528953552246,0.18654116988182068
0,1634062,-6.069685459136963,8.93693733215332,-8.728273391723633,-9.96934700012207
0,1634063,-6.025471210479736,-0.8400899171829224,3.842529296875,-0.6811969876289368
0,1634063,-12.292759895324707,-12.69945240020752,17.638694763183594,12.305270195007324
0,1634063,-0.30038174986839294,-2.9250526428222656,-8.188165664672852,-3.9629433155059814
0,1634063,0.7221258878707886,5.93837308883667,-9.879678726196289,15.04866886138916
0,1634063,0.4918113648891449,-2.490811824798584,-0.42770272493362427,-0.5215065479278564
0,1634064,10.112556457519531,-10.716351509094238,-5.693050861358643,-16.329133987426758
0,1634064,-12.499025344848633,9.440631866455078,11.231722831726074,-6.684999465942383
0,1634064,10.369132041931152,7.643640995025635,2.727713108062744,2.5482709407806396
0,1634064,-3.087681770324707,-22.188013076782227,-23.594419479370117,9.536297798156738
0,1634064,-28.0924072265625,3.6358351707458496,4.4495530128479,-6.2042741775512695
0,1634064,37.9581413269043,24.41193389892578,16.13132667541504,-11.92015552520752
0,1634065,27.00109100341797,-9.389998435974121,-12.393128395080566,16.6666202545166
0,1634065,-25.458663940429688,-6.696821689605713,7.91052770614624,10.024643898010254
0,1634065,-4.627656936645508,14.13071060180664,8.1810302734375,-15.943046569824219
0,1634065,3.5523297786712646,3.7326455116271973,-0.6567609906196594,-18.232973098754883
0,1634065,-2.0630910396575928,-0.7992590665817261,3.3181285858154297,5.4104156494140625
0,1634065,0.17633455991744995,-27.168521881103516,-11.38817310333252,29.188562393188477
0,1634066,-11.569117546081543,-16.86380386352539,8.80716323852539,-0.09715243428945541
0,1634066,2.7488837242126465,11.980297088623047,-4.809171199798584,-6.925832748413086
0,1634066,11.47884750366211,17.192535400390625,-1.029603362083435,4.169213771820068
0,1634066,-14.4264497756958,18.724477767944336,18.793743133544922,-9.904916763305664
0,1634066,-13.029284477233887,-22.242053985595703,-3.189802646636963,9.52181625366211
0,1634066,24.287982940673828,1.605330228805542,5.183505535125732,16.73910903930664
0,1634067,11.5552396774292,26.12624168395996,-2.7085304260253906,-26.566984176635742
0,1634067,-21.26988410949707,-16.241613388061523,0.07281230390071869,-19.940330505371094
0,1634067,2.121532678604126,-20.27428436279297,4.923663139343262,26.99859046936035
0,1634067,-6.936445713043213,3.9021966457366943,0.9436092376708984,24.082988739013672
0,1634067,-1.8807159662246704,15.839021682739258,-0.8018946051597595,-16.94338035583496
0,1634068,13.322835922241211,-7.028691291809082,-14.909053802490234,-18.9144344329834
0,1634068,-14.716781616210938,-12.963629722595215,7.812039852142334,8.691442489624023
0,1634069,14.269683837890625,15.943510055541992,5.567760944366455,-1.5799371004104614
0,1634069,11.663229942321777,22.3994197845459,-2.7216193675994873,-20.76955795288086
0,1634069,-6.299102306365967,-13.532718658447266,8.609911918640137,4.877148151397705
0,1634069,0.41652652621269226,-24.594850540161133,-14.148612022399902,29.125877380371094
0,1634071,3.0378878116607666,18.857980728149414,-10.952068328857422,-10.279053688049316
0,1634073,-2.469256639480591,13.304484367370605,6.787088871002197,-2.23993182182312
0,1634075,-12.385749816894531,-3.842046022415161,2.094785690307617,20.780773162841797
0,1634077,4.820262432098389,1.9589966535568237,-3.4287991523742676,-24.26995086669922
0,1634079,1.5327070951461792,-3.51423716545105,0.5829076766967773,-25.49700927734375
0,1634081,3.194082021713257,-10.900198936462402,-7.484629154205322,5.992739200592041
0,1634083,-2.4210193157196045,-12.455124855041504,-9.731362342834473,27.06959342956543
0,1634084,-14.615184783935547,6.883131980895996,6.300067901611328,16.449787139892578
0,1634087,-17.771743774414062,1.1536331176757812,-6.530172824859619,-8.992047309875488
0,1634088,4.778549671173096,-4.062138557434082,2.3298757076263428,-12.561031341552734
0,1634091,16.845060348510742,4.153557300567627,5.640995025634766,6.437609672546387
0,1634092,2.168419361114502,-19.022228240966797,3.4240124225616455,10.252457618713379
0,1634095,6.885768890380859,-11.58182144165039,27.848939895629883,-17.015045166015625
0,1634096,10.063546180725098,32.21244812011719,-0.7436119914054871,-17.480379104614258
0,1634099,-5.713858604431152,27.92206382751465,-29.6428279876709,13.05943775177002
0,1634100,-9.57326889038086,-1.344135046005249,1.730149507522583,22.700620651245117
0,1634103,19.278413772583008,-23.665512084960938,13.009931564331055,-4.591288089752197
0,1634186,-6.947162628173828,-17.294193267822266,-13.479203224182129,-11.159623146057129
0,1634186,-19.254291534423828,20.423124313354492,-13.581681251525879,-11.945381164550781
0,1634186,6.9362874031066895,-14.063673973083496,-3.7208938598632812,-12.665299415588379
0,1634186,8.854509353637695,-15.43056869506836,1.4632052183151245,10.383148193359375
0,1634186,10.677305221557617,30.494569778442383,11.123716354370117,6.725037097930908
0,1634186,-7.677676677703857,-14.199687957763672,4.941514492034912,4.044153690338135
0,1634187,-13.413003921508789,-18.243858337402344,-2.761444330215454,6.9713358879089355
0,1634187,10.192605972290039,16.067840576171875,3.0822360515594482,-18.628196716308594
0,1634187,-1.1500017642974854,8.927183151245117,6.448965549468994,22.905378341674805
0,1634187,-24.14190101623535,8.18679428100586,2.971315383911133,44.266761779785156
0,1634187,12.893082618713379,-4.428782939910889,6.207894802093506,-27.385316848754883
0,1634188,21.836353302001953,-3.453315019607544,4.701808452606201,-24.126453399658203
0,1634188,-12.549410820007324,12.57694149017334,-19.786283493041992,17.269615173339844
0,1634188,-22.304372787475586,0.9827851057052612,7.568057060241699,5.901369094848633
0,1634188,6.331294059753418,5.169349193572998,22.574077606201172,0.29313087463378906
0,1634188,25.193254470825195,-5.0112433433532715,-21.435016632080078,-6.92965841293335
0,1634188,-5.62463903427124,-23.500106811523438,-10.65976619720459,-15.92081356048584
0,1634189,-14.694572448730469,3.304086446762085,5.029439449310303,-1.8157024383544922
0,1634189,-7.356067657470703,9.83148193359375,16.015071868896484,11.186040878295898
0,1634189,5.030730247497559,-1.131947636604309,14.251840591430664,-6.450741767883301
0,1634189,17.923484802246094,11.843564987182617,-7.224984169006348,-22.428625106811523
0,1634189,-1.8714165687561035,8.350451469421387,-5.276525497436523,-2.9268996715545654
0,1634189,-13.991764068603516,-20.185224533081055,-13.515214920043945,-3.8919737339019775
0,1634190,0.39883020520210266,-6.0757317543029785,4.215672492980957,7.67097282409668
0,1634190,20.21457862854004,23.124738693237305,5.227688789367676,2.896263837814331
0,1634190,24.27739143371582,9.170117378234863,-3.730753183364868,-14.550457954406738
0,1634190,-14.063141822814941,-15.748802185058594,-10.324212074279785,10.512274742126465
0,1634190,-23.4472713470459,-13.299141883850098,-19.067935943603516,7.844507694244385
0,1634190,5.900883674621582,7.085849285125732,12.81602668762207,1.2341433763504028
0,1634191,3.943004846572876,12.910030364990234,3.225508451461792,-5.4569597244262695
0,1634191,-1.9850751161575317,4.630362033843994,0.6620460748672485,-7.394454479217529
0,1634191,-4.393138885498047,-33.162166595458984,-2.960157871246338,17.639760971069336
0,1634191,-3.6587748527526855,-15.05250072479248,-5.321910381317139,6.363532543182373
0,1634191,10.107413291931152,31.63321304321289,23.931913375854492,-3.932600498199463
0,1634192,-4.732229232788086,-17.198345184326172,-0.3691418766975403,7.637964248657227
0,1634192,-23.874542236328125,-21.59914207458496,-24.715356826782227,-24.081134796142578
0,1634192,2.4296233654022217,17.810216903686523,-2.083918333053589,-2.3211915493011475
0,1634192,13.346075057983398,0.8792359828948975,18.53705406188965,32.078773498535156
0,1634192,7.833839416503906,2.460691452026367,-0.18290933966636658,-14.399209976196289
0,1634192,4.523736476898193,11.594289779663086,-14.12497329711914,-15.862234115600586
0,1634193,-17.405418395996094,-5.9340434074401855,11.395992279052734,9.714775085449219
0,1634194,-3.8746094703674316,-15.601926803588867,18.159378051757812,-22.31034278869629
0,1634194,11.57380485534668,6.649137496948242,-11.020109176635742,-36.6794319152832
0,1634194,-17.97829818725586,2.542249917984009,-18.13530921936035,32.475440979003906
0,1634194,5.059274673461914,-8.191777229309082,4.506698131561279,31.58702278137207
0,1634196,23.77342987060547,17.51354217529297,2.8034164905548096,3.023128032684326
0,1634197,-6.227941513061523,48.66313552856445,19.541135787963867,53.208473205566406
0,1634198,7.116421222686768,14.942317962646484,21.805946350097656,28.093952178955078
0,1634201,12.893692016601562,-54.27224349975586,-31.32927894592285,-34.35274887084961
0,1634202,-9.5779447555542,-30.40850067138672,-26.361675262451172,-52.41342544555664
0,1634205,-15.911979675292969,18.059032440185547,22.81146240234375,-18.535573959350586
0,1634206,12.277129173278809,21.758390426635742,15.968826293945312,19.860681533813477
0,1634209,12.411720275878906,-26.7855224609375,-34.83318328857422,15.605016708374023
0,1634210,-14.428400993347168,-25.10424041748047,-19.4344425201416,14.801358222961426
0,1634213,-4.559682846069336,27.39662742614746,10.728608131408691,-5.180119037628174
0,1634214,0.16988570988178253,18.797075271606445,26.29883575439453,-20.17913246154785
0,1634217,-10.212867736816406,-5.346023082733154,34.84830856323242,-11.639426231384277
0,1634218,-12.942687034606934,-0.26374268531799316,-23.553386688232422,0.4460393786430359
0,1634221,1.4783096313476562,-7.683535099029541,-33.74116134643555,5.5089287757873535
0,1634222,12.870518684387207,-19.44207191467285,3.3241238594055176,-2.280984401702881
0,1634225,8.027023315429688,29.525732040405273,12.220641136169434,9.849078178405762
0,1634226,12.02203369140625,36.292293548583984,26.80299949645996,-15.001326560974121
0,1634229,11.23170280456543,-41.678401947021484,9.531970977783203,-46.917266845703125
0,1634230,-31.649883270263672,-37.95404815673828,-11.866509437561035,45.69305419921875
0,1634326,-13.611467361450195,43.9206657409668,-15.858667373657227,85.85382843017578
0,1634326,36.13429641723633,28.805755615234375,-22.225522994995117,-32.44303512573242
0,1634326,-12.920126914978027,-32.08009719848633,-1.5919684171676636,-48.183650970458984
0,1634327,-26.969682693481445,-15.567122459411621,10.270505905151367,22.15924644470215
0,1634327,11.869236946105957,9.88370418548584,3.3427634239196777,14.485703468322754
0,1634327,22.364791870117188,6.533373832702637,-3.8164477348327637,-16.07640838623047
0,1634327,6.0275163650512695,5.578760147094727,20.628398895263672,0.05671946704387665
0,1634327,-10.550437927246094,0.8366603255271912,3.945220947265625,12.049480438232422
0,1634327,-7.808957099914551,-17.371376037597656,-20.59241485595703,-2.4019887447357178
0,1634328,-14.282600402832031,0.9058091640472412,5.608556270599365,-9.907469749450684
0,1634328,11.692337036132812,22.663593292236328,-3.9738941192626953,-27.140382766723633
0,1634328,23.465627670288086,-20.710439682006836,-3.579787254333496,-15.202373504638672
0,1634328,-10.732243537902832,-22.980690002441406,15.528523445129395,-4.6971869468688965
0,1634328,-23.29523277282715,-1.3392393589019775,17.12088394165039,-4.026998996734619
0,1634329,-6.398221492767334,2.5334532260894775,-1.151793122291565,23.083480834960938
0,1634329,17.258869171142578,19.92128562927246,-7.391388893127441,10.86775016784668
0,1634329,13.004030227661133,1.3138542175292969,-28.876245498657227,-12.623821258544922
0,1634329,-12.793761253356934,9.51318645477295,-15.521817207336426,4.002852439880371
0,1634329,-12.815428733825684,13.714051246643066,26.212268829345703,0.9109472036361694
0,1634329,22.655942916870117,-13.228632926940918,8.120640754699707,-16.354833602905273
0,1634330,14.266094207763672,-10.333717346191406,4.509582042694092,5.138217926025391
0,1634330,-26.92497444152832,-13.779894828796387,-8.727060317993164,14.113189697265625
0,1634330,2.2956371307373047,13.098042488098145,-13.11529541015625,-7.50492000579834
0,1634330,16.603906631469727,21.148517608642578,4.73144006729126,-3.008570432662964
0,1634330,-9.224797248840332,-38.35420227050781,5.867451190948486,3.614985227584839
0,1634330,4.999882698059082,-17.054723739624023,0.5265322923660278,10.267821311950684
0,1634331,3.055276870727539,34.80281448364258,9.05591869354248,37.599693298339844
0,1634331,-19.509418487548828,8.116657257080078,7.006612300872803,-1.5355768203735352
0,1634331,-15.984847068786621,-15.214804649353027,-19.50163459777832,-22.441425323486328
0,1634331,15.031845092773438,1.3836551904678345,8.155424118041992,35.651363372802734
0,1634331,19.143918991088867,20.404386520385742,19.05610466003418,4.4546990394592285
0,1634331,-0.9297885894775391,-12.495893478393555,-15.494157791137695,-50.1586799621582
0,1634332,0.9794468879699707,-19.29979705810547,-15.509956359863281,-16.340709686279297
0,1634332,-4.632112503051758,20.34724235534668,0.15402598679065704,12.695906639099121
0,1634332,-21.943700790405273,-0.31015804409980774,5.115067958831787,8.236153602600098
0,1634332,-5.509700775146484,-8.505393981933594,-3.499218702316284,-3.5373928546905518
0,1634332,15.902703285217285,12.919731140136719,-10.927741050720215,3.373918056488037
0,1634332,15.407010078430176,7.930291652679443,16.42501449584961,20.334585189819336
0,1634333,2.973262310028076,1.0600321292877197,33.565826416015625,-25.272886276245117
0,1634333,-9.922252655029297,-11.404899597167969,-29.199277877807617,-20.857532501220703
0,1634333,2.8422510623931885,-7.201319694519043,-30.97709846496582,45.19915771484375
0,1634333,-14.678945541381836,1.34824800491333,50.68659591674805,-6.552842140197754
0,1634333,0.8663468360900879,17.834823608398438,10.412883758544922,-39.66752624511719
0,1634333,26.529993057250977,12.509770393371582,-45.231727600097656,18.280914306640625
0,1634334,-9.8447847366333,-24.688640594482422,-1.8083338737487793,9.914973258972168
0,1634334,-10.84384822845459,-8.004573822021484,19.95074462890625,-11.779345512390137
0,1634334,-0.733250081539154,8.37032699584961,-1.9827325344085693,7.037917613983154
0,1634335,-14.242738723754883,-18.473726272583008,-22.403596878051758,3.967228412628174
0,1634335,-2.717770576477051,7.136887073516846,-18.260316848754883,10.725903511047363
0,1634336,24.030532836914062,36.49641418457031,15.510659217834473,6.4438395500183105
0,1634336,16.043292999267578,-1.51753830909729,31.581783294677734,-12.804923057556152
0,1634336,8.321406364440918,2.1091394424438477,-1.5963263511657715,6.172262668609619
0,1634337,-0.6845763921737671,20.69774627685547,-15.49203872680664,1.9681389331817627
0,1634339,-22.760549545288086,-37.91279602050781,6.40470027923584,-11.014520645141602
0,1634341,-5.447351455688477,-36.16376495361328,2.213163375854492,-11.28958797454834
0,1634343,22.792552947998047,65.56442260742188,29.149721145629883,-42.06928253173828
0,1634345,-14.977411270141602,-21.147785186767578,5.200881481170654,-117.0390853881836
0,1634347,-30.064579010009766,-116.98455047607422,-45.15830993652344,55.52902603149414
0,1634349,15.418547630310059,58.29072189331055,12.782584190368652,226.83645629882812
0,1634351,1.4537211656570435,79.9802017211914,-1.746010661125183,-26.171499252319336
0,1634353,0.608884871006012,-22.60772705078125,-12.199353218078613,-103.81629943847656
0,1634355,21.016674041748047,-1.3852407932281494,26.792234420776367,25.097400665283203
0,1634357,-18.230024337768555,-40.436668395996094,-9.122973442077637,21.299345016479492
0,1634359,-19.198081970214844,-14.35858154296875,-22.53384017944336,-13.879256248474121
0,1634361,8.293660163879395,45.10071563720703,-5.319427013397217,-25.53525161743164
0,1634363,19.384063720703125,8.424283981323242,15.927203178405762,19.489641189575195
0,1634365,10.930076599121094,-4.482463836669922,8.248519897460938,19.753969192504883
0,1634367,-23.68946075439453,-9.34934139251709,-12.227322578430176,-1.1018444299697876
0,1634369,8.799907684326172,28.92230987548828,10.931272506713867,-24.130477905273438
0,1634371,16.88970375061035,-1.8617745637893677,20.005868911743164,-58.434242248535156
0,1634477,-3.621528148651123,-42.399658203125,-6.497315883636475,26.780855178833008
0,1634477,3.406935691833496,3.247610569000244,-19.217296600341797,65.7789306640625
0,1634477,-21.26873016357422,3.6023812294006348,12.837347984313965,-5.88226842880249
0,1634477,-0.5757195949554443,18.61858558654785,-0.46548476815223694,-15.790924072265625
0,1634478,18.11191177368164,-3.8242528438568115,-18.113719940185547,-7.208464622497559
0,1634478,-14.051033020019531,-22.741249084472656,7.247982501983643,7.450252056121826
0,1634478,-24.020509719848633,3.214529275894165,-8.781730651855469,-1.287392258644104
0,1634478,-9.889971733093262,-23.1331844329834,-8.68623161315918,-38.26347351074219
0,1634478,11.466131210327148,-9.836376190185547,7.80708122253418,-23.19830322265625
0,1634479,5.53798246383667,20.94896125793457,-9.224544525146484,-1.382770299911499
0,1634479,-14.465700149536133,-5.742569923400879,-10.65399169921875,-9.4937162399292
0,1634479,-6.769659996032715,-7.454572677612305,-0.1374886929988861,-12.56921100616455
0,1634479,3.4078288078308105,-5.733254909515381,15.79932689666748,19.763916015625
0,1634479,4.823892593383789,3.754819393157959,29.459636688232422,52.13261795043945
0,1634479,30.19327163696289,49.450016021728516,-3.77724027633667,31.897876739501953
0,1634480,38.448604583740234,27.2919979095459,-5.301323413848877,4.242452621459961
0,1634480,-9.20366382598877,-10.004988670349121,16.851436614990234,-14.981021881103516
0,1634480,-5.0410027503967285,24.2957706451416,-1.1891076564788818,-13.793963432312012
0,1634480,4.869294166564941,12.406342506408691,14.869439125061035,7.84896993637085
0,1634480,-16.589937210083008,-36.06694793701172,18.76621437072754,-13.853362083435059
0,1634480,1.573972463607788,-20.014202117919922,-26.99472427368164,-17.093124389648438
0,1634481,7.200984001159668,30.079069137573242,-3.6287529468536377,-28.71959114074707
0,1634481,14.92930793762207,27.617448806762695,11.472187995910645,-38.2466926574707
0,1634481,4.588627338409424,-23.19888687133789,-20.979015350341797,27.457334518432617
0,1634481,-32.235015869140625,-12.521644592285156,8.321096420288086,29.476083755493164
0,1634481,-0.5461535453796387,12.837677001953125,11.067648887634277,-0.45728886127471924
0,1634481,18.074310302734375,3.9183366298675537,-12.595791816711426,14.106239318847656
0,1634482,-16.44489288330078,-17.259153366088867,-4.494438171386719,19.319740295410156
0,1634482,-7.193972110748291,-23.737844467163086,-18.816471099853516,12.158082008361816
0,1634482,2.2739620208740234,4.158447265625,-0.4136277735233307,-21.878875732421875
0,1634482,-12.146926879882812,-11.808578491210938,21.158279418945312,-5.981394290924072
0,1634482,-6.767875671386719,-37.35079574584961,-19.58548355102539,39.668399810791016
0,1634483,-1.3264647722244263,-4.725438594818115,-28.772302627563477,0.8814458847045898
0,1634483,2.5680460929870605,24.811613082885742,-3.4707584381103516,-21.98301887512207
0,1634483,11.640010833740234,3.732686996459961,2.5847690105438232,1.9250465631484985
0,1634483,-6.86273717880249,-30.073293685913086,7.5594000816345215,-1.6862084865570068
0,1634483,-6.041468620300293,-8.992679595947266,7.938876628875732,-25.04433250427246
0,1634483,17.236703872680664,27.056793212890625,-3.148294687271118,-25.165725708007812
0,1634483,-16.955671310424805,10.631401062011719,-14.560266494750977,-5.875712871551514
0,1634484,-12.988460540771484,10.064258575439453,15.578363418579102,-3.95528244972229
0,1634484,31.691831588745117,7.987347602844238,11.423927307128906,6.368895053863525
0,1634484,-5.29830265045166,-12.25048828125,-17.964780807495117,6.206374168395996
0,1634484,-15.097989082336426,14.612081527709961,24.583812713623047,21.369556427001953
0,1634484,32.91685485839844,12.331809043884277,-3.506714105606079,18.5699462890625
0,1634484,5.0019402503967285,-17.17225456237793,-30.57337760925293,-5.965850353240967
0,1634485,-19.75461769104004,-6.580453395843506,16.49813461303711,37.76909255981445
0,1634485,-9.973536491394043,-2.7724533081054688,2.9364655017852783,21.347972869873047
0,1634485,-5.237729549407959,10.268805503845215,5.569136619567871,-32.78844451904297
0,1634485,26.87083625793457,11.447007179260254,6.910318374633789,-11.7838716506958
0,1634485,-3.461818218231201,-30.1207275390625,-33.809547424316406,-0.7826241850852966
0,1634486,-25.365137100219727,-20.612533569335938,-1.1371674537658691,-18.16935157775879
0,1634486,10.115377426147461,19.824100494384766,16.74000358581543,-43.04493713378906
0,1634486,-3.0128753185272217,13.29006576538086,1.3928029537200928,-37.53938293457031
0,1634487,-24.687257766723633,-32.44382095336914,0.2835164964199066,39.79625701904297
0,1634487,-4.178421974182129,-21.891498565673828,-46.195980072021484,51.01686096191406
0,1634487,9.869063377380371,17.19778823852539,-21.343477249145508,-19.870405197143555
0,1634488,6.5201334953308105,-2.307837724685669,45.21211242675781,-1.8998441696166992
0,1634488,25.837997436523438,15.314878463745117,16.025012969970703,33.084346771240234
0,1634489,13.31296443939209,49.28496170043945,25.2119140625,21.00839614868164
0,1634490,-11.209582328796387,36.663970947265625,76.19991302490234,17.177356719970703
0,1634493,3.5806992053985596,-6.266162395477295,27.490150451660156,14.250755310058594
0,1634494,3.283259868621826,-18.52269172668457,-19.911746978759766,2.1685450077056885
0,1634497,-1.8094322681427002,12.414278030395508,-18.22722816467285,11.992268562316895
0,1634498,15.578143119812012,17.04931640625,-6.492668151855469,19.07819938659668
0,1634501,-8.964959144592285,-7.655767917633057,5.047233581542969,-118.056640625
0,1634503,-36.22280502319336,-34.28965377807617,-8.340365409851074,-136.18374633789062
0,1634505,24.808265686035156,-18.624330520629883,-36.195011138916016,65.71245574951172
0,1634507,14.322174072265625,-11.332524299621582,-29.65766716003418,97.9903564453125
0,1634509,-30.13872528076172,7.513673305511475,-5.819497585296631,-10.801939964294434
0,1634511,-7.960479736328125,7.937953472137451,-21.599002838134766,7.287459850311279
0,1634513,-9.446179389953613,-15.50384521484375,4.124588966369629,-9.03795051574707
0,1634515,18.475818634033203,-3.9497928619384766,5.259772777557373,-44.98208999633789
0,1634517,18.047693252563477,-0.9619165062904358,0.42310193181037903,54.9240608215332
0,1634519,2.183811664581299,37.245338439941406,40.33469772338867,-29.107053756713867
0,1634521,-1.185128092765808,13.892444610595703,7.802225589752197,-9.3403959274292
0,1634523,-0.14873890578746796,6.224732398986816,-6.169698238372803,116.41736602783203
0,1634525,-15.665542602539062,-49.92700958251953,-13.29727840423584,-71.41849517822266
0,1634527,-25.304443359375,-74.02599334716797,-14.010897636413574,-34.47122573852539
0,1634643,24.561359405517578,77.30353546142578,11.474098205566406,72.40974426269531
0,1634643,-3.94696307182312,26.778322219848633,-22.983842849731445,-50.66191482543945
0,1634644,-4.11267614364624,-49.41074752807617,-8.83531665802002,10.541315078735352
0,1634644,18.067123413085938,13.664395332336426,14.20050048828125,21.727197647094727
0,1634644,-10.066671371459961,6.510866641998291,4.99993896484375,-29.55477523803711
0,1634644,-14.433794975280762,-5.178013324737549,19.68601417541504,29.324342727661133
0,1634644,9.37626838684082,56.927066802978516,14.42598819732666,15.786465644836426
0,1634644,24.095008850097656,27.80214500427246,-6.259299278259277,-16.253082275390625
0,1634645,0.7979941964149475,-22.97514533996582,-20.124475479125977,-0.16787473857402802
0,1634645,-2.65362548828125,11.986123085021973,8.574616432189941,30.80546760559082
0,1634645,-2.279721975326538,4.743108749389648,27.751832962036133,21.67325210571289
0,1634645,-0.4330655336380005,-15.550617218017578,-4.691074371337891,-11.869985580444336
0,1634645,-1.206864356994629,-31.242265701293945,-22.6318359375,-12.802998542785645
0,1634646,-4.943065643310547,-17.930633544921875,-18.86211395263672,4.346818923950195
0,1634646,-0.9158234596252441,-8.800423622131348,16.713478088378906,6.891181468963623
0,1634646,7.193664073944092,-5.963296413421631,23.664308547973633,-20.168745040893555
0,1634646,7.5529303550720215,4.23821496963501,-24.93092155456543,-21.596416473388672
0,1634646,-12.406511306762695,-5.595559597015381,-11.189214706420898,-14.20500373840332
0,1634646,-5.432072639465332,6.352111339569092,22.549842834472656,-41.94429016113281
0,1634646,4.657107830047607,-14.612754821777344,8.298105239868164,-85.01636505126953
0,1634647,-3.8142991065979004,-25.8455753326416,-16.2691650390625,-113.7408676147461
0,1634647,-12.6566801071167,5.166244983673096,-12.590450286865234,-64.91546630859375
0,1634647,-15.54455280303955,6.6799397468566895,-4.108646869659424,-31.248502731323242
0,1634647,-0.06783238798379898,-0.4068087935447693,2.4800641536712646,-33.520755767822266
0,1634647,4.510322570800781,6.230679988861084,-3.4173343181610107,11.731755256652832
0,1634648,-9.311086654663086,10.867971420288086,3.445277452468872,39.81765365600586
0,1634648,3.9021167755126953,3.923121929168701,22.523292541503906,55.26380157470703
0,1634648,17.949066162109375,-13.024577140808105,-22.469953536987305,71.91223907470703
0,1634648,-4.467063903808594,-6.84556245803833,0.9737454652786255,64.20242309570312
0,1634648,-1.9206037521362305,11.27485466003418,49.68693161010742,76.12413787841797
0,1634648,17.208288192749023,14.363007545471191,-13.278284072875977,73.87886047363281
0,1634649,17.486574172973633,2.767366409301758,-24.828861236572266,32.69047927856445
0,1634649,10.257164001464844,-3.6706976890563965,23.26344108581543,32.810455322265625
0,1634649,3.739405632019043,6.234263896942139,-14.919403076171875,31.005918502807617
0,1634649,-11.905055046081543,-10.538416862487793,-6.1043524742126465,-4.913339138031006
0,1634649,-7.901020526885986,1.1783910989761353,28.228679656982422,-31.95853614807129
0,1634649,7.508750915527344,28.67786979675293,-13.010847091674805,-12.934843063354492
0,1634650,5.1459808349609375,-16.283811569213867,-2.1806559562683105,22.86416244506836
0,1634650,4.953060626983643,-17.84203338623047,11.535634994506836,9.53140926361084
0,1634650,-11.857014656066895,47.266231536865234,-12.431723594665527,15.65034008026123
0,1634650,-4.390415191650391,23.457307815551758,-12.838563919067383,3.4355411529541016
0,1634650,2.1250386238098145,-28.962005615234375,5.518959999084473,5.042963027954102
0,1634650,-12.894725799560547,8.793742179870605,8.621437072753906,14.494140625
0,1634651,1.8540135622024536,6.7134480476379395,-16.377073287963867,-31.613527297973633
0,1634651,-0.8017906546592712,-25.863725662231445,-8.753799438476562,-28.035358428955078
0,1634651,-8.607954978942871,19.36341094970703,4.414264678955078,-18.503889083862305
0,1634651,7.8076887130737305,13.16428279876709,-18.415075302124023,-33.71053695678711
0,1634651,1.0265542268753052,-28.783649444580078,2.8503031730651855,-26.5645751953125
0,1634651,-13.484750747680664,-5.892547607421875,25.598237991333008,-11.670387268066406
0,1634652,-0.1584353893995285,3.8143563270568848,2.8379859924316406,-12.972542762756348
0,1634652,1.6273759603500366,0.8385038375854492,-20.228635787963867,-6.558648109436035
0,1634652,-8.894659042358398,15.014429092407227,-8.150665283203125,8.467290878295898
0,1634652,16.00923728942871,-8.221388816833496,-4.818190097808838,4.079455375671387
0,1634652,-4.142842769622803,-20.96711540222168,8.121315956115723,11.379627227783203
0,1634652,-44.891353607177734,-1.0509305000305176,26.07299041748047,3.0554239749908447
0,1634653,13.980974197387695,2.548586368560791,-17.512210845947266,-8.242466926574707
0,1634653,34.514251708984375,0.07486176490783691,-10.928668975830078,16.93482780456543
0,1634653,-1.101637601852417,10.119290351867676,23.592662811279297,-11.33006763458252
0,1634654,-5.966856479644775,-18.585609436035156,-20.21481704711914,-81.31855773925781
0,1634654,-16.2999324798584,-25.458187103271484,-29.06491470336914,-26.35167694091797
0,1634655,13.028609275817871,25.54427719116211,24.128618240356445,34.896446228027344
0,1634655,15.901474952697754,-0.25514519214630127,8.450469017028809,-1.131066083908081
0,1634655,-20.315637588500977,-10.278968811035156,-14.714818000793457,13.115484237670898
0,1634655,-3.623804807662964,21.996679306030273,2.9194605350494385,20.094579696655273
0,1634657,22.422082901000977,-15.029606819152832,-16.166292190551758,-26.47618293762207
0,1634659,16.55419921875,-25.365270614624023,-21.42316436767578,-7.484842777252197
0,1634661,-1.1073304414749146,19.38362693786621,25.51038932800293,49.53711700439453
0,1634663,-10.41409969329834,25.867029190063477,56.40547561645508,17.289722442626953
0,1634665,-1.9481943845748901,7.527182102203369,7.396137714385986,45.32969665527344
0,1634667,-16.500507354736328,-31.962051391601562,-22.151721954345703,-125.17312622070312
0,1634669,2.337333917617798,-36.49943542480469,52.83238220214844,-138.98190307617188
0,1634671,51.18815994262695,59.26354217529297,18.71647834777832,288.7559509277344
0,1634673,-7.5268354415893555,59.29198455810547,-48.83537673950195,87.42803192138672
0,1634675,-34.974239349365234,-26.904109954833984,-11.788698196411133,-209.1507110595703
0,1634677,-10.800402641296387,-40.471744537353516,-5.5996317863464355,24.400115966796875
0,1634679,-18.839935302734375,-46.24848556518555,-63.92147445678711,59.779212951660156
0,1634681,7.807602882385254,10.56496810913086,-27.820274353027344,1.829632043838501
0,1634683,20.851314544677734,97.74015808105469,87.58491516113281,6.710251808166504
0,1634685,-7.416857719421387,-23.957355499267578,5.790364742279053,-102.91976928710938
0,1634687,-9.952536582946777,-106.23035430908203,-36.07607650756836,2.5268001556396484
0,1634689,33.98279571533203,55.274600982666016,37.18199920654297,119.25440979003906
0,1634691,21.601207733154297,55.4019775390625,-4.493100166320801,-35.024017333984375
0,1634693,-47.227088928222656,-60.22175598144531,-25.645755767822266,-69.1795654296875
0,1634695,-14.493180274963379,3.3914451599121094,13.550171852111816,13.214649200439453
0,1634697,37.6532096862793,28.532014846801758,34.74006652832031,26.669336318969727
0,1634698,-13.629557609558105,-21.980112075805664,16.914752960205078,-2.5687880516052246
0,1634827,-4.464093208312988,29.316492080688477,-31.742700576782227,3.562288522720337
0,1634828,25.457578659057617,25.082399368286133,-34.357418060302734,-0.9037972688674927
0,1634828,-11.087620735168457,-44.10603332519531,19.779874801635742,-0.6476240754127502
0,1634828,-8.144250869750977,-5.972614288330078,-8.8005952835083,18.834796905517578
0,1634828,10.70104694366455,36.163360595703125,-30.37247085571289,-13.05026912689209
0,1634828,9.307378768920898,-12.437986373901367,26.3498592376709,-16.846181869506836
0,1634828,-4.4847612380981445,-17.022592544555664,3.1334314346313477,13.986860275268555
0,1634829,-10.025390625,7.871352195739746,-17.905521392822266,-10.364288330078125
0,1634829,-14.602974891662598,-24.01620864868164,11.43370532989502,-26.99233627319336
0,1634829,-5.389415740966797,-9.7062349319458,17.46367835998535,31.148094177246094
0,1634829,5.113409042358398,29.87360954284668,6.90006685256958,20.440189361572266
0,1634829,2.2842018604278564,9.395469665527344,-11.78907585144043,-24.57465171813965
0,1634830,2.862757921218872,-30.396482467651367,-13.395429611206055,7.930390357971191
0,1634830,-12.203038215637207,-15.022939682006836,-2.5589046478271484,15.027665138244629
0,1634830,-6.678319454193115,33.2984733581543,10.56954288482666,-11.543472290039062
0,1634830,17.14125633239746,1.0086807012557983,4.287056922912598,-21.973087310791016
0,1634830,14.650498390197754,-37.977294921875,1.508982539176941,-16.532758712768555
0,1634830,-7.2315545082092285,10.651622772216797,13.81106185913086,0.022903956472873688
0,1634831,-6.934901237487793,16.930461883544922,1.9068686962127686,9.85282039642334
0,1634831,-6.2931904792785645,-8.148192405700684,4.270698547363281,12.681870460510254
0,1634831,8.323490142822266,3.345433235168457,11.364294052124023,2.645103931427002
0,1634831,-0.533298909664154,1.057941198348999,-11.584431648254395,-3.541778564453125
0,1634831,-25.630477905273438,-9.18747329711914,-15.761658668518066,6.633184909820557
0,1634831,24.05607032775879,8.109806060791016,5.2991838455200195,9.514710426330566
0,1634832,9.551924705505371,27.67613410949707,6.136588096618652,7.985985279083252
0,1634832,-7.980047702789307,-1.3330168724060059,-6.845762252807617,-10.89477252960205
0,1634832,23.938016891479492,-4.423680305480957,-12.551979064941406,1.891600489616394
0,1634832,-1.7976709604263306,21.869800567626953,5.745492458343506,25.787975311279297
0,1634832,-3.022653818130493,0.39762070775032043,7.57289981842041,-11.114747047424316
0,1634832,-4.490270137786865,-15.197009086608887,-2.9809153079986572,-14.903535842895508
0,1634833,-4.397603511810303,8.986197471618652,-6.584160804748535,-2.671365976333618
0,1634833,-0.7323803305625916,1.7709518671035767,-7.968085765838623,8.528910636901855
0,1634833,-15.326530456542969,-34.29414367675781,6.538270950317383,24.32378387451172
0,1634833,1.6879959106445312,1.147270917892456,1.3621199131011963,-7.024918079376221
0,1634833,-4.002190113067627,28.714982986450195,-8.007767677307129,-27.27652931213379
0,1634833,-19.72954750061035,-15.460503578186035,-8.361775398254395,-15.458341598510742
0,1634834,11.894704818725586,-18.22601890563965,-3.238969087600708,-4.209654331207275
0,1634834,22.794921875,5.500925540924072,5.117849826812744,19.503986358642578
0,1634834,-1.0985157489776611,-25.030405044555664,6.547970771789551,3.76705002784729
0,1634834,-2.976466417312622,-7.207869529724121,10.162084579467773,-16.429964065551758
0,1634834,-4.085763931274414,27.12297248840332,3.9283695220947266,4.312347888946533
0,1634835,10.51322078704834,-8.008131980895996,0.6306691765785217,-18.537492752075195
0,1634835,4.773827075958252,8.65632152557373,1.3913227319717407,-9.08454704284668
0,1634835,-20.75534439086914,13.061441421508789,-27.892072677612305,23.0693302154541
0,1634835,-10.777687072753906,-13.369643211364746,0.26421037316322327,1.7718620300292969
0,1634835,10.690550804138184,-4.341064453125,37.203182220458984,-3.755295515060425
0,1634835,24.029722213745117,11.371830940246582,-11.156639099121094,-14.696179389953613
0,1634836,-8.557941436767578,15.296162605285645,-20.437286376953125,-22.355777740478516
0,1634836,-17.580291748046875,-15.832498550415039,10.903729438781738,23.615447998046875
0,1634836,7.350214958190918,-5.242090702056885,12.259383201599121,31.590091705322266
0,1634836,1.0487778186798096,16.321517944335938,-15.154759407043457,1.621201515197754
0,1634836,8.045867919921875,4.119845867156982,-21.672767639160156,-1.842093586921692
0,1634836,18.949684143066406,1.9221290349960327,16.825986862182617,16.365978240966797
0,1634837,-17.28315544128418,-10.734746932983398,26.363113403320312,19.62632179260254
0,1634837,-21.764060974121094,-28.220203399658203,15.355981826782227,7.073755264282227
0,1634837,23.879404067993164,13.656207084655762,-8.152000427246094,-7.166852951049805
0,1634837,3.6412408351898193,43.70560836791992,-26.592195510864258,3.0994725227355957
0,1634837,-12.464252471923828,-17.855239868164062,-1.3937925100326538,20.080305099487305
0,1634837,7.550146579742432,-5.873554229736328,1.8511202335357666,-1.3957747220993042
0,1634838,-7.695319175720215,14.808725357055664,14.936103820800781,-5.045647621154785
0,1634838,-2.6068546772003174,-0.5342773199081421,25.032499313354492,-14.653618812561035
0,1634838,15.31139850616455,15.332268714904785,-15.73620319366455,-17.645448684692383
0,1634838,7.171852111816406,-28.648635864257812,-25.368181228637695,8.297934532165527
0,1634838,-12.501510620117188,-24.20832633972168,-0.6276259422302246,-3.6328341960906982
0,1634840,-13.998891830444336,31.787002563476562,14.369375228881836,-70.35161590576172
0,1634840,12.102742195129395,-2.032480478286743,3.3873085975646973,-54.46921920776367
0,1634840,-2.2342710494995117,-25.90146827697754,-8.247071266174316,36.6353645324707
0,1634840,-18.139225006103516,14.62372875213623,-5.642428874969482,19.950428009033203
0,1634840,3.8772385120391846,-4.8668622970581055,-2.308467388153076,-14.924629211425781
0,1634840,6.753809928894043,-21.937807083129883,14.592545509338379,-2.6013479232788086
0,1634842,8.43394947052002,-17.950883865356445,-12.474684715270996,-28.164064407348633
0,1634843,-10.939186096191406,-6.49105167388916,-15.598824501037598,17.68242073059082
0,1634844,-31.838176727294922,51.59455490112305,16.39846420288086,74.91732788085938
0,1634847,27.275774002075195,6.025963306427002,-21.461565017700195,34.51175308227539
0,1634848,43.10127639770508,-45.48883819580078,-21.072847366333008,-4.797272682189941
0,1634851,-24.450986862182617,-4.940227508544922,14.152883529663086,-30.62547492980957
0,1634852,17.34775161743164,18.38694190979004,18.416431427001953,-2.374173641204834
0,1634855,13.812018394470215,37.663570404052734,12.591307640075684,37.55801773071289
0,1634856,-48.44595718383789,-0.7400774359703064,-5.313230514526367,6.778196334838867
0,1634859,-3.8299384117126465,-34.865028381347656,-1.7086479663848877,-24.825456619262695
0,1634860,11.50688362121582,21.577499389648438,17.992786407470703,-6.380369663238525
0,1634863,19.704397201538086,27.85533905029297,7.6892876625061035,-36.602806091308594
0,1634864,-4.732673168182373,-3.9441981315612793,-12.879617691040039,-14.818458557128906
0,1634867,-39.11136245727539,-12.659890174865723,-2.4513657093048096,46.42717742919922
0,1634869,-5.008100509643555,-19.53606414794922,15.509249687194824,1.2955868244171143
0,1634871,28.78277015686035,10.27950382232666,5.08496618270874,-33.02454376220703
0,1634873,16.016267776489258,10.37794017791748,-26.00131607055664,-7.6059250831604
0,1634875,-24.09224510192871,-19.241195678710938,-17.556102752685547,42.742557525634766
0,1634877,-1.1140470504760742,-6.837225437164307,14.118452072143555,0.07488596439361572
0,1634879,9.437379837036133,11.252963066101074,-3.7306580543518066,-33.8963737487793
0,1634881,2.0213828086853027,1.8070248365402222,-8.224098205566406,16.968971252441406
0,1634883,13.196019172668457,-8.652236938476562,12.915238380432129,10.30338191986084
0,1635022,-19.07208251953125,6.586416244506836,15.163230895996094,1.2403652667999268
0,1635022,-6.369838237762451,9.281753540039062,7.392345905303955,-8.659093856811523
0,1635022,26.337890625,-1.0150712728500366,-17.68027687072754,-9.365629196166992
0,1635023,-4.948708534240723,-3.1685540676116943,-9.497644424438477,7.961965084075928
0,1635023,-27.21967124938965,-8.653095245361328,18.040973663330078,-1.2486671209335327
0,1635023,6.793740272521973,3.162240982055664,-1.7512465715408325,-2.4327454566955566
0,1635023,16.219655990600586,12.465829849243164,-23.028377532958984,-19.125200271606445
0,1635023,-2.0784246921539307,-11.59834098815918,6.458730220794678,-5.555641174316406
0,1635024,1.3424665927886963,0.5783201456069946,22.61629295349121,22.022430419921875
0,1635024,-1.4587315320968628,5.317383289337158,-8.552070617675781,-1.3821684122085571
0,1635024,7.1391730308532715,-3.064314842224121,-26.33287239074707,-11.464357376098633
0,1635024,-2.63407564163208,7.567668914794922,5.250176429748535,3.4220199584960938
0,1635024,-9.370487213134766,-7.2638373374938965,14.906135559082031,20.836896896362305
0,1635024,-6.551050662994385,7.8309712409973145,1.662042260169983,13.692801475524902
0,1635025,-0.8061761260032654,10.601600646972656,12.58526611328125,-5.440047264099121
0,1635025,22.4969425201416,-17.168697357177734,3.953949213027954,-5.995491027832031
0,1635025,2.1497786045074463,-19.172208786010742,-2.11814546585083,-16.161666870117188
0,1635025,-13.061491966247559,-1.7472658157348633,-2.8534555435180664,9.925301551818848
0,1635025,0.9978051781654358,17.41596031188965,1.913577675819397,29.884382247924805
0,1635025,8.39806079864502,5.070196151733398,-10.970588684082031,-15.04171085357666
0,1635026,5.521388053894043,-15.122159957885742,-15.002237319946289,-15.122392654418945
0,1635026,-4.5320258140563965,4.298964977264404,18.16315460205078,-0.04206737503409386
0,1635026,1.139107584953308,2.7915360927581787,-6.922561168670654,-13.06135368347168
0,1635026,-10.803742408752441,-8.470951080322266,-14.34908390045166,19.791412353515625
0,1635026,-14.245060920715332,10.978679656982422,25.299516677856445,14.736454963684082
0,1635026,17.12323760986328,4.474836826324463,-6.697515964508057,-19.918245315551758
0,1635027,-3.2880566120147705,-3.2868893146514893,-24.417144775390625,-6.969511032104492
0,1635027,-9.840576171875,2.273611068725586,12.699445724487305,2.180290937423706
0,1635027,26.706850051879883,-2.141772508621216,5.608992099761963,-1.7810070514678955
0,1635027,-2.1848649978637695,-6.175821304321289,-13.697441101074219,1.0157221555709839
0,1635027,-31.212926864624023,-2.860935688018799,18.174673080444336,17.091388702392578
0,1635027,9.457995414733887,11.097879409790039,18.36616325378418,-2.523345708847046
0,1635028,18.975923538208008,-5.738399028778076,-16.942447662353516,-23.717256546020508
0,1635028,-4.646213054656982,-14.29231071472168,-10.247371673583984,-0.056460052728652954
0,1635028,7.8487677574157715,13.70853328704834,-5.4499945640563965,11.027081489562988
0,1635028,2.7704315185546875,-12.680768013000488,12.073396682739258,18.591825485229492
0,1635028,-16.47848892211914,-17.39346694946289,19.98583221435547,2.902973175048828
0,1635028,1.9360905885696411,33.67760467529297,-18.89897918701172,-27.703187942504883
0,1635029,8.561668395996094,6.568531513214111,-20.26239585876465,0.46804872155189514
0,1635029,-13.266449928283691,-28.415851593017578,6.839432716369629,1.779119849205017
0,1635029,-8.997779846191406,4.831969261169434,10.900369644165039,-9.445616722106934
0,1635029,0.2658773958683014,15.739043235778809,-12.868936538696289,9.030698776245117
0,1635029,-0.25640004873275757,-3.9489905834198,-8.632171630859375,-8.428548812866211
0,1635029,5.785014629364014,-1.621046781539917,30.003055572509766,5.951186656951904
0,1635030,-11.78248119354248,22.862640380859375,-1.096693754196167,14.546911239624023
0,1635030,-10.860088348388672,-10.280914306640625,-19.788339614868164,-1.026542067527771
0,1635030,9.12484359741211,-14.899223327636719,12.468354225158691,-5.498559951782227
0,1635030,2.3953733444213867,34.25538635253906,14.877204895019531,1.2393345832824707
0,1635030,3.70695424079895,-9.083793640136719,0.638375461101532,10.560568809509277
0,1635031,4.9659881591796875,-23.576608657836914,-5.807610034942627,1.637386441230774
0,1635031,2.645345449447632,18.082584381103516,-4.37915563583374,6.6985859870910645
0,1635031,2.3577802181243896,-6.363156318664551,6.9447021484375,-8.047296524047852
0,1635031,-3.0420713424682617,-17.09666633605957,3.9111194610595703,-12.707684516906738
0,1635031,-5.083014011383057,14.54647445678711,-19.651939392089844,-12.629536628723145
0,1635031,-5.317668437957764,5.423245429992676,-9.174947738647461,-15.897135734558105
0,1635032,8.507479667663574,-12.323975563049316,9.018613815307617,-6.369345664978027
0,1635032,16.108007431030273,-8.84366226196289,-5.741386413574219,9.736010551452637
0,1635032,-26.899837493896484,7.087388038635254,1.6124203205108643,35.90939712524414
0,1635032,-5.535236835479736,17.459611892700195,19.914833068847656,11.695612907409668
0,1635032,41.65345764160156,-11.327177047729492,-3.596963405609131,-26.03464698791504
0,1635032,-15.791479110717773,-12.519770622253418,-7.106726169586182,-6.02769660949707
0,1635033,-21.341964721679688,8.206241607666016,-2.361204147338867,15.818497657775879
0,1635033,22.926132202148438,3.100698947906494,-2.6444144248962402,-20.79927635192871
0,1635033,6.4814910888671875,-5.68308162689209,3.1707940101623535,-20.955881118774414
0,1635033,-17.990854263305664,2.148988723754883,-1.8581057786941528,42.09682846069336
0,1635033,2.7835724353790283,22.924409866333008,-1.0065371990203857,16.596424102783203
0,1635033,21.781888961791992,-8.051878929138184,6.771554946899414,-13.372907638549805
0,1635034,-4.997476577758789,-27.7894287109375,6.435248851776123,19.025413513183594
0,1635034,-19.69007110595703,16.350866317749023,-1.4360300302505493,-16.540565490722656
0,1635034,5.385045528411865,8.395750045776367,-4.978070259094238,-30.578052520751953
0,1635035,9.887672424316406,-27.991487503051758,-25.80555534362793,11.347149848937988
0,1635035,-16.695343017578125,17.625699996948242,-4.752781391143799,14.342453956604004
0,1635035,1.3916147947311401,23.82918357849121,28.452913284301758,-16.69808578491211
0,1635036,5.900832653045654,-27.515779495239258,9.499183654785156,-2.8796465396881104
0,1635036,-9.224806785583496,0.5934944748878479,4.675757884979248,26.34917449951172
0,1635036,15.801424026489258,26.55780792236328,-5.8647050857543945,0.1837058961391449
0,1635037,-6.2644829750061035,2.43267822265625,-7.581241607666016,-12.834222793579102
0,1635039,-19.861181259155273,-11.15383529663086,6.153682708740234,-11.510492324829102
0,1635041,35.82968521118164,-0.32476601004600525,-15.926764488220215,-8.615273475646973
0,1635043,3.075218677520752,-0.2843247950077057,0.18159890174865723,11.879853248596191
0,1635045,-32.82891082763672,-10.161673545837402,11.496437072753906,2.4691951274871826
0,1635047,13.442092895507812,-11.186129570007324,-16.81454086303711,8.718777656555176
0,1635049,-1.4077785015106201,-5.858354091644287,-9.627679824829102,8.158353805541992
0,1635051,-1.8889011144638062,6.611641883850098,20.88048553466797,-10.277709007263184
0,1635053,7.449314594268799,16.178491592407227,21.19931983947754,12.490105628967285
0,1635055,-3.9327218532562256,-13.119915962219238,-20.920934677124023,-22.002185821533203
0,1635057,-0.34993255138397217,-29.213359832763672,-5.0703253746032715,-15.795684814453125
0,1635059,1.6166822910308838,27.887428283691406,21.332616806030273,21.781057357788086
0,1635061,-4.017242908477783,22.59554672241211,-5.019366264343262,6.72602653503418
0,1635063,-9.490904808044434,-27.255414962768555,-12.170713424682617,-7.816768169403076
0,1635065,9.78623104095459,11.483267784118652,-10.253182411193848,-2.41994309425354
0,1635067,6.839178085327148,18.17679214477539,10.079137802124023,24.289697647094727
0,1635070,11.766234397888184,-18.550172805786133,18.037343978881836,-20.454084396362305
0,1635071,-9.191959381103516,6.396133899688721,-5.187135696411133,-15.809751510620117
0,1635072,-27.448450088500977,16.23310089111328,16.630475997924805,43.09867477416992
0,1635075,22.423120498657227,-15.996354103088379,-4.645415782928467,-16.84251594543457
0,1635076,12.05236530303955,-27.157798767089844,-61.54798126220703,-42.848716735839844
0,1635079,-18.63286590576172,5.889058589935303,-23.188579559326172,43.89677810668945
0,1635080,-5.487341403961182,20.155189514160156,32.624324798583984,46.11711502075195
0,1635231,9.902779579162598,-8.10213565826416,66.7840576171875,-40.80388259887695
0,1635231,15.443008422851562,-6.630578517913818,31.501863479614258,-54.556095123291016
0,1635231,-2.4445412158966064,18.96826171875,-46.98097229003906,-1.0099684000015259
0,1635231,-26.114334106445312,3.0374441146850586,-17.775354385375977,17.46483612060547
0,1635231,-8.64295482635498,-7.852449417114258,11.216078758239746,32.54887771606445
0,1635231,18.053194046020508,7.519705772399902,-11.990317344665527,22.06111717224121
0,1635232,3.3357737064361572,-8.061760902404785,3.1183884143829346,-29.550189971923828
0,1635232,3.669140100479126,-12.162604331970215,1.2034051418304443,-20.746135711669922
0,1635232,-4.685610294342041,7.015718936920166,-11.770147323608398,13.633292198181152
0,1635232,-9.835875511169434,4.0751953125,15.472804069519043,14.321887016296387
0,1635232,16.445247650146484,1.033759593963623,8.825872421264648,2.4164040088653564
0,1635232,6.183894634246826,3.9193670749664307,-21.341291427612305,-11.98826789855957
0,1635233,-4.730678558349609,-6.836852550506592,-31.29476547241211,-13.201395034790039
0,1635233,13.157629013061523,-4.462634086608887,-7.818558692932129,20.674772262573242
0,1635233,-6.21981954574585,-2.7230160236358643,39.724822998046875,2.4282331466674805
0,1635233,-22.954252243041992,-10.628141403198242,-1.0166549682617188,-36.860679626464844
0,1635233,6.517209529876709,14.4365873336792,-23.75550651550293,16.46615982055664
0,1635233,7.398233890533447,16.323129653930664,17.425537109375,5.170928955078125
0,1635234,-17.52280616760254,-19.559179306030273,4.934082984924316,-22.846588134765625
0,1635234,-10.105874061584473,-2.9033501148223877,3.133168935775757,31.07356071472168
0,1635234,20.509382247924805,15.362066268920898,6.6508331298828125,19.633750915527344
0,1635234,13.546608924865723,-7.069653511047363,2.111948013305664,-17.783090591430664
0,1635234,-0.813146710395813,1.646375060081482,-3.9980950355529785,-0.46639183163642883
0,1635234,-2.6272504329681396,-1.717251181602478,-13.377944946289062,11.102649688720703
0,1635235,-11.73489761352539,-5.090381622314453,1.5912249088287354,-3.5035760402679443
0,1635235,9.077106475830078,20.806106567382812,-2.280087471008301,2.1600520610809326
0,1635235,3.922234058380127,-8.0164213180542,-6.212608337402344,-0.3279794454574585
0,1635235,-0.6462279558181763,-21.895877838134766,7.758988857269287,-18.490530014038086
0,1635235,18.533910751342773,15.080048561096191,-8.466323852539062,-9.186445236206055
0,1635236,-22.9127254486084,3.2647485733032227,-2.9158482551574707,3.5417678356170654
0,1635236,-28.86223602294922,-5.490337371826172,15.368494033813477,-10.326520919799805
0,1635236,18.35126304626465,9.280994415283203,-1.3497120141983032,-1.388495683670044
0,1635236,-0.6922319531440735,-12.471552848815918,-4.310953140258789,23.130023956298828
0,1635236,-12.359536170959473,-7.284383296966553,0.75557541847229,-8.560168266296387
0,1635236,3.2810723781585693,-2.907064199447632,18.72408103942871,-8.424596786499023
0,1635237,-0.8222542405128479,-1.7042797803878784,12.625988960266113,25.865819931030273
0,1635237,12.938294410705566,25.700441360473633,-10.173832893371582,-7.514468193054199
0,1635237,13.799627304077148,-1.7861255407333374,0.03578073903918266,-22.931520462036133
0,1635237,0.2538386285305023,-17.765602111816406,-3.0573971271514893,16.371204376220703
0,1635237,0.9410330057144165,0.33755141496658325,-9.271355628967285,9.316685676574707
0,1635237,-10.535186767578125,-1.6856112480163574,8.652939796447754,-7.988381385803223
0,1635238,-7.823915481567383,18.586376190185547,1.0801045894622803,11.47032356262207
0,1635238,2.2404978275299072,10.19599723815918,-2.132032632827759,5.1383748054504395
0,1635238,8.671394348144531,-26.359600067138672,9.697135925292969,-11.510115623474121
0,1635238,22.01226806640625,-3.1184935569763184,-5.152898788452148,4.919052600860596
0,1635238,-6.831151485443115,28.682397842407227,5.459962844848633,12.330941200256348
0,1635238,-19.56218910217285,1.1404918432235718,-10.536150932312012,-29.076173782348633
0,1635239,-1.440178632736206,-8.356490135192871,-9.748433113098145,0.11957362294197083
0,1635239,-1.4486783742904663,3.673314094543457,33.94661331176758,41.184326171875
0,1635239,9.943559646606445,1.325847864151001,-13.718618392944336,-16.67892074584961
0,1635239,5.128592491149902,-11.606968879699707,-35.67121505737305,-30.95075035095215
0,1635239,-12.230345726013184,-11.643996238708496,15.456538200378418,19.19195556640625
0,1635239,-1.780565619468689,34.525386810302734,10.268656730651855,16.807384490966797
0,1635240,6.640379428863525,-0.6763023138046265,-10.631747245788574,-23.78606605529785
0,1635240,3.866130828857422,-41.70667266845703,-6.414010524749756,-3.118333578109741
0,1635240,-16.28287124633789,2.7771718502044678,9.860687255859375,24.508785247802734
0,1635240,-5.8041300773620605,21.40115737915039,10.44651985168457,3.4063870906829834
0,1635240,19.718523025512695,0.7391473054885864,-6.527777671813965,-26.46283721923828
0,1635240,-9.036247253417969,-11.684627532958984,-5.390952110290527,-25.117345809936523
0,1635241,-16.345691680908203,1.113520860671997,0.3019353747367859,16.5023136138916
0,1635241,15.93391227722168,7.150113105773926,9.673192977905273,9.55746078491211
0,1635241,20.815576553344727,3.6736600399017334,-20.909439086914062,5.554220199584961
0,1635241,-21.25775909423828,5.614969253540039,-4.49885368347168,19.179773330688477
0,1635241,-24.49492073059082,-24.455013275146484,39.740814208984375,-24.87067985534668
0,1635241,17.682188034057617,-16.9813289642334,-20.899309158325195,-21.984729766845703
0,1635242,7.464239120483398,27.1826171875,-35.35378646850586,6.784441947937012
0,1635242,-3.9562137126922607,10.409485816955566,25.701690673828125,12.818791389465332
0,1635242,18.412443161010742,-7.595006465911865,30.27808952331543,16.08533477783203
0,1635242,7.241647243499756,-0.9489685297012329,-16.503019332885742,7.274147987365723
0,1635242,-27.242464065551758,14.685524940490723,-9.834752082824707,-0.5623049736022949
0,1635242,1.3206511735916138,-12.531739234924316,11.121554374694824,-21.68665885925293
0,1635243,27.693143844604492,-26.994108200073242,-21.650482177734375,1.5186636447906494
0,1635243,-15.668499946594238,16.237632751464844,-10.042250633239746,43.10899353027344
0,1635243,-9.492130279541016,30.653902053833008,40.088340759277344,2.9999492168426514
0,1635243,19.054651260375977,5.246764183044434,5.696032524108887,-6.41641092300415
0,1635244,5.066201210021973,-37.3311882019043,-22.615184783935547,3.8016703128814697
0,1635245,-4.147393226623535,-20.455997467041016,11.619230270385742,-43.07388687133789
0,1635245,-4.351701736450195,16.397382736206055,-3.7442145347595215,-3.764690637588501
0,1635245,-1.0072988271713257,-4.626266956329346,-6.915090084075928,8.84922981262207
0,1635245,-6.745471954345703,2.497445583343506,15.035843849182129,-30.61530113220215
0,1635245,0.13844357430934906,18.915775299072266,-6.389725685119629,2.8841512203216553
0,1635245,3.5863983631134033,5.624976634979248,-8.893975257873535,-11.483153343200684
0,1635247,-11.945497512817383,1.7698894739151,14.482356071472168,-38.071197509765625
0,1635249,2.6443679332733154,13.433280944824219,-25.666698455810547,32.461788177490234
0,1635251,-7.6556267738342285,-11.70427131652832,-27.685331344604492,19.54660987854004
0,1635253,-9.92305850982666,-31.778602600097656,32.41897964477539,-82.18814086914062
0,1635255,15.717598915100098,18.920259475708008,21.70062255859375,69.35712432861328
0,1635257,7.379515647888184,24.70823097229004,4.530471324920654,179.9513702392578
0,1635259,5.0045647621154785,-15.980831146240234,-18.53911018371582,-43.7796745300293
0,1635261,-13.07660961151123,-26.24522590637207,-30.949647903442383,-106.33557891845703
0,1635263,-1.1909352540969849,12.982608795166016,20.094791412353516,-16.451263427734375
0,1635265,-3.396986246109009,-0.2401643991470337,4.9748921394348145,-29.869476318359375
0,1635267,-4.519532680511475,-21.417531967163086,-8.124418258666992,34.163204193115234
0,1635269,48.37289810180664,52.18104934692383,54.77244186401367,77.10005950927734
0,1635271,7.279002666473389,27.732412338256836,19.525310516357422,-7.776802062988281
0,1635274,-46.810943603515625,-51.409149169921875,-69.31261444091797,-58.557369232177734
0,1635275,-15.555317878723145,-23.127574920654297,-60.29039764404297,-10.477095603942871
0,1635276,21.105876922607422,0.9881107807159424,-19.493324279785156,-1.1817827224731445
0,1635279,-8.522978782653809,-0.5258166790008545,28.450902938842773,-8.898773193359375
0,1635280,-18.690338134765625,30.27721405029297,88.68029022216797,53.54039001464844
0,1635283,30.30593490600586,7.539638519287109,50.104087829589844,24.404359817504883
0,1635284,19.340007781982422,-34.031898498535156,-40.004241943359375,-49.977073669433594
0,1635287,-16.05254554748535,-21.22429084777832,-38.95011901855469,-13.730293273925781
0,1635288,-11.707524299621582,26.74871253967285,-7.21923828125,16.49083137512207
0,1635291,4.168776035308838,45.43547058105469,2.0155670642852783,-14.151735305786133
0,1635292,3.980992555618286,-21.314043045043945,20.53281593322754,0.8378560543060303
0,1635453,8.287874221801758,-23.210180282592773,16.192424774169922,8.955020904541016
0,1635453,9.539093971252441,18.441341400146484,-4.434986591339111,-24.5091609954834
0,1635453,-27.331748962402344,-5.168140411376953,-10.58703899383545,1.821524739265442
0,1635453,-4.0167670249938965,1.3275036811828613,-8.955513954162598,47.946720123291016
0,1635454,37.18189239501953,18.42327117919922,-17.69097328186035,0.43118715286254883
0,1635454,-4.429356575012207,-14.833215713500977,-20.699813842773438,-20.642839431762695
0,1635454,-24.49179458618164,-18.629356384277344,12.628886222839355,24.783781051635742
0,1635454,-1.5738428831100464,7.087522983551025,22.971851348876953,2.360854387283325
0,1635454,-2.9306516647338867,-8.182084083557129,1.5187665224075317,-22.15513038635254
0,1635454,8.03389835357666,14.672497749328613,-0.44928446412086487,-10.341798782348633
0,1635455,13.254622459411621,8.219439506530762,-15.913445472717285,-8.11203670501709
0,1635455,-18.086658477783203,-32.62168502807617,-10.517172813415527,-0.2050064653158188
0,1635455,-5.539360523223877,16.92671775817871,19.347360610961914,-6.101559638977051
0,1635455,10.59532642364502,26.30344009399414,9.847987174987793,-0.6215875148773193
0,1635455,-4.101884841918945,-24.322275161743164,-12.314339637756348,8.724823951721191
0,1635455,-5.967084884643555,-14.408885955810547,-2.880112886428833,-1.5345839262008667
0,1635456,2.320798397064209,7.536180019378662,4.598462104797363,-12.425945281982422
0,1635456,11.017210006713867,-3.8283751010894775,-9.8237943649292,-19.595359802246094
0,1635456,-10.680076599121094,10.33122730255127,13.716852188110352,10.073038101196289
0,1635456,-17.562986373901367,11.302874565124512,14.114160537719727,34.78673553466797
0,1635456,1.077006459236145,-6.909125804901123,-9.345767974853516,0.8952114582061768
0,1635457,9.164490699768066,11.354710578918457,-11.443212509155273,-20.1179256439209
0,1635457,16.012348175048828,-1.0684611797332764,-9.165072441101074,26.65145492553711
0,1635457,-1.10262930393219,-20.357851028442383,18.901081085205078,28.066970825195312
0,1635457,-3.4738543033599854,-3.7532718181610107,11.369502067565918,-12.812777519226074
0,1635457,21.805387496948242,16.21869659423828,-15.069385528564453,11.595232009887695
0,1635457,5.637022972106934,5.9714765548706055,-13.112727165222168,8.36715030670166
0,1635458,-22.960901260375977,-17.451940536499023,-2.3910419940948486,-20.832672119140625
0,1635458,-6.002374649047852,-9.090503692626953,9.084125518798828,12.505000114440918
0,1635458,1.561324954032898,-3.961074113845825,15.099145889282227,10.82511043548584
0,1635458,7.580591201782227,26.310894012451172,-0.024170080199837685,-34.313148498535156
0,1635458,27.731874465942383,26.26947021484375,-1.5219358205795288,-23.961450576782227
0,1635458,-7.667043209075928,-13.25967025756836,13.29707145690918,16.79461669921875
0,1635459,-27.81667709350586,-11.992051124572754,-9.358877182006836,-8.464673042297363
0,1635459,4.487955093383789,-10.515533447265625,-29.847091674804688,-32.295196533203125
0,1635459,-11.336005210876465,-0.8208353519439697,6.433605194091797,7.619569301605225
0,1635459,-10.883434295654297,10.641337394714355,10.251697540283203,-0.5308985710144043
0,1635459,22.28716278076172,-5.558538436889648,-16.736236572265625,-14.831320762634277
0,1635459,-0.1117207333445549,1.6206923723220825,28.98129653930664,15.963370323181152
0,1635460,-0.9518316984176636,17.041200637817383,13.203420639038086,3.5928690433502197
0,1635460,12.079620361328125,-5.954654216766357,-39.41101837158203,-9.081768989562988
0,1635460,-9.096016883850098,-23.11650276184082,-1.6364644765853882,37.86344528198242
0,1635460,-16.09572410583496,2.22367787361145,21.722949981689453,27.163471221923828
0,1635460,3.7161688804626465,15.19877815246582,-11.156455039978027,-28.297597885131836
0,1635460,20.84218406677246,-9.54949951171875,-9.104464530944824,6.825156211853027
0,1635461,5.403536796569824,-6.9998884201049805,26.772476196289062,1.8126130104064941
0,1635461,-13.81844711303711,7.4037346839904785,6.34459924697876,-27.212018966674805
0,1635461,-6.759454727172852,21.22492218017578,-17.14023208618164,39.12796401977539
0,1635461,11.044483184814453,5.768232345581055,-16.7968807220459,0.43974587321281433
0,1635461,-13.979524612426758,-36.778324127197266,-14.621328353881836,-49.96562957763672
0,1635461,-12.377999305725098,-14.638272285461426,30.21609878540039,20.1046142578125
0,1635462,26.1690731048584,30.108915328979492,35.9021110534668,-7.162596225738525
0,1635462,7.1591477394104,12.349658012390137,-18.628299713134766,-34.76657485961914
0,1635462,-18.640100479125977,-9.662622451782227,-29.43581199645996,41.784725189208984
0,1635462,-19.073482513427734,-1.593280553817749,-2.9721808433532715,12.728095054626465
0,1635462,2.575921058654785,-27.740747451782227,3.005309820175171,-35.4056396484375
0,1635462,2.3025777339935303,-6.294458389282227,10.452165603637695,16.324060440063477
0,1635463,-0.6308944225311279,31.664873123168945,-3.4673538208007812,29.75187873840332
0,1635463,17.79754638671875,2.1357715129852295,0.28856560587882996,-13.528578758239746
0,1635463,12.00829792022705,-22.798856735229492,20.420961380004883,-33.313987731933594
0,1635463,-8.45217514038086,-7.715887069702148,-20.596233367919922,1.7202731370925903
0,1635463,-6.710839748382568,22.69402503967285,-4.463930130004883,16.19790267944336
0,1635464,6.432239055633545,4.389056205749512,31.155595779418945,-5.476056098937988
0,1635464,-0.07060802727937698,-3.554027557373047,-19.345069885253906,-8.903289794921875
0,1635464,7.295322895050049,19.195175170898438,-24.123035430908203,-0.9733186960220337
0,1635464,-0.8599029779434204,-17.667144775390625,34.1981315612793,18.975187301635742
0,1635464,-10.12602424621582,-23.15011215209961,17.982847213745117,14.179908752441406
0,1635464,15.086233139038086,32.627925872802734,-23.610631942749023,-8.755406379699707
0,1635465,0.5191987156867981,3.6966607570648193,-0.5818677544593811,-5.94087028503418
0,1635465,-20.542787551879883,-11.323460578918457,10.573071479797363,14.909964561462402
0,1635465,3.567805767059326,4.967822551727295,-13.504925727844238,7.1566057205200195
0,1635465,-2.8871874809265137,-9.159679412841797,-14.007040023803711,-17.696651458740234
0,1635465,9.389684677124023,17.836259841918945,13.854867935180664,-6.462679386138916
0,1635465,5.8329267501831055,-2.1580631732940674,27.925386428833008,16.954038619995117
0,1635466,-14.140413284301758,-16.007347106933594,-15.323762893676758,30.159231185913086
0,1635466,16.490612030029297,30.85470199584961,-26.4169921875,-9.55146312713623
0,1635466,-1.9877294301986694,5.401732444763184,8.837641716003418,-35.75648880004883
0,1635466,-10.934520721435547,-29.713016510009766,1.5227094888687134,8.298246383666992
0,1635466,-10.814738273620605,-5.760314464569092,1.1357206106185913,18.168333053588867
0,1635466,-7.229841709136963,10.996842384338379,8.362177848815918,-10.576580047607422
0,1635468,23.577213287353516,-21.056251525878906,-7.731302738189697,-0.6866699457168579
0,1635468,8.852875709533691,-15.971153259277344,-4.882379055023193,36.18967819213867
0,1635468,-3.5589983463287354,37.329105377197266,-6.348851680755615,3.1680843830108643
0,1635468,-9.301651000976562,-0.726834774017334,-8.757229804992676,-35.119041442871094
0,1635468,-14.966736793518066,-29.262418746948242,17.92300033569336,-15.029925346374512
0,1635469,11.861966133117676,1.4672884941101074,-11.658186912536621,4.106085300445557
0,1635469,11.024358749389648,7.004138469696045,-32.69829177856445,8.690755844116211
0,1635470,-9.401484489440918,8.924063682556152,29.461576461791992,-0.07067614048719406
0,1635471,0.30609068274497986,3.4503822326660156,18.66472816467285,-21.231794357299805
0,1635473,6.6871771812438965,-11.78847599029541,-26.892141342163086,-12.604317665100098
0,1635475,-17.735057830810547,2.0809755325317383,26.85875701904297,26.506080627441406
0,1635477,-4.328537940979004,15.284111022949219,32.163604736328125,-9.533493041992188
0,1635479,14.002239227294922,-3.6895785331726074,-15.363333702087402,-4.3146257400512695
0,1635481,2.026099443435669,5.407956123352051,-7.594029903411865,11.965032577514648
0,1635483,5.629233360290527,5.927210807800293,0.517099916934967,-34.503883361816406
0,1635485,-7.218320369720459,9.754830360412598,13.581028938293457,18.79800796508789
0,1635487,4.482560634613037,13.413979530334473,1.4560285806655884,26.106107711791992
0,1635489,-2.083580493927002,-26.732742309570312,-30.00452423095703,1.0163829326629639
0,1635492,-1.0159496068954468,-18.744224548339844,-37.9139404296875,0.12323953956365585
0,1635493,17.93015480041504,12.395336151123047,-2.805382013320923,-9.875186920166016
0,1635494,-16.21002197265625,-4.878377914428711,38.994056701660156,-25.305339813232422
0,1635497,-4.588047981262207,-7.8459792137146,28.102802276611328,-13.528943061828613
0,1635498,5.298214435577393,-2.124422788619995,7.812126159667969,70.23515319824219
0,1635501,-9.60798454284668,-2.597177267074585,-35.757381439208984,-9.56861400604248
0,1635502,-2.234328269958496,-5.885629177093506,-28.068275451660156,-77.78093719482422
0,1635505,4.0667948722839355,-7.872121334075928,18.709434509277344,45.24850845336914
0,1635506,25.166288375854492,26.065595626831055,21.727046966552734,49.22306823730469
0,1635509,11.6856050491333,17.795698165893555,15.60324764251709,-45.991668701171875
0,1635510,-32.14651870727539,-9.059701919555664,-13.115341186523438,-23.976276397705078
0,1635513,-1.8323222398757935,-1.0719947814941406,-0.24371470510959625,27.81117820739746
0,1635514,13.280902862548828,15.157015800476074,15.903196334838867,23.18379020690918
0,1635517,-23.03502655029297,-5.682103157043457,-20.79149627685547,-10.337327003479004
0,1635518,-1.531920075416565,-19.211633682250977,-22.534595489501953,-21.63611602783203
1,1637073,6.3357930183410645,12.686565399169922,5.434889316558838,-10.949177742004395
1,1637074,-3.731454849243164,10.237093925476074,16.756744384765625,12.625439643859863
1,1637077,-0.011738616041839123,-52.62696075439453,-1.3738501071929932,20.52400016784668
1,1637078,6.718843936920166,-8.713987350463867,-8.929051399230957,-14.76247501373291
1,1637083,12.876617431640625,62.27273941040039,0.431102454662323,-1.5050957202911377
1,1637083,-13.550129890441895,-16.7501163482666,-10.981356620788574,20.788728713989258
1,1637085,7.989420413970947,-5.198319911956787,8.652549743652344,-17.460012435913086
1,1637087,13.394588470458984,17.719032287597656,16.712785720825195,-5.722459316253662
1,1637089,-20.510812759399414,-26.058382034301758,-9.848702430725098,22.21143341064453
1,1637090,15.035165786743164,13.008749961853027,-10.684287071228027,-34.693721771240234
1,1637093,-3.3625595569610596,25.068336486816406,8.386324882507324,9.645608901977539
1,1637094,-20.02467155456543,-21.21554946899414,15.375481605529785,45.10422897338867
1,1637097,11.860579490661621,-23.11921501159668,-7.708311557769775,-35.642765045166016
1,1637098,10.999305725097656,22.70979118347168,4.606006145477295,-15.944931030273438
1,1637101,12.450187683105469,12.48751449584961,4.816292762756348,10.248291015625
1,1637102,-13.724252700805664,-24.525474548339844,-14.45694351196289,-1.1385270357131958
1,1637105,-4.373929023742676,1.011551856994629,5.931461334228516,23.46820640563965
1,1637123,6.005621433258057,6.897050857543945,2.5438644886016846,4.1682939529418945
1,1637123,-24.142169952392578,-11.218582153320312,-7.357746601104736,-34.0719108581543
1,1637123,7.764240264892578,-1.073192834854126,-6.274451732635498,-15.174372673034668
1,1637123,22.677570343017578,5.493242263793945,-22.242998123168945,12.081899642944336
1,1637123,-26.26528549194336,-5.208328723907471,-5.415894508361816,8.08858585357666
1,1637124,-28.10626983642578,1.5313341617584229,27.174560546875,-4.081472873687744
1,1637124,24.70229721069336,24.824228286743164,23.870351791381836,13.428756713867188
1,1637124,20.505970001220703,2.3811867237091064,3.507906436920166,7.308978080749512
1,1637124,-26.222923278808594,-17.882116317749023,-10.061914443969727,-21.97888946533203
1,1637125,6.681136608123779,-18.765552520751953,-21.06387710571289,6.348503112792969
1,1637127,34.498931884765625,9.587289810180664,-4.596482276916504,10.992534637451172
1,1637129,-7.572812557220459,31.632715225219727,10.125570297241211,23.000425338745117
1,1637131,-9.021882057189941,-8.22808837890625,2.738713264465332,-8.365391731262207
1,1637133,8.20704460144043,-17.253679275512695,12.095809936523438,-72.0718765258789
1,1637135,-16.551088333129883,3.8147380352020264,-12.929308891296387,19.780029296875
1,1637137,-10.888345718383789,-0.6072350144386292,-5.047144412994385,81.41442108154297
1,1637139,8.477910041809082,-19.89875602722168,6.2315802574157715,5.446412086486816
1,1637142,4.179116725921631,7.817091941833496,-18.673219680786133,-49.13669204711914
1,1637143,0.7464271783828735,12.033584594726562,14.000788688659668,-18.239063262939453
1,1637144,1.3317244052886963,-31.409080505371094,19.393171310424805,5.471325874328613
1,1637147,17.381471633911133,12.128358840942383,-13.558685302734375,5.629930019378662
1,1637177,-8.077605247497559,57.42241668701172,3.116584062576294,22.118986129760742
1,1637177,-15.623844146728516,-7.979261875152588,13.630083084106445,-15.986075401306152
1,1637177,2.0884878635406494,-47.90038299560547,-11.387325286865234,-24.293201446533203
1,1637177,2.5475683212280273,7.878438472747803,2.0193827152252197,25.020788192749023
1,1637177,12.664148330688477,13.977215766906738,9.927736282348633,-9.873647689819336
1,1637177,-1.9766901731491089,-6.394239902496338,-11.042534828186035,-32.48801040649414
1,1637178,-0.15869832038879395,13.582361221313477,-20.6160945892334,26.77475357055664
1,1637178,-12.800454139709473,-9.676507949829102,-7.892020225524902,28.304750442504883
1,1637178,-12.761775970458984,-0.06810126453638077,17.09149169921875,-15.792975425720215
1,1637178,7.21848201751709,-1.9099664688110352,0.7110263109207153,-13.8425931930542
1,1637178,-9.019661903381348,-19.30730628967285,-9.651457786560059,10.17003345489502
1,1637179,12.365161895751953,22.813295364379883,8.306302070617676,24.789161682128906
1,1637179,5.668701171875,-1.616020917892456,25.665281295776367,1.3975859880447388
1,1637179,-7.63277530670166,-13.09257984161377,6.932559490203857,-17.763626098632812
1,1637179,18.057397842407227,11.886650085449219,-17.942501068115234,7.128988265991211
1,1637180,-7.695469379425049,1.1974396705627441,-12.810632705688477,6.959421157836914
1,1637180,-15.246162414550781,-16.06490707397461,-16.021394729614258,-5.467776298522949
1,1637183,9.178600311279297,6.10425329208374,12.553123474121094,-18.316123962402344
1,1637185,-9.938070297241211,30.193161010742188,16.644248962402344,-22.970806121826172
1,1637187,4.29417085647583,11.09274959564209,-6.3808417320251465,12.757763862609863
1,1637189,22.596271514892578,-10.680548667907715,-1.63443922996521,18.652345657348633
1,1637191,-0.38813653588294983,-31.3648624420166,-15.64787769317627,-16.37156867980957
1,1637193,2.4296462535858154,-11.036355972290039,1.9053720235824585,6.67543888092041
1,1637195,-3.110123634338379,29.665836334228516,34.638851165771484,16.631534576416016
1,1637197,-13.848112106323242,-0.14776498079299927,-6.822386264801025,-27.726558685302734
1,1637199,-0.10661054402589798,-36.304107666015625,-31.649747848510742,-1.4416083097457886
1,1637201,5.900529861450195,11.449701309204102,2.0551676750183105,36.78630065917969
1,1637203,-11.151568412780762,25.6807918548584,24.466455459594727,-6.218186378479004
1,1637205,-4.648318290710449,-6.561654567718506,14.014418601989746,-38.644535064697266
1,1637249,4.113995552062988,-11.162332534790039,-25.599512100219727,9.992292404174805
1,1637249,4.902261734008789,-4.082239151000977,-15.255699157714844,43.863929748535156
1,1637249,8.433314323425293,9.548547744750977,22.164813995361328,6.112734794616699
1,1637249,-11.162022590637207,2.2408905029296875,1.7432267665863037,-27.100421905517578
1,1637249,-2.353527784347534,-0.5504803657531738,-17.098812103271484,-22.325777053833008
1,1637249,8.337512016296387,7.143661975860596,-1.3635233640670776,4.133569240570068
1,1637250,-0.5697747468948364,-3.099397659301758,9.574761390686035,-6.937873840332031
1,1637250,11.646873474121094,-17.821701049804688,-0.24554041028022766,-4.709779262542725
1,1637250,-6.209849834442139,-3.2128853797912598,4.381036281585693,35.443321228027344
1,1637250,-10.668793678283691,24.385082244873047,5.956205368041992,-7.503049850463867
1,1637250,7.812254428863525,-7.847968578338623,-9.684109687805176,-24.69862174987793
1,1637251,-13.559887886047363,-19.277111053466797,0.8382712006568909,20.953081130981445
1,1637251,0.46020975708961487,26.881322860717773,-6.840323448181152,-2.499345302581787
1,1637251,15.051936149597168,6.70563268661499,-5.236346244812012,-18.263080596923828
1,1637251,-2.017031192779541,-15.699676513671875,21.477787017822266,11.054726600646973
1,1637251,7.714635848999023,8.729235649108887,-3.082629919052124,1.7817336320877075
1,1637251,-0.9937732219696045,-5.689503192901611,-12.20591926574707,-4.673275470733643
1,1637252,-2.387850284576416,-4.83669376373291,2.554211139678955,24.331079483032227
1,1637252,-3.228790283203125,6.7470316886901855,8.706673622131348,8.621382713317871
1,1637252,-9.77758502960205,-13.726478576660156,7.766938209533691,-27.86050033569336
1,1637252,15.493719100952148,-5.045437812805176,-5.334475517272949,10.210906982421875
1,1637252,-7.781098365783691,7.560178279876709,-10.647046089172363,16.56597328186035
1,1637254,-15.00736141204834,2.5026395320892334,-2.524644613265991,-14.8233642578125
1,1637254,15.56794548034668,13.889449119567871,4.141956806182861,-10.323537826538086
1,1637255,6.737826824188232,16.75269889831543,-7.100110054016113,-7.044045925140381
1,1637256,-34.34321212768555,3.895089626312256,10.749692916870117,9.32409381866455
1,1637259,-3.1139919757843018,-15.876543045043945,11.002266883850098,9.315494537353516
1,1637260,40.512447357177734,-25.595815658569336,-18.25457763671875,5.436424255371094
1,1637263,-9.228323936462402,0.8249088525772095,-5.763359069824219,-6.789065837860107
1,1637264,-7.965027332305908,9.419530868530273,15.848997116088867,-6.229019641876221
1,1637267,10.108135223388672,-18.307971954345703,-0.31703120470046997,1.5744178295135498
1,1637268,-1.988014817237854,12.262784957885742,-12.481904029846191,5.568257808685303
1,1637271,3.7204294204711914,22.262073516845703,-7.0572309494018555,-1.6920371055603027
1,1637272,9.355141639709473,-8.004090309143066,9.484441757202148,-12.330102920532227
1,1637275,-2.0424036979675293,8.346364974975586,19.97986602783203,15.6350679397583
1,1637276,-25.18399429321289,-7.024405479431152,-10.446074485778809,1.5794322490692139
1,1637279,-2.3888158798217773,-15.875189781188965,3.003035545349121,-17.930097579956055
1,1637280,20.539939880371094,10.54483699798584,11.956892013549805,6.502389907836914
1,1637337,-1.0288777351379395,-6.88081169128418,-20.035385131835938,-10.183557510375977
1,1637337,-9.191152572631836,-1.998584270477295,-0.9652488827705383,-18.68512725830078
1,1637338,-7.516264915466309,24.800601959228516,14.210360527038574,18.246002197265625
1,1637338,7.6584367752075195,-22.152359008789062,-16.915910720825195,-2.8979861736297607
1,1637338,5.196288585662842,-22.155500411987305,-1.7456624507904053,12.336365699768066
1,1637338,0.4132824242115021,26.75520133972168,22.309720993041992,21.605205535888672
1,1637338,11.75684642791748,1.4264037609100342,-15.535015106201172,-23.585729598999023
1,1637338,-26.6368350982666,-13.203216552734375,2.729257106781006,13.656333923339844
1,1637339,-4.127525329589844,7.335376262664795,16.238880157470703,25.053340911865234
1,1637339,31.509963989257812,12.722440719604492,-12.065238952636719,-22.44505500793457
1,1637339,-4.849960803985596,2.1171317100524902,-20.621816635131836,-16.83185386657715
1,1637339,-11.550369262695312,-28.84807777404785,-2.736436128616333,3.6439051628112793
1,1637339,-6.176901817321777,-13.575395584106445,36.81785583496094,10.343085289001465
1,1637340,9.90662670135498,25.430770874023438,-13.315629005432129,17.514558792114258
1,1637340,5.7548370361328125,-1.1609230041503906,-30.49016571044922,-5.312501430511475
1,1637340,-17.071460723876953,-8.44189167022705,14.099594116210938,-29.749385833740234
1,1637340,-9.458622932434082,21.4322452545166,-8.229107856750488,-11.05244255065918
1,1637340,11.004961013793945,-3.311020612716675,10.108977317810059,15.802632331848145
1,1637340,22.178422927856445,-8.46288013458252,15.839056968688965,14.282788276672363
1,1637341,-10.497364044189453,12.509693145751953,-16.86259651184082,-5.895755290985107
1,1637341,-19.45747947692871,9.550640106201172,-0.2133694738149643,-12.932381629943848
1,1637341,11.159675598144531,4.044373512268066,0.6573312878608704,4.179925918579102
1,1637341,6.824201583862305,-1.2249044179916382,11.317916870117188,8.747069358825684
1,1637341,-9.97929859161377,-4.038632869720459,16.7387752532959,-5.215470790863037
1,1637341,-3.643860101699829,-8.993122100830078,-15.31484317779541,-15.41468620300293
1,1637342,10.437681198120117,-8.619095802307129,-16.69761085510254,8.05322551727295
1,1637342,-5.774360179901123,-13.60274887084961,-3.402235746383667,30.278121948242188
1,1637342,-1.7664254903793335,17.40688705444336,12.157514572143555,6.626833438873291
1,1637343,1.5275330543518066,14.798524856567383,0.4226526618003845,-19.458030700683594
1,1637343,-14.890236854553223,-11.152728080749512,-27.359081268310547,-19.853395462036133
1,1637344,16.03365707397461,8.083064079284668,7.380931377410889,5.35282039642334
1,1637345,8.111250877380371,-13.818724632263184,15.168074607849121,21.65964698791504
1,1637346,-11.055912971496582,-12.492234230041504,-6.045267581939697,-12.47899341583252
1,1637349,-2.75234317779541,7.399853229522705,34.831275939941406,-15.309709548950195
1,1637350,1.8182048797607422,14.367244720458984,32.01247787475586,21.204633712768555
1,1637353,23.01079559326172,32.069114685058594,-22.27720832824707,-21.880495071411133
1,1637354,1.3993943929672241,-17.148408889770508,-41.02669906616211,-64.73674011230469
1,1637357,-3.5772252082824707,-27.48480796813965,0.40123122930526733,-13.381535530090332
1,1637358,2.5522139072418213,3.358154773712158,22.06852912902832,53.88957595825195
1,1637361,-11.065244674682617,-31.703636169433594,-8.37321662902832,92.1784439086914
1,1637362,11.16650390625,-15.731911659240723,-11.191910743713379,24.48877716064453
1,1637365,-19.386571884155273,2.4830715656280518,-6.293735504150391,-88.45780944824219
1,1637366,-8.149657249450684,21.98160743713379,18.15091323852539,-31.469005584716797
1,1637369,33.60824966430664,54.98888397216797,21.522960662841797,48.57799530029297
1,1637370,-23.570913314819336,-36.89141082763672,-20.48931121826172,-12.723299980163574
1,1637373,-9.723688125610352,-18.51677894592285,-5.999805450439453,5.681136608123779
1,1637374,16.56043243408203,58.11943817138672,7.110062599182129,45.59425354003906
1,1637444,-14.418121337890625,-21.457706451416016,-25.195913314819336,-27.059669494628906
1,1637444,18.714126586914062,-18.27088165283203,8.982078552246094,-29.267370223999023
1,1637444,10.991130828857422,37.82347106933594,18.55986785888672,-3.7309415340423584
1,1637445,-22.739463806152344,13.383304595947266,-17.7954044342041,-11.52703857421875
1,1637445,10.239058494567871,-16.155210494995117,-1.102819800376892,15.566658973693848
1,1637445,4.843278884887695,-12.078805923461914,-2.0052945613861084,32.688411712646484
1,1637445,-14.837653160095215,-6.64312219619751,-7.337221622467041,-4.07502555847168
1,1637445,9.40034008026123,-14.978254318237305,7.743041038513184,-25.15213966369629
1,1637445,8.20779037475586,14.861967086791992,8.656973838806152,1.0937262773513794
1,1637446,-7.789311408996582,13.402544975280762,0.8459694385528564,0.9036715626716614
1,1637446,-17.35788917541504,-42.54891586303711,1.6289246082305908,6.609981060028076
1,1637446,8.248766899108887,4.266156196594238,18.396303176879883,-5.60427188873291
1,1637446,17.973920822143555,43.584442138671875,2.764260768890381,-25.378618240356445
1,1637446,-11.098284721374512,1.0407525300979614,-7.998884677886963,-1.7667173147201538
1,1637447,10.195372581481934,-14.747566223144531,12.687735557556152,-0.8581946492195129
1,1637447,14.660604476928711,-6.3747758865356445,-6.2132391929626465,17.20335578918457
1,1637447,-19.67725372314453,3.1225779056549072,1.4514904022216797,7.7011566162109375
1,1637447,-6.008391857147217,-19.660531997680664,9.968297958374023,-8.217601776123047
1,1637447,13.947897911071777,-10.435601234436035,-36.18854904174805,3.723008871078491
1,1637447,-13.309053421020508,3.805363178253174,-23.897884368896484,-6.876119136810303
1,1637448,-25.313148498535156,-4.567022323608398,20.849720001220703,13.550792694091797
1,1637448,-6.415544509887695,3.8716635704040527,22.231643676757812,0.8798781037330627
1,1637448,22.13572883605957,6.02370023727417,0.5574758648872375,-27.894277572631836
1,1637448,10.922286987304688,3.3097012042999268,-22.31549644470215,5.212811470031738
1,1637448,-29.74690055847168,-7.86107063293457,-10.617615699768066,14.115942001342773
1,1637448,-11.405677795410156,-3.1087422370910645,4.318871021270752,-8.018331527709961
1,1637449,18.534265518188477,20.919912338256836,-6.835235118865967,9.169384956359863
1,1637449,1.125522255897522,15.947768211364746,6.817190647125244,3.179913282394409
1,1637449,10.340858459472656,-21.79806900024414,7.939985752105713,-10.763084411621094
1,1637449,-0.6168042421340942,-24.506153106689453,4.216165065765381,15.526172637939453
1,1637449,-15.933215141296387,15.785019874572754,16.17226791381836,2.9172394275665283
1,1637449,33.43509292602539,17.225534439086914,5.532912254333496,-4.282633304595947
1,1637450,-2.1766693592071533,-20.246963500976562,-3.5939056873321533,12.45608901977539
1,1637450,-28.34550666809082,-12.897966384887695,-5.6221089363098145,0.48397839069366455
1,1637451,24.173120498657227,21.540925979614258,4.630703449249268,45.549373626708984
1,1637451,15.88370132446289,17.086994171142578,1.9293313026428223,44.60800552368164
1,1637451,-24.851646423339844,-18.005355834960938,-13.69897174835205,-45.78171920776367
1,1637451,-8.83372688293457,-21.255346298217773,-0.36352255940437317,-36.91227340698242
1,1637453,-7.570217609405518,17.076093673706055,-3.4476375579833984,4.066117286682129
1,1637454,-17.058212280273438,34.49956130981445,-36.53177261352539,-2.929030418395996
1,1637457,22.885217666625977,-33.0001220703125,-44.582279205322266,-9.44346809387207
1,1637458,-3.722722053527832,-69.00389862060547,-0.43226897716522217,-7.763391971588135
1,1637461,13.621587753295898,92.53882598876953,105.22008514404297,15.248221397399902
1,1637462,35.134033203125,120.9476547241211,62.2528076171875,1.0779362916946411
1,1637465,-49.57250213623047,-68.00249481201172,-74.08135223388672,-122.22310638427734
1,1637466,-2.6948485374450684,-78.04203796386719,-27.731597900390625,-45.66903305053711
1,1637469,61.321067810058594,-68.46487426757812,-2.657421112060547,206.54635620117188
1,1637470,3.3217544555664062,-48.166927337646484,-7.231966972351074,112.29582977294922
1,1637473,-4.200301647186279,91.7674560546875,42.28242874145508,-126.2702407836914
1,1637474,-7.47678804397583,31.594158172607422,12.290478706359863,-53.20014190673828
1,1637477,-36.58988952636719,-14.597517967224121,-4.344230651855469,70.7026596069336
1,1637478,-0.4164961576461792,45.295684814453125,-8.789207458496094,-50.31180953979492
1,1637481,-12.601924896240234,-53.179847717285156,-61.985843658447266,-103.5709457397461
1,1637482,-4.116218566894531,-13.471409797668457,-6.063344955444336,41.377288818359375
1,1637563,57.17572784423828,114.97723388671875,72.7638168334961,33.575965881347656
1,1637563,-5.977938175201416,5.261754989624023,11.369842529296875,-76.8511734008789
1,1637563,-34.1835823059082,-61.677398681640625,-30.971628189086914,13.850637435913086
1,1637563,1.8351649045944214,-5.129980564117432,-9.316970825195312,57.90684509277344
1,1637564,7.54237699508667,5.064887523651123,28.58487319946289,-0.22298581898212433
1,1637564,15.017608642578125,-6.439429759979248,17.150997161865234,18.524457931518555
1,1637564,1.6135179996490479,-37.96977615356445,-29.266897201538086,27.01114273071289
1,1637564,-21.464862823486328,-34.248329162597656,-14.096075057983398,40.2501335144043
1,1637564,-12.527691841125488,4.572461128234863,-10.416979789733887,31.558589935302734
1,1637564,4.287008762359619,-3.571233034133911,-10.036189079284668,6.9744391441345215
1,1637565,-10.697186470031738,-9.02393627166748,-1.628556728363037,-6.355884075164795
1,1637565,-8.091780662536621,19.26658058166504,-1.2949004173278809,-34.84572982788086
1,1637565,-2.542003870010376,-0.9089513421058655,1.1756196022033691,-28.29434585571289
1,1637565,-6.003093719482422,-25.704164505004883,0.8206367492675781,-30.683109283447266
1,1637565,0.5699418783187866,40.09013366699219,25.36334800720215,-9.299762725830078
1,1637566,21.340730667114258,64.13710021972656,27.436113357543945,21.764209747314453
1,1637566,41.22068405151367,-4.232865333557129,-2.9458560943603516,-20.732694625854492
1,1637566,-2.246212959289551,-31.912689208984375,-15.278762817382812,-3.497541904449463
1,1637566,-20.601533889770508,5.912696361541748,3.9963207244873047,35.88587188720703
1,1637566,23.25324249267578,35.252376556396484,19.031097412109375,-6.941927433013916
1,1637566,23.14177703857422,18.722505569458008,-10.07550048828125,-33.32405471801758
1,1637567,-14.700671195983887,-9.69137191772461,-14.036417007446289,-5.928818702697754
1,1637567,-24.325551986694336,-10.014647483825684,9.42672061920166,9.590566635131836
1,1637567,-10.45945930480957,8.453925132751465,4.8846282958984375,4.309195518493652
1,1637567,4.72555685043335,16.274253845214844,-1.6827679872512817,-21.072402954101562
1,1637567,-4.993926048278809,-6.669124126434326,-11.091645240783691,-23.901395797729492
1,1637567,-20.40129852294922,-29.984086990356445,-8.864218711853027,4.188308238983154
1,1637568,-0.43726563453674316,-7.582470893859863,10.35332202911377,10.3164701461792
1,1637568,2.712955951690674,-2.6209375858306885,2.119669198989868,20.453393936157227
1,1637568,2.8097739219665527,-22.040681838989258,-0.558944821357727,-6.014132022857666
1,1637568,-0.3067891299724579,-11.553107261657715,4.871902942657471,-14.817837715148926
1,1637568,-18.564525604248047,21.021827697753906,-14.390535354614258,26.4536190032959
1,1637569,-4.207441329956055,9.41994571685791,-11.451370239257812,-0.42508336901664734
1,1637569,23.527202606201172,-10.56031608581543,5.453792095184326,-3.9795010089874268
1,1637569,21.77138900756836,16.554712295532227,8.91515827178955,16.673484802246094
1,1637569,0.6103660464286804,-0.16520367562770844,-4.019512176513672,-16.840023040771484
1,1637569,-9.55735969543457,-32.7311897277832,-1.3076361417770386,7.839831352233887
1,1637569,-13.868992805480957,-4.2409467697143555,10.308176040649414,29.610750198364258
1,1637570,5.258463382720947,31.02178192138672,7.04911470413208,-15.342487335205078
1,1637570,30.312761306762695,8.034317970275879,1.49056077003479,-13.441941261291504
1,1637571,5.302987575531006,-17.614334106445312,-19.894357681274414,-16.511459350585938
1,1637571,-25.642498016357422,-20.115983963012695,-25.4840030670166,-25.95769691467285
1,1637571,-3.9899051189422607,-10.043725967407227,7.229886531829834,20.060020446777344
1,1637571,5.284766674041748,13.685908317565918,9.834959030151367,1.7242963314056396
1,1637573,-19.01435089111328,-15.391854286193848,-33.49945831298828,33.92871856689453
1,1637575,0.09963259845972061,49.880226135253906,2.6481971740722656,35.352821350097656
1,1637577,41.90164566040039,72.31726837158203,44.75284957885742,-49.11988067626953
1,1637580,18.59944725036621,-113.79759979248047,10.36533260345459,97.3125991821289
1,1637581,5.766549110412598,-67.60285186767578,-2.4690914154052734,105.02812957763672
1,1637582,16.430904388427734,111.07041931152344,-5.11105489730835,-111.42440795898438
1,1637585,-65.60974884033203,32.78163146972656,-16.359025955200195,-127.73361206054688
1,1637586,-50.69334411621094,-49.64718246459961,-3.9205355644226074,-26.2507266998291
1,1637589,28.60556411743164,42.872467041015625,8.291666984558105,13.950213432312012
1,1637590,-3.0557310581207275,32.898048400878906,14.261444091796875,-6.519203186035156
1,1637593,-12.663028717041016,13.116231918334961,32.43551254272461,6.320741653442383
1,1637594,7.4514336585998535,12.904815673828125,-10.088953971862793,-26.2914981842041
1,1637597,72.65132904052734,-149.6886444091797,-45.085975646972656,78.23490905761719
1,1637598,84.59014892578125,-168.27432250976562,-1.0515832901000977,191.9151611328125
1,1637601,-42.22014236450195,52.34437561035156,30.14255714416504,36.5288200378418
1,1637602,-102.96995544433594,111.53207397460938,-10.119060516357422,-172.6003875732422
1,1637605,-78.68302917480469,75.70793151855469,-52.63763427734375,-287.7416687011719
1,1637606,8.448822975158691,78.00055694580078,18.797605514526367,29.078731536865234
1,1637698,111.9201431274414,-64.43335723876953,73.78911590576172,321.54656982421875
1,1637699,32.372501373291016,-32.77019500732422,19.454376220703125,55.06230163574219
1,1637699,-48.57371520996094,35.26547622680664,-35.24723434448242,-174.81871032714844
1,1637699,-15.851486206054688,-4.140565395355225,-26.52602767944336,-109.77957153320312
1,1637699,-28.415864944458008,16.622661590576172,0.6347097158432007,-29.220102310180664
1,1637699,-10.937315940856934,21.637451171875,-23.36217498779297,-10.060676574707031
1,1637699,18.344518661499023,-0.5156266689300537,-2.170668363571167,16.119457244873047
1,1637700,9.686829566955566,-54.863162994384766,17.502132415771484,58.85573196411133
1,1637700,5.137234210968018,-45.122352600097656,-19.506877899169922,54.57795333862305
1,1637700,9.155960083007812,-15.579737663269043,8.197942733764648,56.310298919677734
1,1637700,21.428260803222656,-20.334712982177734,4.03617000579834,55.13914489746094
1,1637700,-7.450952529907227,-27.671504974365234,-14.15774154663086,-21.282522201538086
1,1637700,-5.374048709869385,12.881170272827148,10.815425872802734,-22.97088050842285
1,1637701,-4.515739440917969,37.854583740234375,7.411559104919434,-2.583603858947754
1,1637701,-26.414859771728516,5.646220684051514,-5.678676128387451,-35.7703857421875
1,1637701,15.621590614318848,27.422489166259766,16.734800338745117,0.6370077729225159
1,1637701,5.171663284301758,35.79091262817383,42.53889083862305,43.751129150390625
1,1637701,1.1694599390029907,-21.052553176879883,20.492170333862305,35.95585250854492
1,1637701,34.50887680053711,-24.702083587646484,-3.8691773414611816,14.317085266113281
1,1637702,12.617880821228027,-0.9435691237449646,-21.39435386657715,4.755974292755127
1,1637702,14.522455215454102,-16.739879608154297,-15.807880401611328,-6.108218669891357
1,1637702,7.583404064178467,-7.764877796173096,-0.23223844170570374,-34.11897277832031
1,1637702,-22.420679092407227,7.422246932983398,-4.2314772605896,-28.631813049316406
1,1637702,-27.457046508789062,0.4443921446800232,3.0260369777679443,-11.220368385314941
1,1637702,-16.41299819946289,-2.486057996749878,0.4337676465511322,-4.336028575897217
1,1637703,1.7028127908706665,-24.96121597290039,-27.687374114990234,-14.773488998413086
1,1637703,-5.8219709396362305,-43.34565734863281,-17.579036712646484,-30.352848052978516
1,1637703,-8.143783569335938,-25.69625473022461,-1.068760871887207,15.935409545898438
1,1637703,-2.18385910987854,-4.3641157150268555,-8.224998474121094,45.194358825683594
1,1637703,-11.939621925354004,7.143093585968018,13.576343536376953,41.842079162597656
1,1637704,20.696796417236328,23.597637176513672,25.24708366394043,45.02764129638672
1,1637704,31.695987701416016,44.013370513916016,-0.32888463139533997,49.823360443115234
1,1637704,-5.772409915924072,59.4810905456543,-9.656490325927734,29.11319923400879
1,1637704,6.675248622894287,59.04937744140625,11.207444190979004,-1.1562879085540771
1,1637704,5.9672064781188965,38.83307647705078,13.450933456420898,7.468906402587891
1,1637704,1.8891295194625854,27.408531188964844,2.4720520973205566,-48.115684509277344
1,1637705,10.31511116027832,24.90238380432129,-10.00767707824707,-104.87596893310547
1,1637705,-10.721930503845215,13.465535163879395,-24.617563247680664,-63.040897369384766
1,1637705,-21.94954490661621,-28.336301803588867,-13.502150535583496,-63.52180862426758
1,1637705,-14.301258087158203,-49.172096252441406,-1.7458943128585815,-100.98542785644531
1,1637705,5.500534534454346,-33.25876235961914,-32.50043487548828,-47.05680465698242
1,1637705,-14.328436851501465,-44.92247009277344,-32.02016830444336,4.099386692047119
1,1637706,-23.75962257385254,-17.849597930908203,26.54676055908203,9.138901710510254
1,1637706,-6.769443511962891,-3.0752065181732178,34.14130401611328,14.909758567810059
1,1637706,-9.667266845703125,-36.690040588378906,-10.896499633789062,30.201404571533203
1,1637706,9.681297302246094,11.02194595336914,-20.45940399169922,29.175222396850586
1,1637707,1.3353112936019897,44.40934753417969,-24.31435203552246,-11.01356029510498
1,1637708,14.352705955505371,-6.356283187866211,-6.547014236450195,34.6989631652832
1,1637708,40.64449691772461,-8.213421821594238,71.2669906616211,90.6968994140625
1,1637708,4.5793137550354,27.62871551513672,41.34383773803711,28.18805503845215
1,1637709,-33.088470458984375,23.30695343017578,-19.533536911010742,-40.21018981933594
1,1637711,-25.650043487548828,1.8329886198043823,15.135784149169922,-49.43992614746094
1,1637713,54.67985153198242,-6.418092250823975,67.60993957519531,25.330564498901367
1,1637715,33.326622009277344,18.04399871826172,50.857913970947266,34.0555305480957
1,1637717,-34.41224670410156,64.45785522460938,-46.901092529296875,-18.775278091430664
1,1637719,11.924455642700195,40.95957946777344,1.8299676179885864,49.48222351074219
1,1637721,-17.52423095703125,-159.13552856445312,-15.460739135742188,54.199520111083984
1,1637723,-31.682937622070312,-186.2953338623047,-91.84835815429688,122.38590240478516
1,1637725,78.59333801269531,126.6010971069336,57.529884338378906,139.419189453125
1,1637727,33.680965423583984,129.54208374023438,33.58906555175781,-181.50379943847656
1,1637729,-109.8341293334961,-153.25454711914062,-98.43045043945312,-192.1011962890625
1,1637731,-26.78688621520996,-38.8364372253418,-26.95379638671875,33.33381652832031
1,1637733,64.31106567382812,156.0284881591797,54.706085205078125,-64.11817932128906
1,1637735,-10.581001281738281,-7.931087493896484,-9.678180694580078,-57.9011344909668
1,1637737,-43.085540771484375,-118.34627532958984,-85.00753784179688,146.65533447265625
1,1637739,-1.2094762325286865,33.52007293701172,13.733468055725098,68.84532165527344
1,1637741,47.14507293701172,207.5420684814453,81.72917175292969,-217.3226776123047
1,1637743,23.6785831451416,13.910853385925293,10.313673973083496,-47.42958450317383
1,1637746,-16.780364990234375,-320.19744873046875,-10.7960844039917,350.0305480957031
1,1637849,-2.0196566581726074,55.6527099609375,28.544689178466797,-64.41070556640625
1,1637849,14.866220474243164,334.9655456542969,13.594353675842285,-325.4322204589844
1,1637849,-6.448242664337158,-114.92999267578125,-53.11931228637695,153.62838745117188
1,1637849,-16.61818504333496,-158.68531799316406,-27.979827880859375,134.41604614257812
1,1637850,1.370509386062622,27.74876594543457,28.22368621826172,-56.35386657714844
1,1637850,-8.450604438781738,-26.72941780090332,4.622734069824219,9.005474090576172
1,1637850,-13.581966400146484,-17.91248893737793,-13.167312622070312,-8.692620277404785
1,1637850,-2.534559726715088,39.119140625,3.045037269592285,-29.069421768188477
1,1637850,2.751039505004883,37.71731185913086,1.2448431253433228,-9.912246704101562
1,1637850,8.441084861755371,-5.182472229003906,-1.4617483615875244,16.787147521972656
1,1637851,7.856879711151123,-8.192806243896484,14.515477180480957,43.151424407958984
1,1637851,4.254335403442383,-16.08777618408203,-5.117729187011719,30.10589027404785
1,1637851,10.67590618133545,-18.073314666748047,-33.461021423339844,-11.268741607666016
1,1637851,8.207273483276367,-0.6473445296287537,-2.274618148803711,8.178140640258789
1,1637851,-20.826932907104492,-14.68908405303955,23.498023986816406,4.292259693145752
1,1637851,-12.17789077758789,-1.534835934638977,-5.085776329040527,-34.532073974609375
1,1637852,17.37498664855957,18.713966369628906,5.428009986877441,-22.582536697387695
1,1637852,-0.38149845600128174,-5.15871524810791,27.220008850097656,-26.335405349731445
1,1637852,-6.861728668212891,17.161222457885742,0.9599268436431885,7.75494909286499
1,1637852,-12.619888305664062,24.900665283203125,8.588915824890137,65.92977142333984
1,1637852,-8.88825798034668,-10.15001392364502,19.655803680419922,33.8745231628418
1,1637853,24.7935791015625,-3.95192289352417,-15.241276741027832,14.05898380279541
1,1637853,28.420278549194336,9.371562004089355,-23.34940528869629,14.608278274536133
1,1637853,4.056323528289795,-6.8030290603637695,-3.266683340072632,-29.743837356567383
1,1637853,-26.321199417114258,-11.933650016784668,9.24627685546875,-44.819923400878906
1,1637853,-3.9967153072357178,-1.6049660444259644,-0.49830710887908936,-32.84738540649414
1,1637853,20.775243759155273,5.370555877685547,-6.651983261108398,-41.14731979370117
1,1637854,-17.5349178314209,-5.941412925720215,-1.6809570789337158,-34.18635940551758
1,1637854,-20.426895141601562,-12.556680679321289,-4.528125762939453,-26.934303283691406
1,1637854,11.853523254394531,8.377336502075195,-0.7031773328781128,-23.849090576171875
1,1637854,1.2062381505966187,-11.293157577514648,1.4684066772460938,8.348990440368652
1,1637854,-28.066913604736328,-33.949867248535156,-6.480534076690674,0.9368346333503723
1,1637854,-6.348964691162109,2.617185354232788,-14.860057830810547,-27.183353424072266
1,1637855,14.403488159179688,27.57868194580078,-4.152865886688232,12.375164031982422
1,1637855,0.9501254558563232,18.548877716064453,9.611634254455566,39.65105056762695
1,1637855,-2.712852716445923,23.61192512512207,30.41115379333496,16.352256774902344
1,1637855,2.6082611083984375,29.62335968017578,11.540040016174316,9.04488468170166
1,1637855,4.619795799255371,4.267250061035156,-7.691805362701416,30.899642944335938
1,1637855,-5.28906774520874,4.701671600341797,19.075206756591797,34.92466354370117
1,1637856,21.03736114501953,17.6761417388916,-3.4435460567474365,15.991890907287598
1,1637856,6.198875904083252,-31.602476119995117,-16.266613006591797,48.9537467956543
1,1637856,-12.261428833007812,-12.97749137878418,2.965772867202759,36.154563903808594
1,1637856,36.963706970214844,22.401456832885742,21.301870346069336,-11.960307121276855
1,1637856,-3.0359346866607666,-25.59585189819336,26.956642150878906,21.98432731628418
1,1637856,-39.45600891113281,-28.99300193786621,-12.233662605285645,6.675937652587891
1,1637857,15.228577613830566,-10.488553047180176,-27.400663375854492,-33.65705490112305
1,1637857,20.893173217773438,-21.749807357788086,-8.92074203491211,-0.39490267634391785
1,1637857,-6.532402515411377,4.501481533050537,-10.999015808105469,-3.945965051651001
1,1637857,-3.730351209640503,27.970996856689453,-12.772232055664062,-47.30316162109375
1,1637857,-34.964534759521484,-24.211101531982422,10.724224090576172,-14.47595500946045
1,1637857,-3.1053194999694824,-18.54581069946289,-8.58826732635498,39.8918342590332
1,1637858,32.69389343261719,15.357061386108398,-31.790987014770508,11.476716995239258
1,1637859,1.4942594766616821,30.267803192138672,13.488788604736328,47.099021911621094
1,1637859,14.994959831237793,37.67311096191406,35.46632385253906,61.493675231933594
1,1637859,-7.26341438293457,-14.280659675598145,-13.738131523132324,-94.68585968017578
1,1637859,-13.68674087524414,-25.01737403869629,-34.79033279418945,-93.07386779785156
1,1637860,5.240217685699463,-3.184387445449829,25.470149993896484,6.3661346435546875
1,1637861,-0.17957885563373566,5.60162878036499,2.6497581005096436,-60.026390075683594
1,1637862,-1.858189582824707,0.9698411822319031,-36.02120590209961,-83.41597747802734
1,1637865,-1.3405104875564575,33.68032455444336,42.00838088989258,-35.84257888793945
1,1637866,-13.656391143798828,37.792476654052734,32.04921340942383,-1.0756796598434448
1,1637869,-26.127893447875977,-39.900184631347656,-45.291412353515625,65.23405456542969
1,1637870,-11.66930866241455,-3.4729156494140625,-1.1037222146987915,59.569068908691406
1,1637873,17.341943740844727,42.586673736572266,32.78493881225586,-42.363243103027344
1,1637874,37.53831481933594,-45.73116683959961,-31.03677749633789,-69.27180480957031
1,1637877,31.28586196899414,-72.23025512695312,3.7561352252960205,101.98789978027344
1,1637878,-5.861979961395264,-7.158429145812988,56.9837646484375,158.5545654296875
1,1637881,-69.24632263183594,14.583189964294434,-55.15583038330078,42.19393539428711
1,1637882,-11.826496124267578,8.305463790893555,-41.60282516479492,55.62162399291992
1,1637885,91.98600769042969,43.571231842041016,60.287593841552734,-69.12995147705078
1,1637886,7.042649269104004,-22.812795639038086,-24.226484298706055,-102.88856506347656
1,1637889,-71.54312133789062,-42.829689025878906,9.407657623291016,10.812108993530273
1,1637890,1.8321497440338135,63.37287139892578,49.38753128051758,-96.60918426513672
1,1637893,27.225662231445312,54.41559982299805,-24.16384506225586,-6.585014343261719
1,1637894,-17.230493545532227,9.908698081970215,9.013182640075684,65.2634048461914
1,1637897,-28.081893920898438,-55.861961364746094,-5.871654510498047,-56.71173858642578
1,1638011,0.8641731142997742,-33.167457580566406,-24.961225509643555,15.590027809143066
1,1638011,24.354602813720703,31.365049362182617,9.469320297241211,56.71767044067383
1,1638011,7.627237319946289,-2.285203218460083,8.238221168518066,-18.218158721923828
1,1638012,7.7182769775390625,6.147090911865234,-13.747973442077637,-8.541338920593262
1,1638012,6.187704563140869,-4.5829033851623535,-4.62028169631958,6.568975448608398
1,1638012,-20.885778427124023,-47.5407600402832,1.07590651512146,16.833087921142578
1,1638012,-6.311310291290283,-16.058300018310547,-6.756031036376953,35.612449645996094
1,1638012,11.160709381103516,16.106082916259766,-5.115043640136719,10.904732704162598
1,1638013,-7.2032928466796875,26.162416458129883,-4.5671281814575195,-24.22948455810547
1,1638013,2.124516487121582,9.829314231872559,-9.138753890991211,-42.43246078491211
1,1638013,19.50568199157715,-4.809075355529785,8.874361991882324,-2.2019741535186768
1,1638013,-0.08081481605768204,24.922298431396484,47.91730880737305,30.585468292236328
1,1638013,-9.413044929504395,10.621622085571289,-6.174464702606201,-16.790956497192383
1,1638013,-5.805698871612549,-16.46794319152832,-38.323909759521484,-20.1343994140625
1,1638014,11.978521347045898,-13.307554244995117,6.171051025390625,22.931142807006836
1,1638014,27.61762809753418,6.235934257507324,19.12718391418457,7.628108501434326
1,1638014,2.2746591567993164,-7.092296123504639,-8.971768379211426,-0.6728114485740662
1,1638014,-19.29218864440918,-21.585813522338867,-27.73076057434082,10.586478233337402
1,1638014,-8.314953804016113,13.405040740966797,6.556453227996826,-3.660503625869751
1,1638014,-13.215062141418457,14.448515892028809,35.74458694458008,-12.202449798583984
1,1638015,1.686923623085022,4.541249752044678,8.522440910339355,-12.862581253051758
