Aktueller Finger,timestamp_ms,sensor_0,sensor_1,sensor_2,sensor_3
0,1803976,28.85214614868164,25.306909561157227,54.13731384277344,-30.49077796936035
0,1803976,-44.734256744384766,-23.83661460876465,-49.30683517456055,-5.693840503692627
0,1803978,-13.584220886230469,-51.33924865722656,-141.83131408691406,27.330961227416992
0,1803980,61.067344665527344,-14.849379539489746,129.64723205566406,11.45463752746582
0,1803982,1.9447423219680786,27.471160888671875,134.059814453125,-22.888233184814453
0,1803984,-39.02090072631836,25.047954559326172,-195.85296630859375,-14.256559371948242
0,1803986,-1.6226378679275513,-14.147799491882324,-76.68403625488281,40.116676330566406
0,1803988,29.047481536865234,-16.114971160888672,135.06661987304688,-19.29201316833496
0,1803990,11.766959190368652,20.911483764648438,27.216323852539062,-39.1258430480957
0,1803992,-9.396034240722656,16.381698608398438,15.543889999389648,57.878963470458984
0,1803994,-12.653360366821289,-22.600873947143555,-1.009206771850586,22.64635467529297
0,1803996,-25.022287368774414,-3.294410467147827,-106.74549102783203,-17.75421905517578
0,1803998,11.988548278808594,6.973987579345703,-38.908409118652344,-9.68425178527832
0,1804000,20.313560485839844,-13.868308067321777,132.2841033935547,-27.001636505126953
0,1804002,-16.007343292236328,0.11438506096601486,96.59673309326172,-18.178199768066406
0,1804004,-10.86898422241211,-5.189446926116943,-172.17918395996094,11.827925682067871
0,1804006,4.533296585083008,7.449770927429199,-91.29296112060547,30.003873825073242
0,1804008,21.97798728942871,19.086463928222656,129.1049346923828,20.470495223999023
0,1804010,-7.9026079177856445,-4.641278266906738,10.392289161682129,0.8147867918014526
0,1804012,-15.775604248046875,6.095762252807617,22.285274505615234,-36.43534469604492
0,1804014,14.207944869995117,-7.565687656402588,41.38611602783203,-12.36899471282959
0,1804016,-7.4383955001831055,-16.745126724243164,-139.22091674804688,12.155146598815918
0,1804018,-8.017210960388184,8.008179664611816,-61.52375793457031,-5.3164849281311035
0,1804020,7.137276649475098,8.732192993164062,177.6437530517578,7.229941368103027
0,1804022,9.21159553527832,21.245813369750977,102.9027099609375,12.577956199645996
0,1804024,7.817232608795166,10.77251148223877,-165.2556610107422,-10.934414863586426
0,1804026,-16.124210357666016,-30.598844528198242,-77.35030364990234,-10.457579612731934
0,1804028,2.752413749694824,0.7669022083282471,112.64441680908203,10.511712074279785
0,1804030,8.255392074584961,21.719242095947266,1.2624105215072632,-0.8544766902923584
0,1804032,-10.886453628540039,-33.414817810058594,2.9840686321258545,18.527463912963867
0,1804034,-0.6644819378852844,-26.430644989013672,32.789161682128906,33.94217300415039
0,1804036,-11.291608810424805,17.01253890991211,-94.17034912109375,-30.091665267944336
0,1804038,-1.9549169540405273,18.4110050201416,-44.12885284423828,-27.764450073242188
0,1804040,26.334556579589844,1.5813226699829102,113.0456771850586,0.7987744808197021
0,1804042,6.724461078643799,-8.039052963256836,67.47130584716797,-23.978443145751953
0,1804044,-24.13593864440918,-17.400211334228516,-142.4777374267578,38.317745208740234
0,1804046,0.28523796796798706,0.6078917384147644,-65.30420684814453,39.767913818359375
0,1804048,28.70947265625,28.210378646850586,118.98907470703125,-56.26543426513672
0,1804050,-17.695066452026367,1.6928765773773193,9.970727920532227,-2.068577527999878
0,1804052,7.79456090927124,-21.460554122924805,1.085903525352478,9.275317192077637
0,1804054,24.07551383972168,9.234609603881836,28.604143142700195,-34.66712951660156
0,1804056,-56.10323715209961,23.356151580810547,-88.54302215576172,7.246118545532227
0,1804058,4.966976642608643,-9.818977355957031,-53.792964935302734,23.433534622192383
0,1804060,45.99927520751953,-11.480326652526855,112.63953399658203,48.283748626708984
0,1804062,-10.34173583984375,21.819021224975586,95.41864013671875,2.258925437927246
0,1804064,-21.020509719848633,-21.941110610961914,-142.9183349609375,-46.40183639526367
0,1804066,-25.512569427490234,-24.975299835205078,-77.1695785522461,-18.058300018310547
0,1804068,14.356036186218262,23.67742156982422,100.68197631835938,3.4493134021759033
0,1804070,6.1515278816223145,-5.094421863555908,-9.16613483428955,4.383475303649902
0,1804072,-4.879483222961426,39.346553802490234,33.962032318115234,11.278782844543457
0,1804074,28.2143611907959,17.87006950378418,36.060306549072266,13.69657039642334
0,1804076,-40.79966735839844,-78.01677703857422,-116.36099243164062,-0.2001354992389679
0,1804078,-3.163132667541504,-18.911935806274414,-33.21871566772461,10.820087432861328
0,1804080,70.10102844238281,57.54220962524414,149.2458038330078,-13.56261920928955
0,1804082,-20.915468215942383,4.980591297149658,85.79680633544922,-29.239749908447266
0,1804084,-38.38099670410156,-51.157562255859375,-191.34231567382812,12.548117637634277
0,1804086,8.774702072143555,5.663055896759033,-92.77429962158203,15.407209396362305
0,1804341,15.64980411529541,27.695199966430664,123.92129516601562,-34.36149597167969
0,1804342,22.292587280273438,22.536834716796875,57.530941009521484,0.3554590940475464
0,1804345,1.5074340105056763,25.62807846069336,82.35554504394531,43.955055236816406
0,1804346,-13.387031555175781,-46.4338264465332,-14.94725513458252,-15.209226608276367
0,1814509,-28.93192481994629,-30.167207717895508,-33.71333694458008,-16.958776473999023
0,1814509,-23.65455436706543,32.60953903198242,30.12548065185547,6.921631813049316
0,1814512,-23.177278518676758,-26.139434814453125,-237.98399353027344,-0.3961900472640991
0,1814513,-1.1220133304595947,-15.895162582397461,-141.79681396484375,7.939518451690674
0,1814516,60.81221008300781,56.730995178222656,131.4714813232422,23.687660217285156
0,1814517,23.231630325317383,-8.342307090759277,97.0675048828125,-3.966305732727051
0,1814520,8.022520065307617,-4.068545818328857,107.42159271240234,-24.417831420898438
0,1814521,1.0058482885360718,57.41783142089844,60.480953216552734,24.801265716552734
0,1814524,-30.08327293395996,-19.26953887939453,-0.9119030237197876,15.47281265258789
0,1814525,-4.735889434814453,-70.09390258789062,-80.8908920288086,-35.03815841674805
0,1814528,12.843822479248047,-11.193299293518066,-33.59619140625,-34.77232360839844
0,1814529,9.079970359802246,42.93161392211914,85.6761245727539,12.684311866760254
0,1814532,-45.87037658691406,-9.425972938537598,-179.99136352539062,24.28508949279785
0,1814533,-23.507232666015625,-20.284238815307617,-152.489013671875,-1.2888442277908325
0,1814536,59.80121994018555,15.656057357788086,148.90081787109375,5.526925086975098
0,1814537,30.763513565063477,0.3683493435382843,102.27549743652344,-23.905954360961914
0,1814540,-31.114301681518555,0.09574497491121292,35.947269439697266,-5.988290786743164
0,1814541,-12.566242218017578,26.36483383178711,42.09385681152344,42.7568473815918
0,1814544,4.000028133392334,12.323637962341309,-15.68979549407959,3.268489360809326
0,1814545,-22.551429748535156,-33.47783660888672,-97.3836898803711,-22.169584274291992
0,1814548,17.089927673339844,8.091402053833008,37.290733337402344,-14.8869047164917
0,1814549,21.14658546447754,14.160218238830566,98.99713897705078,15.970322608947754
0,1814552,-47.67280197143555,-28.728214263916016,-167.8855438232422,7.567842960357666
0,1814553,-2.9369077682495117,0.5362586975097656,-104.51176452636719,-1.4029231071472168
0,1814556,39.723819732666016,22.212636947631836,115.70126342773438,-7.826462268829346
0,1814557,9.500566482543945,6.27911901473999,56.248172760009766,-22.13360595703125
0,1814560,3.2026591300964355,-2.795017719268799,33.43464660644531,26.184181213378906
0,1814561,-12.086496353149414,-2.3317971229553223,18.543127059936523,1.6564292907714844
0,1814564,-19.21995735168457,-14.003226280212402,-58.11970138549805,-17.966400146484375
0,1814565,-22.442455291748047,-26.944110870361328,-73.51032257080078,12.250896453857422
0,1814568,50.061073303222656,19.300199508666992,93.91007232666016,9.238572120666504
0,1814569,46.43613052368164,39.41594314575195,129.50242614746094,-2.2140772342681885
0,1814572,-80.38655090332031,-33.11634063720703,-179.69981384277344,-28.604660034179688
0,1814573,-45.76866912841797,-41.847900390625,-135.7781982421875,6.478178977966309
0,1814576,45.994834899902344,19.825387954711914,132.31980895996094,35.471839904785156
0,1814577,46.35661315917969,26.88556671142578,79.78549194335938,11.906271934509277
0,1814580,0.8552114963531494,7.455355644226074,-21.230941772460938,-16.75084114074707
0,1814581,-29.227458953857422,11.893999099731445,-14.011127471923828,-15.387596130371094
0,1814584,-5.983998775482178,-8.976265907287598,-4.769212245941162,10.377320289611816
0,1814585,-11.972145080566406,-21.207731246948242,-72.35161590576172,-19.883392333984375
0,1814588,30.92327880859375,21.452373504638672,53.36772537231445,-8.968839645385742
0,1814589,36.463096618652344,17.907670974731445,143.98020935058594,19.650663375854492
0,1814592,-66.9409408569336,-50.627750396728516,-159.3379364013672,0.8587043285369873
0,1814593,-5.384831428527832,-9.910554885864258,-122.28624725341797,-8.594840049743652
0,1814596,35.19544219970703,32.046756744384766,119.62590026855469,15.355369567871094
0,1814597,-14.69447135925293,-16.5737361907959,38.238075256347656,15.430952072143555
0,1814600,15.056258201599121,16.63811492919922,25.20930290222168,-4.524153232574463
0,1814601,-2.982586622238159,15.89680290222168,18.31934356689453,-17.26790428161621
0,1814604,-31.86805534362793,-31.1856632232666,-75.0097885131836,-34.66093444824219
0,1814605,-0.5555073618888855,-17.42772674560547,-83.08580017089844,14.99023723602295
0,1814608,31.378955841064453,27.714937210083008,103.58331298828125,27.359779357910156
0,1814610,10.450255393981934,44.176963806152344,147.38665771484375,-23.312448501586914
0,1814612,-38.85871887207031,-28.904598236083984,-153.66978454589844,-0.10507059097290039
0,1814614,-10.61805534362793,-39.78771209716797,-122.734130859375,20.694013595581055
0,1814616,44.64601135253906,7.609589576721191,91.29012298583984,-5.157778739929199
0,1814618,2.2714955806732178,18.104219436645508,67.06253051757812,4.1102294921875
0,1814620,-7.049572467803955,53.17312240600586,28.181865692138672,15.827835083007812
0,1814622,14.963318824768066,-1.4302619695663452,19.39312744140625,-20.62699317932129
0,1814623,-35.23371505737305,-66.46577453613281,-63.27437973022461,-41.30195617675781
0,1814626,-20.124473571777344,-2.3830554485321045,-123.89079284667969,21.590410232543945
0,1814627,48.48314666748047,40.84621810913086,11.657256126403809,44.89554977416992
0,1814630,27.54042625427246,-5.6850714683532715,153.51434326171875,-9.121278762817383
0,1814631,-49.95478820800781,-26.080753326416016,33.12336730957031,-18.80589485168457
0,1814634,-37.89476013183594,-11.369857788085938,-153.0752410888672,-12.65445327758789
0,1814635,29.16804313659668,-3.1332576274871826,0.0720849484205246,0.49308687448501587
0,1814638,6.691531658172607,22.285900115966797,97.36294555664062,3.6263132095336914
0,1814639,-9.567132949829102,-0.36650311946868896,-41.94031524658203,-0.42786574363708496
0,1814642,22.912654876708984,4.65346622467041,41.63947296142578,24.947669982910156
0,1814643,-1.361689567565918,5.782949447631836,3.818101644515991,-9.124368667602539
0,1814648,10.7647705078125,8.113700866699219,4.53383207321167,-40.3564567565918
0,1814648,15.408713340759277,21.892507553100586,93.3931655883789,26.24928855895996
0,1814649,-14.621055603027344,9.056771278381348,-64.51653289794922,46.24488067626953
0,1814652,-21.01230239868164,-39.0714111328125,-92.75716400146484,-26.891578674316406
0,1814653,-36.84383773803711,-57.42349624633789,-66.72515869140625,-17.399723052978516
0,1814656,8.955018997192383,33.22829055786133,25.23040771484375,20.446866989135742
0,1814657,32.35275650024414,-5.400941371917725,30.56489372253418,-14.43817138671875
0,1814660,9.203721046447754,-1.1182924509048462,1.2921618223190308,-2.3125903606414795
0,1814661,-2.505610704421997,34.12604522705078,59.66115188598633,22.026653289794922
0,1814664,-46.80242156982422,-43.238983154296875,-63.78992462158203,10.084811210632324
0,1814665,-14.187320709228516,-21.19590187072754,-116.81421661376953,-15.744421005249023
0,1814668,81.63175201416016,38.489200592041016,99.5319595336914,-24.82467269897461
0,1814669,22.68272590637207,39.014305114746094,169.55316162109375,12.862595558166504
0,1814672,-72.90433502197266,-5.028457164764404,-104.37577056884766,2.432943105697632
0,1814673,-23.535966873168945,-26.553714752197266,-97.46986389160156,-24.880247116088867
0,1814676,59.92054748535156,7.48595666885376,69.36543273925781,-31.8333797454834
0,1814677,21.56494903564453,34.17469024658203,30.577373504638672,9.111288070678711
0,1814680,-32.63558578491211,6.411915302276611,27.602048873901367,68.20746612548828
0,1814681,18.823259353637695,-22.766433715820312,23.322702407836914,10.624731063842773
0,1814684,0.26335999369621277,-48.10148239135742,-56.746063232421875,-15.11935806274414
0,1814685,-36.73265838623047,-34.09105682373047,-104.5538330078125,-13.027079582214355
0,1814688,12.683329582214355,64.59093475341797,85.73751068115234,-17.121166229248047
0,1814689,33.18925857543945,42.187557220458984,158.7313690185547,14.013711929321289
0,1814692,-39.63982009887695,-54.09185028076172,-128.25360107421875,13.191001892089844
0,1814693,-30.679086685180664,-10.611772537231445,-113.83980560302734,4.828150749206543
0,1814696,53.557403564453125,38.42030715942383,94.88926696777344,-21.981870651245117
0,1814697,5.524184226989746,17.374038696289062,41.68172836303711,-16.222164154052734
0,1814700,-18.681926727294922,-14.629734992980957,1.0982372760772705,19.126279830932617
0,1814701,9.741326332092285,-0.9068982601165771,-3.0282142162323,-6.415825843811035
0,1814704,-14.289262771606445,-15.231501579284668,-75.1997299194336,-9.110320091247559
0,1814705,-25.607711791992188,-39.341121673583984,-93.17852783203125,19.8780517578125
0,1814708,38.51606750488281,27.69344139099121,91.2273941040039,-38.149513244628906
0,1814709,42.82249069213867,16.861522674560547,178.38473510742188,-2.3288562297821045
0,1814712,-58.49073791503906,-47.024497985839844,-125.5372085571289,77.1104965209961
0,1814713,-31.300064086914062,-8.376969337463379,-138.90945434570312,3.3695943355560303
0,1814716,47.24104309082031,51.42093276977539,113.25691223144531,-38.003509521484375
0,1814717,-1.2906426191329956,35.773250579833984,44.71257019042969,-7.307258605957031
0,1814720,-24.17599105834961,-17.23306655883789,-37.084556579589844,-23.13504981994629
0,1814721,27.6179256439209,-33.263153076171875,30.8194637298584,3.880567789077759
0,1814724,2.938161849975586,13.467911720275879,-11.536685943603516,32.667396545410156
0,1814725,-42.8131103515625,8.063783645629883,-100.86503601074219,-24.629558563232422
0,1814728,4.127067565917969,-23.946413040161133,66.98609924316406,-15.71393871307373
0,1814729,46.569114685058594,13.860426902770996,142.2581787109375,8.68963623046875
0,1814732,-27.353233337402344,-8.747781753540039,-126.73396301269531,7.235548496246338
0,1814733,-35.165626525878906,-0.27767661213874817,-110.06307220458984,22.205970764160156
0,1814736,58.04473876953125,32.194889068603516,96.63142395019531,-16.209522247314453
0,1814737,1.3760188817977905,-30.431461334228516,44.52935028076172,-6.446816921234131
0,1814740,-43.08000564575195,-16.972192764282227,15.089268684387207,21.286231994628906
0,1814741,21.40262794494629,32.84004592895508,-4.983168601989746,-3.7639658451080322
0,1814744,-20.22003173828125,-6.2986016273498535,-75.80268859863281,-2.8007495403289795
0,1814745,-30.581499099731445,-31.794530868530273,-77.1850357055664,2.8095791339874268
0,1814748,58.96769714355469,21.607460021972656,95.42498016357422,13.048565864562988
0,1814749,50.88938903808594,48.0796012878418,162.25518798828125,-7.568303108215332
0,1814752,-47.51145553588867,-39.47994613647461,-143.54791259765625,-38.38884353637695
0,1814753,-40.022823333740234,-21.084877014160156,-109.72611236572266,-3.3453404903411865
0,1814756,50.77531051635742,52.12895965576172,114.18915557861328,30.59084701538086
0,1814757,15.68845272064209,-32.24540710449219,35.396610260009766,9.101484298706055
0,1814760,-20.10318374633789,-13.564579010009766,0.22819970548152924,-0.44376441836357117
0,1814761,-15.270505905151367,26.651321411132812,-3.7972569465637207,-1.7695205211639404
0,1814764,-15.61421012878418,-11.320775985717773,-68.17671203613281,-11.206501960754395
0,1814765,10.342202186584473,-3.9838314056396484,-74.15922546386719,5.885002136230469
0,1814768,22.445161819458008,4.531009197235107,103.83805847167969,14.09517765045166
0,1814769,14.595484733581543,16.433837890625,144.46482849121094,6.749467849731445
0,1814772,-55.97039794921875,-22.129926681518555,-153.2436065673828,10.44536304473877
0,1814773,-17.344783782958984,-13.167606353759766,-123.32091522216797,-32.789649963378906
0,1814776,50.25507354736328,12.980287551879883,99.03913116455078,-37.50518035888672
0,1814777,7.991409778594971,-22.64982795715332,46.17072677612305,26.862857818603516
0,1814780,-5.521044731140137,7.444471836090088,19.815156936645508,9.20176887512207
0,1814781,-24.16353988647461,29.679035186767578,0.5662245750427246,-17.356199264526367
0,1814784,-18.576141357421875,-2.0084726810455322,-63.971675872802734,2.3131022453308105
0,1814785,8.364293098449707,-14.515239715576172,-53.21084213256836,7.625975608825684
0,1814788,45.662235260009766,11.08874225616455,105.78097534179688,7.634791374206543
0,1814789,30.394472122192383,9.419229507446289,126.56767272949219,5.997081279754639
0,1814792,-71.7197265625,-23.990921020507812,-162.77093505859375,-12.646167755126953
0,1814793,-23.790254592895508,-3.4789719581604004,-108.6977767944336,-13.404365539550781
0,1814796,52.39611053466797,17.130584716796875,141.54364013671875,24.047119140625
0,1814800,16.87843132019043,0.8774754405021667,36.819496154785156,17.711881637573242
0,1814800,-15.713196754455566,-3.2148985862731934,-42.771522521972656,-34.01419448852539
0,1814801,-27.48065185546875,0.7186397910118103,9.002313613891602,-8.278254508972168
0,1814804,-8.521105766296387,-21.146638870239258,-28.979663848876953,18.97747802734375
0,1814805,-13.242498397827148,5.261653423309326,-71.45404815673828,-0.4969301223754883
0,1814808,21.789287567138672,34.76895523071289,64.9744873046875,6.888627052307129
0,1814809,65.54991149902344,6.7730712890625,127.53622436523438,-3.30326247215271
0,1814812,-31.892189025878906,-19.351852416992188,-113.34034729003906,-11.821587562561035
0,1814813,-56.953060150146484,-39.34230422973633,-96.4165267944336,0.6793931126594543
0,1814816,41.868614196777344,11.156011581420898,112.97642517089844,11.216686248779297
0,1814817,9.158317565917969,47.72582244873047,50.170833587646484,11.643903732299805
0,1814820,-14.814414978027344,-5.402544975280762,-44.25809860229492,12.04785442352295
0,1814821,32.677249908447266,-40.42635726928711,-42.22955322265625,-8.003793716430664
0,1814824,-23.182395935058594,-11.681842803955078,-22.02421760559082,-21.498306274414062
0,1814825,-29.62122917175293,27.498432159423828,-53.74283218383789,0.13163669407367706
0,1814828,19.049339294433594,20.068359375,63.0196533203125,-11.025925636291504
0,1814829,1.2891144752502441,-25.83060073852539,155.1485137939453,4.228877544403076
0,1814832,-9.82516098022461,-4.205834865570068,-79.21318817138672,26.172664642333984
0,1814833,7.1949567794799805,40.210411071777344,-94.29608917236328,-4.438423156738281
0,1814836,19.43503761291504,-10.748884201049805,20.79139518737793,-30.972122192382812
0,1814837,-18.058765411376953,-43.5300178527832,19.87917709350586,-2.297938108444214
0,1814840,-9.057875633239746,-2.3012514114379883,28.29387092590332,39.576873779296875
0,1814841,25.71642303466797,24.928085327148438,-7.269571781158447,-0.20596715807914734
0,1814844,-22.022676467895508,1.8223549127578735,-7.166511058807373,-45.341495513916016
0,1814845,-17.286344528198242,-14.14207649230957,-73.85791778564453,11.503814697265625
0,1814848,51.744789123535156,21.624176025390625,50.49845504760742,39.84707260131836
0,1814849,30.552154541015625,18.35950469970703,166.72265625,-24.90635108947754
0,1814852,-55.82575988769531,-49.22144317626953,-148.6334228515625,-13.419294357299805
0,1814853,-45.1729621887207,-5.751847743988037,-126.71231079101562,39.58003234863281
0,1814856,33.88587951660156,38.307132720947266,140.43853759765625,-12.102459907531738
0,1814857,29.974050521850586,-9.935162544250488,34.69660186767578,-39.215423583984375
0,1814860,-10.494275093078613,11.23042106628418,-6.223506450653076,26.726360321044922
0,1814861,-6.842035293579102,0.5514854192733765,-20.072492599487305,30.23662567138672
0,1814864,-14.338726997375488,-31.582950592041016,-66.55547332763672,-29.411666870117188
0,1814865,-3.6440269947052,6.1724653244018555,-26.738035202026367,-4.257082939147949
0,1814868,33.63021469116211,42.88080978393555,65.7995834350586,13.244635581970215
0,1814869,12.669806480407715,7.731182098388672,134.0654754638672,-34.313499450683594
0,1814872,-31.190202713012695,-54.895591735839844,-103.24107360839844,17.69901466369629
0,1814873,-38.158878326416016,-2.8251497745513916,-131.10000610351562,31.251779556274414
0,1814876,11.149585723876953,37.103904724121094,64.50190734863281,-21.32465171813965
0,1814877,58.523014068603516,-13.608341217041016,59.4427490234375,-3.414769172668457
0,1814880,21.047374725341797,11.157400131225586,39.74247741699219,6.09837007522583
0,1814881,-51.81660461425781,9.073491096496582,-15.454195022583008,-23.64914894104004
0,1814884,-43.454837799072266,-29.28101921081543,-57.333404541015625,-9.512791633605957
0,1814885,33.641387939453125,-1.2437940835952759,-64.56262969970703,21.548553466796875
0,1814888,59.476505279541016,2.1499507427215576,65.21248626708984,39.86297607421875
0,1814889,-4.495325088500977,19.98031234741211,154.0396728515625,33.23073196411133
0,1814892,-79.08395385742188,-20.37774085998535,-129.767822265625,-68.98272705078125
0,1814893,-22.01310920715332,-30.50364112854004,-132.99908447265625,-53.08427429199219
0,1814896,61.83161926269531,47.292266845703125,115.66763305664062,33.25051498413086
0,1814897,23.323562622070312,1.60342538356781,31.57927894592285,18.96394157409668
0,1814900,-22.329755783081055,-27.572174072265625,-13.376667022705078,4.229642391204834
0,1814901,-17.876813888549805,23.659992218017578,33.318721771240234,-4.864643573760986
0,1814904,-6.039961814880371,-5.937156677246094,-53.502994537353516,4.2057623863220215
0,1814905,-11.97966480255127,-28.5924015045166,-81.63314819335938,-12.845993995666504
0,1814908,24.184005737304688,50.27511215209961,87.50582885742188,-17.24390983581543
0,1814909,37.69905471801758,21.860319137573242,116.7276382446289,38.97939682006836
0,1814912,-42.45652389526367,-72.63832092285156,-114.56570434570312,22.33636474609375
0,1814913,-16.134674072265625,-0.24433034658432007,-77.16749572753906,-36.550880432128906
0,1814916,54.23671340942383,44.944705963134766,61.836578369140625,3.796811580657959
0,1814917,-14.951638221740723,-16.820484161376953,37.35844802856445,32.32637023925781
0,1814920,-33.34757995605469,3.8882009983062744,20.423826217651367,-21.786823272705078
0,1814921,41.50138854980469,35.80016326904297,-3.2107362747192383,-23.477388381958008
0,1814924,-6.708384990692139,-38.2054443359375,-36.31707763671875,12.231237411499023
0,1814925,-44.14545440673828,-42.37467575073242,-94.83780670166016,18.684959411621094
0,1814928,33.72730255126953,41.21337127685547,73.87644958496094,-18.719703674316406
0,1814929,48.3532600402832,31.35537338256836,151.69549560546875,-33.95322799682617
0,1814932,-45.31431579589844,-43.59844207763672,-146.04957580566406,45.301429748535156
0,1814933,-52.54132843017578,-39.39993667602539,-102.08930206298828,13.635560035705566
0,1814936,45.179141998291016,44.277183532714844,111.71309661865234,-47.19106674194336
0,1814937,19.271770477294922,30.58088493347168,22.499116897583008,12.101755142211914
0,1814940,-18.21501350402832,-11.096688270568848,5.777843475341797,14.16724967956543
0,1814941,-1.4916929006576538,-0.1575011909008026,49.8734245300293,-9.127687454223633
0,1814944,-19.463762283325195,-32.900413513183594,-72.67023468017578,-1.670408844947815
0,1814945,-10.11570930480957,-25.341638565063477,-119.59320068359375,19.151548385620117
0,1814948,46.419681549072266,70.34627532958984,115.00917053222656,-5.868166446685791
0,1814949,35.279361724853516,41.93967819213867,162.56100463867188,-22.207965850830078
0,1814952,-59.99924087524414,-93.55451965332031,-166.2447052001953,8.429879188537598
0,1814953,-32.062767028808594,-19.19154930114746,-124.17720794677734,-2.5300965309143066
0,1814956,27.409244537353516,71.8209228515625,121.97877502441406,7.868814945220947
0,1814957,4.5595879554748535,-5.362342834472656,31.648223876953125,25.192203521728516
0,1814960,31.400007247924805,1.4598464965820312,14.299934387207031,2.3872482776641846
0,1814961,13.230360984802246,-4.091059684753418,28.365007400512695,-25.902666091918945
0,1814966,-34.401981353759766,-49.5683479309082,-9.708572387695312,-25.39783477783203
0,1814967,3.405261278152466,13.031322479248047,-26.338314056396484,21.22138786315918
0,1814968,3.0990586280822754,39.6042366027832,-32.0075569152832,25.591222763061523
0,1814969,-21.834383010864258,-13.942282676696777,30.14670753479004,-21.492450714111328
0,1814972,-15.159786224365234,-16.887096405029297,-68.29573059082031,10.243117332458496
0,1814973,-2.9192028045654297,3.1667098999023438,-41.155784606933594,18.5963191986084
0,1814976,33.8449821472168,27.16925811767578,101.00884246826172,-21.77572250366211
0,1814977,43.4472770690918,21.69841957092285,11.55123233795166,-9.693819046020508
0,1814980,-31.602651596069336,-43.047630310058594,-38.33049392700195,-18.60346221923828
0,1814981,-47.15286636352539,-19.186933517456055,16.88448143005371,11.613341331481934
0,1814984,18.228300094604492,-7.008389949798584,-37.57421112060547,39.02979278564453
0,1814985,-1.3499248027801514,-11.276537895202637,-101.00155639648438,0.7639545202255249
0,1814988,15.116776466369629,62.46706008911133,92.7872314453125,-32.988380432128906
0,1814989,43.44704818725586,26.423912048339844,181.105712890625,-25.81655502319336
0,1814992,-39.91505813598633,-51.64626693725586,-113.45275115966797,5.251087665557861
0,1814993,-43.72277069091797,-33.44633865356445,-119.2731704711914,14.548095703125
0,1814996,44.52348709106445,7.254582405090332,67.77428436279297,29.750396728515625
0,1814997,29.748313903808594,26.930322647094727,36.138362884521484,7.56355619430542
0,1815000,-16.381032943725586,17.14976692199707,15.736398696899414,-40.081382751464844
0,1815001,-1.261922836303711,-6.4689249992370605,-28.392642974853516,-16.299232482910156
0,1815004,-25.46341896057129,-21.618858337402344,-43.64574432373047,32.40443801879883
0,1815005,-33.839027404785156,-6.073131561279297,-34.235294342041016,17.712980270385742
0,1815008,41.827857971191406,4.189601421356201,102.16053009033203,-27.76545524597168
0,1815009,36.99223327636719,10.955602645874023,140.958740234375,-31.433727264404297
0,1815012,-44.45431900024414,-19.593374252319336,-176.4881591796875,19.337831497192383
0,1815013,-8.349311828613281,-10.109986305236816,-120.62178039550781,84.06591796875
0,1815016,30.022310256958008,52.11709976196289,124.5676040649414,-0.544781506061554
0,1815017,-9.217192649841309,2.886253595352173,32.758121490478516,-105.12372589111328
0,1815020,-3.790987491607666,-7.263734340667725,35.53174591064453,4.328547954559326
0,1815021,1.7740925550460815,12.368785858154297,16.626880645751953,38.42872619628906
0,1815024,-20.18454360961914,-22.404109954833984,-118.4750747680664,4.181342124938965
0,1815025,0.15746234357357025,-17.161880493164062,-81.79131317138672,16.224863052368164
0,1815028,16.700321197509766,16.776405334472656,118.59709167480469,-7.8964056968688965
0,1815029,7.020594120025635,5.405045509338379,137.26829528808594,-28.059581756591797
0,1815032,-13.063794136047363,-35.00216293334961,-153.4787139892578,-14.953944206237793
0,1815033,-5.976928234100342,-4.423633575439453,-87.31446838378906,49.40546798706055
0,1815036,36.020572662353516,43.444007873535156,120.75060272216797,-14.23877239227295
0,1815037,-10.649435043334961,-12.009858131408691,-4.4185709953308105,-75.61692810058594
0,1815040,-15.392208099365234,-27.39308738708496,1.2656145095825195,56.7390022277832
0,1815041,41.56483459472656,55.18021774291992,62.42564392089844,62.79487609863281
0,1815044,-18.24594497680664,-6.47895622253418,-73.41484832763672,-53.29158020019531
0,1815045,-45.428924560546875,-55.319210052490234,-110.67501068115234,-27.014434814453125
0,1815048,19.79949378967285,43.43345642089844,103.17031860351562,37.732215881347656
0,1815049,12.656845092773438,32.43214416503906,162.85272216796875,39.591835021972656
0,1815052,-23.12179183959961,-34.946815490722656,-125.6103744506836,-13.002799987792969
0,1815053,14.545207977294922,-24.520666122436523,-132.05589294433594,-42.78615188598633
0,1815056,19.269798278808594,-15.451645851135254,82.83567810058594,-1.4340177774429321
0,1815057,-27.36967658996582,9.414748191833496,42.752140045166016,2.6510367393493652
0,1815060,-5.540102481842041,17.318700790405273,-5.756220817565918,-17.593616485595703
0,1815061,30.41291046142578,5.3898491859436035,-30.364410400390625,32.478172302246094
0,1815064,5.348660469055176,9.49416446685791,-44.16048812866211,18.295495986938477
0,1815065,-9.910922050476074,-28.859050750732422,-35.95781707763672,-23.92953109741211
0,1815068,9.864317893981934,13.788949012756348,100.3099365234375,-9.381487846374512
0,1815069,-3.9118611812591553,64.0240478515625,161.0651092529297,-28.14311408996582
0,1815072,-42.031986236572266,-47.57238006591797,-155.74598693847656,15.23190689086914
0,1815073,-6.306423664093018,-63.578643798828125,-136.82049560546875,40.543922424316406
0,1815076,41.285526275634766,43.93670654296875,93.49691772460938,-34.60759735107422
0,1815077,-5.071469783782959,21.129343032836914,41.52042007446289,-19.642452239990234
0,1815080,-11.145835876464844,-18.952489852905273,35.462318420410156,59.238407135009766
0,1815081,13.257159233093262,-11.947554588317871,11.838885307312012,-8.309942245483398
0,1815084,-23.622411727905273,-7.08129358291626,-79.48845672607422,-60.200965881347656
0,1815085,-2.9467103481292725,29.426673889160156,-87.7225341796875,41.33122253417969
0,1815088,45.021480560302734,7.6978559494018555,87.90426635742188,24.91185760498047
0,1815089,11.832051277160645,-9.933878898620605,176.79205322265625,-40.76002502441406
0,1815092,-42.03221893310547,-11.024147987365723,-137.8074493408203,18.398605346679688
0,1815093,-23.237607955932617,-17.974063873291016,-154.22607421875,30.308874130249023
0,1815096,26.556198120117188,31.286012649536133,138.35609436035156,-22.17822265625
0,1815097,12.388854026794434,21.99645233154297,57.29340362548828,1.8862533569335938
0,1815100,0.6704410910606384,-2.442700147628784,-4.152463912963867,14.08253002166748
0,1815101,10.52960205078125,-5.188480377197266,-2.802642822265625,-43.07697677612305
0,1815104,-15.74313735961914,-9.512157440185547,-80.0190658569336,17.737199783325195
0,1815105,-32.960994720458984,-11.483049392700195,-61.01052474975586,51.095970153808594
0,1815108,24.160633087158203,-3.9679386615753174,90.32737731933594,-57.582481384277344
0,1815109,41.55128479003906,20.58305549621582,117.34822845458984,-23.334577560424805
0,1815112,-54.957794189453125,-31.948259353637695,-166.27513122558594,28.219968795776367
0,1815113,-25.66856575012207,-38.853763580322266,-99.6751937866211,-20.630462646484375
0,1815116,52.68230056762695,63.57353210449219,160.242919921875,34.08845901489258
0,1815117,32.14179992675781,50.958473205566406,69.37882232666016,26.158554077148438
0,1815120,-27.15610122680664,-70.14005279541016,-31.130802154541016,-43.575496673583984
0,1815121,-46.261993408203125,-47.51710891723633,-32.56086730957031,17.110233306884766
0,1815124,4.4228515625,37.32765579223633,-58.44468688964844,4.106382369995117
0,1815125,-6.513373851776123,10.872666358947754,-51.45798110961914,-49.13966369628906
0,1815128,18.666828155517578,27.56219482421875,102.40470886230469,18.302188873291016
0,1815130,53.87177658081055,29.403827667236328,119.49299621582031,31.02193832397461
0,1815132,-30.708900451660156,-77.1031723022461,-154.8871612548828,5.401181221008301
0,1815134,-36.63878631591797,-2.9931812286376953,-89.31854248046875,-29.255783081054688
0,1815136,40.86167907714844,91.27490997314453,113.51483917236328,-51.95274353027344
0,1815138,23.646839141845703,-15.293225288391113,-5.9843926429748535,23.98525047302246
0,1815140,-23.279956817626953,-45.15932083129883,15.57351016998291,58.23698425292969
0,1815142,-19.243406295776367,3.295738935470581,86.30464172363281,6.501416206359863
0,1815143,-15.677154541015625,-17.560327529907227,-93.17479705810547,-26.431909561157227
0,1815146,20.658483505249023,-14.368199348449707,-96.50990295410156,-15.299702644348145
0,1815147,62.21525955200195,46.03559112548828,112.7718276977539,19.406110763549805
0,1815150,-25.215404510498047,33.50720977783203,65.01492309570312,26.572200775146484
0,1815151,-71.29644775390625,-52.599674224853516,-73.69927215576172,-22.422286987304688
0,1815154,23.581331253051758,-30.840951919555664,-75.57440185546875,-16.817724227905273
0,1815155,26.294885635375977,25.251718521118164,13.93494701385498,35.02772521972656
0,1815158,-36.05275344848633,-1.2014573812484741,83.87454223632812,-5.7482404708862305
0,1815159,-3.4134156703948975,21.453125,-8.35074520111084,-46.1281623840332
0,1815162,39.592689514160156,-2.012455940246582,-6.286062240600586,24.219457626342773
0,1815163,-4.195528984069824,-38.56575393676758,-20.2391357421875,12.203411102294922
0,1815166,-25.275136947631836,10.367654800415039,-62.575679779052734,-40.5819206237793
0,1815167,30.718997955322266,44.12361526489258,92.07804870605469,9.493642807006836
0,1815170,12.83932113647461,3.9073383808135986,31.637170791625977,32.67581558227539
0,1815171,-36.12053680419922,-22.232145309448242,-96.3248062133789,-0.7387930154800415
0,1815174,-18.26414680480957,-18.86121368408203,-22.941503524780273,-20.039094924926758
0,1815175,13.801311492919922,-23.12369155883789,56.69810104370117,-3.941044569015503
0,1815178,26.087177276611328,62.592105865478516,56.840885162353516,8.511161804199219
0,1815179,-10.127670288085938,24.42422866821289,-15.840179443359375,-19.44011878967285
0,1815182,-35.24578857421875,-66.96965789794922,-24.242734909057617,-6.402751922607422
0,1815183,5.813509464263916,-28.367422103881836,-50.482887268066406,56.90454864501953
0,1815186,38.34834289550781,56.876827239990234,-43.9644889831543,0.8762257695198059
0,1815187,20.573408126831055,68.58619689941406,111.52429962158203,-39.968482971191406
0,1815190,-34.40785598754883,-95.45518493652344,78.67476654052734,-4.645517349243164
0,1815191,-40.043453216552734,-75.20049285888672,-103.83574676513672,-0.7970084547996521
0,1815194,29.532520294189453,75.42317962646484,-92.0979232788086,-2.294935941696167
0,1815195,28.043067932128906,34.371543884277344,34.02663803100586,8.42440128326416
0,1815198,4.711415767669678,-11.499728202819824,68.5303726196289,36.84368896484375
0,1815199,-9.017634391784668,7.453091144561768,0.30093783140182495,18.2336483001709
0,1815202,-28.18071174621582,-0.9632275104522705,28.382762908935547,-33.769378662109375
0,1815203,0.07349329441785812,-22.133291244506836,-25.381427764892578,-41.006927490234375
0,1815206,11.66281795501709,-13.33536148071289,-91.60746002197266,28.501502990722656
0,1815207,33.17761993408203,9.11280345916748,87.19922637939453,19.996143341064453
0,1815210,0.5764567852020264,18.244281768798828,55.23770523071289,-28.983686447143555
0,1815211,-51.72664260864258,11.058687210083008,-95.23788452148438,1.088196873664856
0,1815214,18.45414924621582,-1.0677655935287476,-36.54196548461914,17.52623748779297
0,1815215,9.812681198120117,-27.683853149414062,45.45943069458008,-11.00463581085205
0,1815218,-44.312957763671875,-23.547914505004883,43.94870376586914,-17.135202407836914
0,1815219,6.309347629547119,24.420148849487305,-14.33244800567627,12.78935432434082
0,1815222,51.256526947021484,17.50994873046875,8.552698135375977,-23.394451141357422
0,1815223,9.515308380126953,-1.4939848184585571,-41.43739700317383,3.8795111179351807
0,1815226,-45.789031982421875,-7.832871913909912,-41.384159088134766,51.88917541503906
0,1815227,20.04857063293457,-9.24310302734375,113.72200012207031,-13.852753639221191
0,1815230,24.07143211364746,33.06630325317383,23.041479110717773,-31.784549713134766
0,1815231,-41.83110427856445,-8.281129837036133,-102.67571258544922,16.55024528503418
0,1815234,12.686856269836426,-32.8472900390625,-38.145545959472656,42.52098083496094
0,1815235,27.063478469848633,19.84762191772461,42.380741119384766,-25.888736724853516
0,1815238,-20.569368362426758,4.984892845153809,67.56998443603516,-38.56758499145508
0,1815239,1.2044073343276978,-7.270145416259766,6.175958633422852,25.217952728271484
0,1815242,-17.644472122192383,1.5068467855453491,-13.804852485656738,11.530619621276855
0,1815243,-36.87968063354492,-3.5382723808288574,-54.367774963378906,-3.540316343307495
0,1815246,37.12099075317383,6.268270015716553,-79.52474975585938,-23.26673698425293
0,1815247,42.4638671875,30.418092727661133,103.51043701171875,-11.905099868774414
0,1815250,-20.257333755493164,-27.437898635864258,78.60604095458984,27.170194625854492
0,1815251,-24.153976440429688,-53.376914978027344,-93.51980590820312,0.8712714910507202
0,1815254,2.8899800777435303,26.228731155395508,-54.6054801940918,-22.693098068237305
0,1815255,17.159244537353516,45.443477630615234,27.613101959228516,18.88088607788086
0,1815258,30.479936599731445,13.777870178222656,38.01416015625,38.739784240722656
0,1815259,20.77710723876953,-8.546217918395996,22.10404396057129,-12.710737228393555
0,1815262,-30.569644927978516,-20.848031997680664,44.57164001464844,-19.929170608520508
0,1815263,-59.37529754638672,-24.66128921508789,-80.05924987792969,15.325462341308594
0,1815266,-5.149712085723877,-8.862470626831055,-90.96163940429688,-27.385074615478516
0,1815267,61.62382507324219,33.9780387878418,145.80026245117188,-17.58818817138672
0,1815270,-11.68895149230957,5.443864345550537,53.324710845947266,45.69076156616211
0,1815271,-59.97978973388672,-31.441335678100586,-107.4202880859375,-21.211645126342773
0,1815274,22.62063217163086,13.338909149169922,-41.94182205200195,-19.693626403808594
0,1815275,34.499847412109375,-7.877470016479492,15.86151123046875,45.483978271484375
0,1815278,6.344631195068359,-11.430642127990723,56.066734313964844,-3.172485589981079
0,1815279,-7.332416534423828,42.54469299316406,-0.9936217665672302,-29.500106811523438
0,1815282,-19.621849060058594,4.014324188232422,13.268735885620117,-9.837626457214355
0,1815283,-29.961355209350586,-58.77627944946289,-49.44477081298828,2.8882315158843994
0,1815286,13.916203498840332,-7.319653034210205,-97.06768798828125,28.033842086791992
0,1815287,66.6101303100586,66.40634155273438,153.2867431640625,-6.417263031005859
0,1815290,-24.097021102905273,4.576446533203125,67.48168182373047,-32.9588737487793
0,1815291,-62.61868667602539,-33.53049087524414,-112.6776123046875,26.376558303833008
0,1815294,20.78639030456543,11.193053245544434,1.5456331968307495,16.25426483154297
0,1815295,54.12667465209961,5.029872417449951,40.418243408203125,-45.566898345947266
0,1815298,12.509073257446289,0.9740148782730103,-23.310955047607422,15.014659881591797
0,1815299,-34.4134635925293,-1.94723379611969,-45.7932243347168,58.0990104675293
0,1815302,13.120686531066895,-5.826026439666748,56.8179817199707,-28.019271850585938
0,1815303,-17.94595718383789,-33.81010437011719,-33.73459243774414,-27.87596893310547
0,1815306,-36.434505462646484,-22.61320686340332,-83.6998291015625,14.486128807067871
0,1815307,56.96918487548828,51.9846076965332,114.9757308959961,7.642542839050293
0,1815310,5.163376331329346,12.947955131530762,45.77592849731445,11.247100830078125
0,1815311,-42.7915153503418,2.2270748615264893,-87.1342544555664,-5.508984565734863
0,1815314,-1.5683703422546387,-4.552248954772949,-51.011192321777344,-19.981563568115234
0,1815315,7.6611328125,-35.62901306152344,27.401226043701172,-9.772078514099121
0,1815318,16.228479385375977,32.32109832763672,84.73918151855469,5.821284770965576
0,1815319,2.8806064128875732,0.7547596096992493,-0.9312775731086731,-4.205511093139648
0,1815322,5.033180236816406,-15.059869766235352,-2.5412802696228027,7.613862991333008
0,1815324,-15.61556339263916,10.136212348937988,-29.978261947631836,27.1965274810791
0,1815326,-24.36159896850586,-11.190879821777344,-68.58589935302734,-28.579132080078125
0,1815328,44.59457778930664,38.1651611328125,117.19171142578125,-38.95525360107422
0,1815330,-7.381931304931641,-8.05291748046875,-15.653789520263672,31.366518020629883
0,1815332,-38.02153396606445,-48.59113693237305,-141.4173126220703,35.01347732543945
0,1815334,33.07649612426758,10.842378616333008,47.204246520996094,-2.675320863723755
0,1815336,13.219593048095703,11.00743579864502,80.19024658203125,0.7055273056030273
0,1815337,-23.480812072753906,3.02677321434021,39.359962463378906,-22.924697875976562
0,1815340,-28.051240921020508,-17.120025634765625,-35.644683837890625,-4.850096702575684
0,1815344,15.235089302062988,4.093475818634033,1.6156293153762817,35.42439651489258
0,1815344,38.82327651977539,29.851837158203125,-19.259096145629883,-19.880229949951172
0,1815345,-26.227657318115234,-19.6715145111084,-134.41793823242188,-23.292726516723633
0,1815348,-6.118367671966553,16.031408309936523,100.93254852294922,34.9059944152832
0,1815349,39.98685073852539,41.06166458129883,174.37118530273438,7.27577543258667
0,1815352,-26.022687911987305,-47.092132568359375,-155.4920654296875,-28.67899513244629
0,1815353,-29.925683975219727,-28.68437957763672,-106.71104431152344,-7.187792778015137
0,1815356,38.7991943359375,31.98917007446289,126.85871124267578,-5.841759204864502
0,1815357,-0.07265493273735046,-1.2909067869186401,9.758809089660645,13.840241432189941
0,1815360,-24.7777156829834,-16.776491165161133,-21.10624122619629,10.91049575805664
0,1815361,4.390120506286621,-8.370758056640625,20.57957649230957,-42.625274658203125
0,1815364,-8.680634498596191,1.122079849243164,-71.6684799194336,9.202651023864746
0,1815365,-6.113130569458008,-8.00267505645752,-84.22128295898438,52.336647033691406
0,1815368,30.778928756713867,-6.513501167297363,115.26243591308594,-4.63411283493042
0,1815369,37.05430603027344,35.374881744384766,192.9379425048828,-15.99324893951416
0,1815372,-23.268953323364258,15.838768005371094,-135.1732635498047,-25.25557518005371
0,1815373,-34.309574127197266,-19.282974243164062,-165.6701202392578,0.09860233962535858
0,1815376,7.749703407287598,-9.720169067382812,94.36603546142578,22.345794677734375
0,1815377,4.732086181640625,-6.3743462562561035,46.65879821777344,0.260577917098999
0,1815380,-4.013014793395996,6.132811069488525,8.86621379852295,9.854835510253906
0,1815381,11.623056411743164,10.249131202697754,24.438814163208008,-27.91074562072754
0,1815384,-27.490690231323242,19.951473236083984,-84.71419525146484,-15.484210968017578
0,1815385,-25.72252655029297,-3.684185266494751,-95.26655578613281,23.474607467651367
0,1815388,50.20336151123047,-12.917901992797852,145.28341674804688,-1.1836256980895996
0,1815389,28.95378303527832,41.599700927734375,176.2490692138672,24.915775299072266
0,1815392,-42.244842529296875,-19.05719757080078,-201.90240478515625,19.44928741455078
0,1815393,-23.435741424560547,-58.39312744140625,-124.95487213134766,-29.316715240478516
0,1815396,41.78404235839844,24.008100509643555,148.44285583496094,-23.860124588012695
0,1815397,20.74749755859375,37.14201354980469,11.77485179901123,-2.926731824874878
0,1815400,-3.26084041595459,-4.2591118812561035,7.573261737823486,38.81073760986328
0,1815401,-5.847196102142334,-10.736286163330078,11.67380142211914,7.546751976013184
0,1815404,-42.111289978027344,-17.550500869750977,-88.60893249511719,-32.0709342956543
0,1815405,-6.046706676483154,-42.28786849975586,-57.318843841552734,14.064892768859863
0,1815408,40.228797912597656,24.842403411865234,95.70368194580078,-24.6223087310791
0,1815409,13.768440246582031,50.7001953125,153.11961364746094,-29.40151023864746
0,1815412,-29.104961395263672,-34.675296783447266,-151.0231170654297,36.218894958496094
0,1815413,-25.358612060546875,-28.46165657043457,-129.68978881835938,12.463508605957031
0,1815416,12.110467910766602,23.042076110839844,144.66055297851562,-18.986013412475586
0,1815417,24.5323486328125,31.133394241333008,16.432992935180664,2.836683988571167
0,1815420,9.047147750854492,-3.61448073387146,-26.664518356323242,32.09199905395508
0,1815421,-22.001644134521484,-13.519150733947754,62.33498001098633,17.617889404296875
0,1815424,-27.069284439086914,-16.96629524230957,-75.80702209472656,-9.204345703125
0,1815425,10.316980361938477,-32.23062515258789,-135.0482940673828,-19.723031997680664
0,1815428,50.20060348510742,49.19480514526367,170.51510620117188,-8.485136985778809
0,1815429,-4.0732831954956055,42.51279830932617,185.0365447998047,-3.405819892883301
0,1815432,-69.86573028564453,-76.20044708251953,-237.51414489746094,-16.63780403137207
0,1815433,19.95403480529785,-28.67945098876953,-129.66293334960938,17.124637603759766
0,1815436,46.50778579711914,77.3002700805664,160.4298858642578,29.52379035949707
0,1815437,-26.04283905029297,20.286014556884766,39.39754867553711,-28.776376724243164
0,1815440,-13.307518005371094,-52.49809265136719,-16.82733154296875,-32.5047492980957
0,1815441,15.337973594665527,10.345698356628418,22.022815704345703,33.418800354003906
0,1815444,1.247330665588379,31.348434448242188,-60.1953125,5.051220417022705
0,1815445,-19.337276458740234,-44.33747482299805,-107.05282592773438,-11.575016021728516
0,1815448,39.58472442626953,-3.1626062393188477,104.43025970458984,14.7330904006958
0,1815449,25.748661041259766,52.26848220825195,168.55642700195312,-14.020177841186523
0,1815452,-59.192630767822266,-25.947158813476562,-145.1654052734375,18.07571792602539
0,1815453,-15.08477783203125,-40.33320999145508,-113.38372039794922,10.457962036132812
0,1815456,20.572656631469727,25.678136825561523,110.73968505859375,-24.239276885986328
0,1815457,5.937617301940918,10.233902931213379,37.773101806640625,-14.255197525024414
0,1815460,2.9636809825897217,-17.62701988220215,-23.98379898071289,-0.05369836091995239
0,1815461,4.866899013519287,7.305167198181152,-3.4303154945373535,34.490867614746094
0,1815464,7.940695762634277,23.907054901123047,-28.865976333618164,-9.56003475189209
0,1815465,-8.455460548400879,10.497862815856934,-79.69585418701172,-29.452329635620117
0,1815468,-2.505974292755127,-7.610082149505615,113.4888687133789,2.24092435836792
0,1815469,33.335330963134766,-6.531306266784668,163.2594451904297,-9.342567443847656
0,1815472,-41.37710952758789,-31.573698043823242,-202.04124450683594,37.033721923828125
0,1815473,-45.294029235839844,9.023298263549805,-122.91429901123047,27.19332504272461
0,1815476,67.25554656982422,18.040386199951172,133.017822265625,-43.860008239746094
0,1815477,-0.3216887414455414,-38.36921310424805,18.171581268310547,-2.8258185386657715
0,1815480,-20.226810455322266,13.561473846435547,0.6518585681915283,25.824970245361328
0,1815481,9.687762260437012,36.45149612426758,33.049957275390625,-6.599794387817383
0,1815484,-36.284236907958984,-16.030733108520508,-68.39279174804688,4.3694634437561035
0,1815485,13.29061508178711,-18.659820556640625,-86.68150329589844,27.03753089904785
0,1815488,27.632720947265625,20.567176818847656,111.4580078125,-29.03191375732422
0,1815489,10.214982986450195,5.819254398345947,144.3159942626953,-27.059785842895508
0,1815492,-22.03575897216797,-28.519405364990234,-156.28042602539062,22.394649505615234
0,1815493,-34.56767654418945,-4.8956804275512695,-122.93567657470703,0.4872468113899231
0,1815496,53.697593688964844,41.641693115234375,130.64608764648438,-22.656476974487305
0,1815497,12.515493392944336,7.331031322479248,49.555335998535156,-13.565436363220215
0,1815500,-9.763343811035156,-11.271109580993652,4.369950771331787,25.072895050048828
0,1815501,18.62824249267578,1.752177357673645,21.76835060119629,9.713973999023438
0,1815504,-45.930179595947266,-30.240915298461914,-97.3432388305664,-28.619535446166992
0,1815505,-32.205223083496094,-10.928275108337402,-84.95377349853516,-12.501144409179688
0,1815508,21.510828018188477,35.49112319946289,112.298583984375,29.67937469482422
0,1815509,32.91141128540039,17.29541778564453,136.83644104003906,31.073484420776367
0,1815512,-26.695701599121094,-58.207881927490234,-151.71937561035156,21.20107078552246
0,1815513,-29.465900421142578,-15.693903923034668,-101.4614486694336,-34.267539978027344
0,1815516,33.85668182373047,63.03828811645508,128.13262939453125,-55.45505142211914
0,1815517,14.734187126159668,7.421379089355469,0.4571259617805481,23.76198387145996
0,1815520,3.7236878871917725,-23.650981903076172,13.296950340270996,34.92332458496094
0,1815521,-26.342082977294922,0.6236870288848877,64.1802978515625,7.738450050354004
0,1815524,-21.000295639038086,-17.781970977783203,-115.9673843383789,-7.46279239654541
0,1815525,34.073402404785156,-24.469980239868164,-107.64678955078125,-10.562166213989258
0,1815528,25.5506591796875,43.68744659423828,158.1512908935547,1.4142457246780396
0,1815529,10.631935119628906,37.15109634399414,147.26930236816406,-4.267394065856934
0,1815532,-23.458751678466797,-42.937217712402344,-203.0114288330078,-4.666309833526611
0,1815533,-17.155067443847656,-3.4913411140441895,-117.46074676513672,-8.161916732788086
0,1815536,23.02663230895996,24.041919708251953,153.1358642578125,10.463726997375488
0,1815537,-15.99970817565918,-31.31911849975586,22.464160919189453,16.640195846557617
0,1815540,-6.603090763092041,-21.984577178955078,-15.758919715881348,-18.17418670654297
0,1815541,33.86819839477539,39.550498962402344,44.719303131103516,-8.796520233154297
0,1815544,-22.680774688720703,-3.005052089691162,-74.26127624511719,-8.67853832244873
0,1815545,-55.19126510620117,-27.32503318786621,-80.05175018310547,4.989533424377441
0,1815550,13.726961135864258,39.0541877746582,77.9690933227539,12.476778984069824
0,1815550,48.91720199584961,2.3517887592315674,84.35592651367188,-4.607119560241699
0,1815551,-14.68739128112793,-25.294185638427734,-60.047401428222656,13.696819305419922
0,1815554,-24.717041015625,-10.992087364196777,-57.32737731933594,7.540400505065918
0,1815555,20.60797119140625,16.211816787719727,51.395851135253906,-31.408889770507812
0,1815558,26.288087844848633,35.60404586791992,52.76017379760742,13.50597858428955
0,1815559,-12.083744049072266,-27.439414978027344,-20.985591888427734,42.29024887084961
0,1815562,-11.944701194763184,-4.130122661590576,13.862454414367676,-34.0162467956543
0,1815563,4.986503601074219,16.12665367126465,-34.80649185180664,-13.962206840515137
0,1815566,14.25931453704834,-29.64557456970215,-67.82765197753906,15.632767677307129
0,1815567,25.59038734436035,7.380828380584717,109.5798110961914,-18.161922454833984
0,1815570,-40.914588928222656,20.99892234802246,-8.323503494262695,2.9644699096679688
0,1815571,-25.494997024536133,-11.831552505493164,-108.81124877929688,23.68425941467285
0,1815574,15.036567687988281,-17.67984962463379,13.372328758239746,-4.952579975128174
0,1815575,10.686829566955566,-5.136405944824219,22.28125762939453,-14.858022689819336
0,1815578,13.780735969543457,28.0527400970459,51.50845718383789,6.556201457977295
0,1815579,-21.08962059020996,15.587578773498535,11.006118774414062,15.10245132446289
0,1815582,2.427076816558838,-21.033588409423828,-28.07470703125,-24.26028823852539
0,1815583,0.11385992169380188,-1.3821485042572021,-30.14511489868164,-14.455964088439941
0,1815586,-6.42133092880249,0.7309533357620239,1.5104820728302002,40.45354461669922
0,1815587,28.03521728515625,11.563417434692383,109.61878204345703,-9.3175630569458
0,1815590,-16.18685531616211,-6.297618389129639,-35.396053314208984,-24.967201232910156
0,1815591,-24.38383674621582,-31.226093292236328,-131.97528076171875,9.765212059020996
0,1815594,27.89860725402832,5.4764323234558105,14.629256248474121,13.794285774230957
0,1815595,16.311412811279297,28.38886070251465,65.55967712402344,12.508403778076172
0,1815598,-14.298182487487793,3.118572950363159,34.95349884033203,-10.378341674804688
0,1815599,-14.03097915649414,-42.63595962524414,-23.56897735595703,-36.534664154052734
0,1815602,5.371767520904541,10.950355529785156,1.6621357202529907,-20.792051315307617
0,1815603,1.8598287105560303,36.33960723876953,-20.68061637878418,40.39389419555664
0,1815606,5.579111099243164,-20.224966049194336,-10.085427284240723,43.193790435791016
0,1815607,31.16436004638672,7.1801228523254395,108.5556640625,0.7936043739318848
0,1815610,-24.40007781982422,3.1091082096099854,-47.32328414916992,-30.822067260742188
0,1815611,-63.090065002441406,-32.53165817260742,-121.48771667480469,-20.157161712646484
0,1815614,20.78302001953125,10.501227378845215,31.224863052368164,-1.701918125152588
0,1815615,43.49235534667969,38.62567901611328,61.3170166015625,10.097186088562012
0,1815618,1.9127269983291626,-13.705223083496094,38.81916427612305,10.07563304901123
0,1815619,3.061206817626953,-13.540556907653809,-23.524402618408203,-5.7014384269714355
0,1815622,-23.4757022857666,38.189876556396484,-32.17934036254883,-0.3049299418926239
0,1815623,-16.7017822265625,-45.07731246948242,-50.86985397338867,-22.46729278564453
0,1815626,26.26908302307129,-34.618629455566406,-12.750616073608398,22.460433959960938
0,1815627,25.45420265197754,63.81559753417969,126.91230773925781,28.915143966674805
0,1815630,-32.34809494018555,-11.680205345153809,-17.06568717956543,-33.5816650390625
0,1815631,-43.58694839477539,-42.112823486328125,-105.11034393310547,3.4738311767578125
0,1815634,33.00374984741211,12.502257347106934,18.438249588012695,-8.28390121459961
0,1815635,13.721413612365723,-2.2692670822143555,46.57569122314453,4.938995361328125
0,1815638,-8.372846603393555,36.857421875,37.453121185302734,22.36321449279785
0,1815639,17.817302703857422,38.30901336669922,-15.043892860412598,-49.5178337097168
0,1815642,-31.82952880859375,-46.9448127746582,-18.590354919433594,17.358152389526367
0,1815643,-20.422863006591797,-25.95302391052246,-45.10689926147461,54.984127044677734
0,1815646,44.691993713378906,13.31206226348877,-24.95892333984375,-34.172481536865234
0,1815647,32.2403564453125,-2.4073145389556885,140.5477294921875,-22.190736770629883
0,1815650,-30.5095157623291,19.19524383544922,20.754859924316406,31.46014404296875
0,1815651,-20.42631721496582,38.98146438598633,-149.06658935546875,9.269625663757324
0,1815654,34.909751892089844,-20.50533103942871,-29.839458465576172,-4.109090328216553
0,1815655,-3.0856590270996094,-30.517086029052734,72.29338073730469,-10.83233642578125
0,1815658,-17.240219116210938,-0.3927612900733948,49.69962692260742,-17.30910873413086
0,1815659,13.076213836669922,-15.652669906616211,-3.7291908264160156,12.893878936767578
0,1815662,0.8476358652114868,3.675976037979126,1.680004596710205,0.976330041885376
0,1815663,-22.165353775024414,8.746037483215332,-45.195037841796875,2.7709200382232666
0,1815666,-3.752149820327759,12.421496391296387,-48.509498596191406,-7.902436256408691
0,1815667,38.25404357910156,18.972402572631836,100.2501449584961,-27.358583450317383
0,1815670,-7.164357662200928,-53.650299072265625,5.590125560760498,34.29585266113281
0,1815671,-38.52763366699219,-2.2491564750671387,-106.00847625732422,3.6772735118865967
0,1815674,14.740928649902344,66.72257995605469,16.35666275024414,-33.91851043701172
0,1815675,5.476117134094238,-31.240619659423828,63.47294998168945,14.98727035522461
0,1815678,-1.5271974802017212,-20.646757125854492,10.530963897705078,18.513690948486328
0,1815679,11.1591796875,21.317916870117188,-36.17314529418945,-5.89328145980835
0,1815682,-28.382169723510742,-11.129979133605957,15.243329048156738,-32.22395706176758
0,1815683,-4.350665092468262,3.8912477493286133,-47.114498138427734,13.989155769348145
0,1815686,32.635990142822266,17.594318389892578,-21.449831008911133,56.745079040527344
0,1815687,10.119187355041504,-12.90287971496582,145.12535095214844,-17.54380989074707
0,1815690,-30.072362899780273,-29.152786254882812,-43.577667236328125,-59.00185775756836
0,1815691,-24.928001403808594,13.2687349319458,-119.98219299316406,14.576547622680664
0,1815694,26.429040908813477,17.37140655517578,41.20848846435547,29.46041488647461
0,1815695,11.959895133972168,0.9185482263565063,58.27396011352539,0.6722280383110046
0,1815698,2.7026207447052,12.652896881103516,17.862218856811523,5.551753997802734
0,1815699,33.284175872802734,-2.393784284591675,-41.55118179321289,-12.50646686553955
0,1815702,-17.320993423461914,-6.5860114097595215,-6.072562217712402,-3.4669601917266846
0,1815703,-43.392913818359375,0.0874442309141159,-42.0804328918457,-0.03322039172053337
0,1815706,24.2078857421875,-1.4142483472824097,-38.30414581298828,-11.851912498474121
0,1815707,24.38900375366211,-7.412136554718018,157.0846710205078,4.13034200668335
0,1815710,-32.50550842285156,-23.746641159057617,29.02309226989746,15.938974380493164
0,1815711,-18.82038116455078,5.944578170776367,-153.7566680908203,-22.83684730529785
0,1815714,15.709220886230469,40.94560241699219,-29.529239654541016,6.160868167877197
0,1815715,13.256199836730957,-18.77727699279785,75.01263427734375,13.821925163269043
0,1815718,9.712578773498535,-10.167317390441895,61.212772369384766,-21.522022247314453
0,1815720,2.1120851039886475,21.13515853881836,-19.232664108276367,32.75138854980469
0,1815722,-22.467966079711914,-30.49565315246582,-21.638376235961914,-16.906686782836914
0,1815724,-40.180419921875,-18.722450256347656,-47.906063079833984,-10.223881721496582
0,1815726,28.692718505859375,40.60948944091797,-16.986488342285156,27.066919326782227
0,1815728,61.68145751953125,47.87101745605469,154.4564208984375,-33.75373077392578
0,1815730,-37.762691497802734,-59.16520309448242,-55.18789291381836,22.73881721496582
0,1815732,-36.239013671875,-55.770694732666016,-182.92466735839844,51.27396774291992
0,1815733,31.651376724243164,45.814605712890625,96.18734741210938,-45.22089767456055
0,1815736,18.345346450805664,24.69843292236328,98.7096176147461,-52.42842102050781
0,1815737,-24.729053497314453,1.8904613256454468,-61.9666862487793,23.302169799804688
0,1815740,-14.354677200317383,-10.276113510131836,-6.737929821014404,39.012168884277344
0,1815741,31.6574649810791,-32.25857162475586,24.915571212768555,3.9106690883636475
0,1815744,-30.508092880249023,3.2892274856567383,-66.11493682861328,-21.06233787536621
0,1815745,-23.138607025146484,4.107882499694824,-70.90528106689453,0.7478691935539246
0,1815748,71.77167510986328,42.37264633178711,129.2853240966797,-16.230234146118164
0,1815749,3.6257007122039795,66.99069213867188,178.5277557373047,-15.504788398742676
0,1815752,-62.1634521484375,-77.99309539794922,-154.76773071289062,12.997554779052734
0,1815753,15.29809856414795,-43.221187591552734,-132.82568359375,-4.181694030761719
0,1815756,37.09257507324219,58.830963134765625,124.73517608642578,13.594822883605957
0,1815757,-26.161935806274414,-13.616718292236328,29.042064666748047,10.542784690856934
0,1815760,-19.120460510253906,-14.509648323059082,-39.230438232421875,-3.6201303005218506
0,1815761,18.939212799072266,-2.2545433044433594,-0.8062143325805664,4.416886806488037
0,1815764,5.596132278442383,10.888879776000977,-59.08183670043945,-7.5441694259643555
0,1815765,-11.430427551269531,21.780778884887695,-99.27501678466797,-6.547862529754639
0,1815768,31.101898193359375,-10.87175464630127,130.7672119140625,25.31568717956543
0,1815772,-18.174036026000977,-25.755876541137695,90.75623321533203,2.5143468379974365
0,1815772,-53.86729431152344,-15.283653259277344,-162.87698364257812,-40.86921691894531
0,1815773,63.32903289794922,35.197017669677734,74.94941711425781,8.487034797668457
0,1815776,16.928329467773438,1.1024011373519897,101.5311508178711,23.594762802124023
0,1815777,-58.94438934326172,-33.6048469543457,-74.35443115234375,-4.329323768615723
0,1815780,13.415323257446289,11.073392868041992,11.318050384521484,-12.85802936553955
0,1815781,39.47368621826172,28.312816619873047,29.071279525756836,-9.88376235961914
0,1815784,-19.586938858032227,-10.445137977600098,-63.04322814941406,22.87361717224121
0,1815785,-36.754432678222656,-44.740901947021484,-64.54680633544922,3.518799304962158
0,1815788,46.794151306152344,43.70214080810547,109.87373352050781,-29.461618423461914
0,1815789,26.54454803466797,61.48405075073242,91.94390106201172,2.1187098026275635
0,1815792,-57.993499755859375,-81.51248931884766,-179.8265380859375,30.884979248046875
0,1815793,-11.886218070983887,-45.253055572509766,-86.58792114257812,-7.946320533752441
0,1815796,50.19336700439453,74.00775909423828,134.86541748046875,-19.801908493041992
0,1815797,-5.766035079956055,14.76366901397705,37.10991668701172,15.131601333618164
0,1815800,-11.928438186645508,-14.45031452178955,4.497200965881348,4.872318744659424
0,1815801,23.09318733215332,4.738548755645752,-1.5180680751800537,1.5349565744400024
0,1815804,-32.67859649658203,-25.174400329589844,-83.42231750488281,0.7977943420410156
0,1815805,-22.64398765563965,-20.995555877685547,-33.39741897583008,-13.25018310546875
0,1815808,27.581161499023438,16.142108917236328,112.38375091552734,-6.002592086791992
0,1815809,6.234867572784424,29.794504165649414,94.15994262695312,10.67934513092041
0,1815812,-25.029294967651367,-20.664718627929688,-147.46348571777344,-6.0326008796691895
0,1815813,18.658761978149414,-16.065399169921875,-67.69386291503906,2.556589365005493
0,1815816,19.1474609375,27.052902221679688,107.54368591308594,22.878875732421875
0,1815817,-27.389896392822266,-8.052943229675293,-24.882776260375977,-16.553462982177734
0,1815820,4.07054328918457,7.0723042488098145,-0.10091853141784668,-20.749235153198242
0,1815821,7.835156440734863,5.081233978271484,51.068931579589844,3.06594181060791
0,1815824,-26.172269821166992,-46.01050567626953,-64.58641815185547,15.089337348937988
0,1815825,-18.32915496826172,10.366092681884766,-72.90361785888672,9.036026000976562
0,1815828,34.78813552856445,53.94677734375,109.51667785644531,-9.979352951049805
0,1815829,30.31937599182129,7.502654075622559,106.98503112792969,-4.614073753356934
0,1815832,-42.69904327392578,-49.45476150512695,-153.5071563720703,0.12914273142814636
0,1815833,-8.02927303314209,-12.588706016540527,-72.81388854980469,-1.4140340089797974
0,1815836,49.996070861816406,35.592735290527344,116.65328216552734,12.214579582214355
0,1815837,-10.169650077819824,-20.353763580322266,8.741832733154297,0.5134134888648987
0,1815840,-17.261432647705078,-11.134419441223145,-19.145893096923828,-26.615877151489258
0,1815841,0.3616168200969696,12.730636596679688,17.959449768066406,1.8722026348114014
0,1815844,-10.728901863098145,14.493993759155273,-42.40681838989258,25.967727661132812
0,1815845,33.42880630493164,17.08708381652832,-56.46542739868164,1.6097458600997925
0,1815848,17.2763671875,-17.58940887451172,106.75646209716797,4.618764877319336
0,1815849,-33.48930740356445,-7.510796546936035,126.38357543945312,-1.9222756624221802
0,1815852,-32.88215255737305,-16.91499137878418,-165.2742919921875,-2.430011749267578
0,1815853,12.662220001220703,0.7363718152046204,-97.82052612304688,9.8294677734375
0,1815856,35.25640106201172,35.30250549316406,116.31675720214844,-18.587196350097656
0,1815857,-15.756819725036621,-1.5847643613815308,8.622556686401367,-7.521655082702637
0,1815860,-8.967340469360352,1.1972315311431885,14.543015480041504,14.461374282836914
0,1815861,30.754837036132812,-8.843830108642578,14.884883880615234,-6.993748188018799
0,1815864,-32.15153884887695,-28.98563575744629,-104.8125,-16.840837478637695
0,1815865,-19.006425857543945,7.02074670791626,-45.650962829589844,0.6414273381233215
0,1815868,58.22986602783203,24.513717651367188,134.90219116210938,10.856496810913086
0,1815869,-6.024138450622559,-16.724740982055664,105.1493148803711,7.136776447296143
0,1815872,-58.263511657714844,-21.87959861755371,-173.90673828125,-5.572845935821533
0,1815873,11.084929466247559,27.667627334594727,-80.3927001953125,-12.428749084472656
0,1815876,55.05907440185547,11.137064933776855,141.11465454101562,-3.0911550521850586
0,1815877,-36.44000244140625,5.800655364990234,0.07207651436328888,15.472238540649414
0,1815880,-27.399484634399414,2.635279655456543,-21.574495315551758,22.98916244506836
0,1815881,34.40546798706055,-31.86370277404785,37.44750213623047,-0.16828535497188568
0,1815884,-19.405372619628906,-7.481689929962158,-59.888031005859375,-16.093881607055664
0,1815885,15.228492736816406,10.859150886535645,-76.34091186523438,-8.663805961608887
0,1815888,43.1577033996582,28.20716667175293,112.21273040771484,-7.291017055511475
0,1815889,-15.230783462524414,18.43135643005371,116.26559448242188,6.7429680824279785
0,1815892,-49.54093551635742,-54.0285758972168,-142.41885375976562,24.1757755279541
0,1815893,7.382792949676514,-15.311176300048828,-61.26701736450195,-21.59449005126953
0,1815896,29.576457977294922,9.613787651062012,73.75386047363281,-32.762332916259766
0,1815897,-24.772491455078125,0.6689063906669617,-25.31869125366211,30.545896530151367
0,1815900,-1.4069619178771973,48.905296325683594,38.67023468017578,30.964662551879883
0,1815901,5.25645112991333,-11.474291801452637,38.50109100341797,3.595081090927124
0,1815904,-18.29527473449707,-37.453651428222656,-87.91320037841797,-16.60344123840332
0,1815905,17.248607635498047,12.14783763885498,-59.17267990112305,-31.04523468017578
0,1815908,43.62457275390625,27.542869567871094,121.3689956665039,-2.853092670440674
0,1815909,-15.914351463317871,-6.864055156707764,82.72217559814453,23.55953598022461
0,1815912,-68.71480560302734,-41.814205169677734,-175.50796508789062,-2.6692678928375244
0,1815913,20.185606002807617,11.659504890441895,-36.53746032714844,33.500240325927734
0,1815916,53.603004455566406,30.746004104614258,131.7920379638672,12.202327728271484
0,1815917,-25.130126953125,-5.300262451171875,-6.336874485015869,-79.68378448486328
0,1815920,-18.021621704101562,6.002586364746094,9.65276050567627,11.955536842346191
0,1815921,16.792991638183594,3.3431005477905273,32.574615478515625,40.81181335449219
0,1815924,3.1472954750061035,-36.58186340332031,-90.74919891357422,-11.933396339416504
0,1815925,-10.785455703735352,2.6151490211486816,-77.1741943359375,-29.650569915771484
0,1815928,17.307363510131836,31.249757766723633,123.67584991455078,-2.729401111602783
0,1815929,10.530701637268066,-11.966014862060547,98.9578857421875,30.51390838623047
0,1815932,-25.897884368896484,0.8439063429832458,-152.38442993164062,-1.8929308652877808
0,1815933,-16.38534927368164,-7.565222263336182,-58.365989685058594,-2.430546522140503
0,1815936,7.725020408630371,-4.928403377532959,78.95372009277344,-16.858198165893555
0,1815937,32.77843475341797,15.655488014221191,6.969244003295898,15.028237342834473
0,1815940,25.406171798706055,5.258213996887207,53.633941650390625,19.796485900878906
0,1815941,-26.32883644104004,-2.26149320602417,25.464723587036133,-24.631654739379883
0,1815944,-33.437957763671875,-34.510311126708984,-136.68894958496094,4.534482479095459
0,1815945,3.7076706886291504,12.009334564208984,-71.26583099365234,-3.797595262527466
0,1815948,16.662330627441406,39.39435958862305,182.37290954589844,16.95615005493164
0,1815949,18.41753578186035,-8.091391563415527,84.37372589111328,25.90227508544922
0,1815952,-23.975736618041992,-12.760564804077148,-182.90628051757812,-32.592247009277344
0,1815953,-25.95669174194336,-25.1499080657959,-52.2122802734375,-27.30762481689453
0,1815956,48.20317840576172,-19.53042984008789,102.42005920410156,4.365970134735107
0,1815957,10.077803611755371,40.662391662597656,17.530141830444336,33.39226150512695
0,1815960,-28.05461311340332,46.763427734375,36.098602294921875,4.859416484832764
0,1815961,-11.485583305358887,-31.161401748657227,-0.9175012111663818,-35.10945510864258
0,1815964,-44.54765701293945,-47.333499908447266,-128.93121337890625,-12.881827354431152
0,1815965,14.045791625976562,25.29298210144043,-11.780143737792969,17.00193214416504
0,1815968,43.153324127197266,28.7238826751709,151.20675659179688,16.21638298034668
0,1815969,-14.71613597869873,-8.434046745300293,29.067026138305664,-12.865557670593262
0,1815972,-6.846313953399658,-23.190113067626953,-152.85215759277344,7.314262390136719
0,1815973,14.894636154174805,-11.987228393554688,-12.365521430969238,10.355772018432617
0,1815976,13.517226219177246,34.889625549316406,100.35743713378906,-1.4710179567337036
0,1815977,-12.300468444824219,17.475555419921875,-1.6727187633514404,-10.608322143554688
0,1815980,7.093711853027344,-22.010704040527344,10.79667854309082,-19.616344451904297
0,1815982,19.366313934326172,-20.66132926940918,-3.030874013900757,37.131103515625
0,1815984,-31.411020278930664,-16.877803802490234,-91.24868774414062,4.58194637298584
0,1815986,-11.377406120300293,17.768314361572266,-1.7733155488967896,-46.72755432128906
0,1815988,48.697669982910156,42.60345458984375,122.96086120605469,-0.2991676330566406
0,1815990,0.7461329102516174,-20.45232582092285,11.12581729888916,34.09016799926758
0,1815992,-67.35735321044922,-56.49756622314453,-180.3936004638672,6.460902690887451
0,1815994,13.017455101013184,15.89559268951416,-33.67615509033203,-3.936373472213745
0,1815995,50.29720687866211,21.296079635620117,176.2991943359375,5.845966815948486
0,1815998,-16.421430587768555,10.746932983398438,11.941011428833008,-26.806406021118164
0,1815999,-14.78123664855957,33.23760986328125,-61.460514068603516,1.6090192794799805
0,1816002,-4.149165630340576,-46.59526824951172,73.235107421875,36.891929626464844
0,1816003,3.1634767055511475,-28.78363609313965,-56.5498046875,-3.3439674377441406
0,1816006,16.21673583984375,82.50973510742188,-29.932300567626953,-38.96547317504883
0,1816008,11.719300270080566,21.46344566345215,136.9523468017578,-37.524723052978516
0,1816010,-15.733468055725098,-95.13214874267578,-112.49172973632812,18.734661102294922
0,1816012,-36.27785873413086,-40.09162521362305,-110.95600891113281,47.07306671142578
0,1816014,0.8032559752464294,54.49788284301758,95.4937515258789,0.8434203863143921
0,1816016,15.821248054504395,31.181720733642578,26.768898010253906,14.396212577819824
0,1816018,20.135509490966797,3.32578444480896,11.737205505371094,-21.388357162475586
0,1816020,12.75405216217041,8.069134712219238,13.073161125183105,-82.82072448730469
0,1816022,-17.078458786010742,-28.27770233154297,-5.296243667602539,44.93792724609375
0,1816024,-31.080127716064453,-34.53240966796875,-79.22731018066406,75.89795684814453
0,1816026,14.608297348022461,26.15366554260254,-1.7665592432022095,-32.50752639770508
0,1816028,56.575828552246094,34.265079498291016,169.74147033691406,-9.604218482971191
0,1816030,-34.832298278808594,-14.544888496398926,-80.54853820800781,28.880348205566406
0,1816032,-43.21662902832031,-31.590662002563477,-139.93011474609375,-12.536223411560059
0,1816034,34.31360626220703,10.110126495361328,57.111148834228516,-42.515724182128906
0,1816036,12.436010360717773,36.841609954833984,42.9898567199707,-5.9447150230407715
0,1816038,-0.19781337678432465,-8.752352714538574,28.872737884521484,43.805580139160156
0,1816040,8.537651062011719,-49.85421371459961,2.4669172763824463,10.567850112915039
0,1816042,-15.8794527053833,6.18389892578125,-23.352643966674805,-38.349246978759766
0,1816044,-47.28790283203125,17.1114444732666,-86.43002319335938,7.040807247161865
0,1816046,11.453878402709961,2.085695743560791,31.488224029541016,37.818992614746094
0,1816048,78.27814483642578,49.4862174987793,170.35540771484375,-18.16786003112793
0,1816050,-35.43571853637695,-12.709186553955078,-103.14942169189453,-21.178071975708008
0,1816052,-56.842098236083984,-42.555789947509766,-120.70415496826172,18.81165885925293
0,1816054,47.909305572509766,-9.397415161132812,70.45922088623047,3.5392544269561768
0,1816056,10.45605754852295,-1.3901677131652832,30.650554656982422,-9.58600902557373
0,1816058,-19.434268951416016,33.174560546875,57.400753021240234,-13.960983276367188
0,1816060,12.541638374328613,10.32563591003418,12.012460708618164,-9.571489334106445
0,1816062,1.6210298538208008,-12.853836059570312,-67.27497100830078,14.771772384643555
0,1816064,-28.066864013671875,-22.066770553588867,-82.76929473876953,1.8774572610855103
0,1816066,13.015084266662598,17.64487075805664,45.591495513916016,-11.240602493286133
0,1816068,46.11073684692383,43.16851043701172,169.99778747558594,4.44257926940918
0,1816070,-27.287776947021484,-35.88291931152344,-92.25654602050781,19.640605926513672
0,1816072,-50.983184814453125,-42.84330368041992,-152.36024475097656,-16.60249137878418
0,1816074,13.346906661987305,29.336599349975586,79.52406311035156,-20.404203414916992
0,1816076,38.92888641357422,38.98598861694336,68.41610717773438,26.33770179748535
0,1816078,0.8622708320617676,-12.906128883361816,5.748458385467529,3.0226073265075684
0,1816080,-4.643744468688965,-8.251079559326172,-8.24581527709961,6.647957801818848
0,1816082,-14.601431846618652,-29.084125518798828,-59.83356475830078,1.4364769458770752
0,1816084,-23.859134674072266,-32.12357711791992,-69.99654388427734,-33.534820556640625
0,1816086,29.939050674438477,36.2752685546875,81.22908020019531,22.11313247680664
0,1816088,31.213552474975586,28.420833587646484,132.4051513671875,25.18406867980957
0,1816090,-50.64250946044922,-29.529495239257812,-116.970458984375,-44.380855560302734
0,1816092,-24.46976661682129,-25.050189971923828,-91.25,16.984098434448242
0,1816094,50.404151916503906,35.86345291137695,64.53539276123047,32.516361236572266
0,1816096,-14.66974925994873,23.859037399291992,7.273266792297363,-24.616334915161133
0,1816098,11.657155990600586,-23.973758697509766,40.69049072265625,-10.880888938903809
0,1816100,37.712337493896484,-10.063300132751465,32.27125930786133,-18.49612808227539
0,1816102,-47.992027282714844,18.641460418701172,-48.08617401123047,40.36211395263672
0,1816104,-18.205718994140625,-19.38640785217285,-107.38615417480469,12.17764949798584
0,1816106,36.506256103515625,-12.578771591186523,53.16547775268555,-59.654640197753906
0,1816108,17.824142456054688,25.423526763916016,180.44546508789062,10.060853958129883
0,1816110,-40.52327346801758,2.7530035972595215,-89.2223892211914,18.289813995361328
0,1816112,-34.18745422363281,41.214290618896484,-94.2923583984375,8.826075553894043
0,1816114,39.34511184692383,2.4067094326019287,32.56184005737305,-6.447302341461182
0,1816116,28.207897186279297,-76.70028686523438,-19.54539680480957,-26.666168212890625
0,1816118,-34.08543014526367,28.212158203125,52.800804138183594,29.7587947845459
0,1816120,3.469053030014038,42.53403091430664,38.69150924682617,13.875601768493652
0,1816122,20.31629753112793,-88.04693603515625,-32.36888122558594,-10.961261749267578
0,1816124,-30.46227264404297,-27.612640380859375,-72.08186340332031,6.10772180557251
0,1816126,15.319502830505371,78.1443862915039,-2.069291353225708,-42.34707260131836
0,1816128,43.27004623413086,38.97636795043945,155.8832244873047,7.3079609870910645
0,1816130,-18.435075759887695,-39.13739776611328,-60.59175109863281,61.92868423461914
0,1816132,-42.28010940551758,-39.09743118286133,-110.63241577148438,-2.0301873683929443
0,1816134,-5.152421474456787,30.349918365478516,84.56919860839844,-19.099729537963867
0,1816136,19.602741241455078,21.39412498474121,-21.539377212524414,-43.30097961425781
0,1816138,11.386489868164062,1.1653828620910645,-15.244833946228027,-0.40687134861946106
0,1816140,-1.8559638261795044,1.206081748008728,19.735300064086914,46.580142974853516
0,1816142,-4.061159610748291,-15.010843276977539,-22.161958694458008,-28.94802474975586
0,1816144,-15.951456069946289,-26.89080810546875,-53.67341995239258,-11.230799674987793
0,1816146,2.4586730003356934,18.44276237487793,53.40986251831055,20.524614334106445
0,1816148,21.118816375732422,33.25265884399414,141.2377471923828,-0.9178178906440735
0,1816150,4.093751907348633,-19.623674392700195,-102.6424789428711,-23.094236373901367
0,1816152,10.752270698547363,2.7313215732574463,-104.7500228881836,-4.732154846191406
0,1816154,-8.918597221374512,-21.03487205505371,54.11152648925781,41.65962600708008
0,1816156,-26.454648971557617,-29.501344680786133,37.875877380371094,4.906247615814209
0,1816158,10.171821594238281,38.49009704589844,22.22987174987793,-17.889020919799805
0,1816160,-6.661711692810059,10.794260025024414,1.354675054550171,-1.8035024404525757
0,1816162,-22.336349487304688,3.6427013874053955,-6.230431079864502,8.882665634155273
0,1816164,9.350006103515625,1.0761711597442627,-76.80004119873047,8.415523529052734
0,1816166,9.585765838623047,-22.70070457458496,21.41868019104004,-16.861757278442383
0,1816168,16.245450973510742,7.611078262329102,154.0266571044922,-19.756620407104492
0,1816170,-18.043745040893555,-24.895601272583008,-95.34813690185547,24.799163818359375
0,1816172,3.2453789710998535,-8.991413116455078,-133.1615753173828,12.052497863769531
0,1816174,45.80716323852539,36.2003173828125,78.36186981201172,-17.25006866455078
0,1816176,-10.5454740524292,3.8304266929626465,73.8982162475586,-4.105354309082031
0,1816178,-1.9673614501953125,-0.3562348484992981,13.513038635253906,15.890767097473145
0,1816180,5.456535816192627,9.320362091064453,-23.637638092041016,29.471275329589844
0,1816182,-41.021629333496094,-11.94247055053711,-44.295257568359375,-34.79486083984375
0,1816184,-20.568166732788086,-21.555789947509766,-82.93411254882812,-33.261566162109375
0,1816186,46.871463775634766,13.295866012573242,33.037071228027344,16.1584529876709
0,1816188,21.528118133544922,39.558650970458984,169.8959503173828,-1.9094218015670776
0,1816190,-68.20960235595703,-26.3342342376709,-80.90677642822266,15.479351997375488
0,1816192,-16.081411361694336,-35.8858757019043,-140.0087127685547,-4.396500110626221
0,1816193,65.57549285888672,38.745086669921875,115.83580780029297,-29.174558639526367
0,1816196,5.966849327087402,-3.664503574371338,64.4150390625,25.841720581054688
0,1816197,-42.018585205078125,-33.81089401245117,-65.24789428710938,19.52716636657715
0,1816200,1.2082237005233765,20.458345413208008,-16.104413986206055,-23.72092628479004
0,1816201,4.095747947692871,13.082768440246582,-1.6634215116500854,21.98048973083496
0,1816204,-8.863656997680664,-15.536372184753418,-44.515316009521484,35.032997131347656
0,1816205,34.22582244873047,-2.464816093444824,-43.78879928588867,-54.368167877197266
0,1816208,51.56513977050781,37.40010070800781,129.5650177001953,-22.145727157592773
0,1816209,-20.669710159301758,16.801610946655273,147.74273681640625,62.817569732666016
0,1816212,-67.18667602539062,-52.967140197753906,-164.74510192871094,-7.143495559692383
0,1816213,-6.6506500244140625,-20.96319580078125,-90.83854675292969,-46.239715576171875
0,1816216,29.436756134033203,18.031085968017578,136.44760131835938,5.565500736236572
0,1816217,9.136334419250488,15.886436462402344,-13.035384178161621,2.5127456188201904
0,1816220,-13.416703224182129,19.336746215820312,-36.903621673583984,-12.013029098510742
0,1816221,15.15422534942627,-14.902697563171387,-6.083813667297363,19.374025344848633
1,1816225,11.874593734741211,-7.837367057800293,-42.76831817626953,28.148250579833984
1,1816225,-30.056886672973633,12.51799488067627,22.464263916015625,1.917518973350525
1,1816228,-0.715842068195343,-9.765268325805664,62.60054397583008,-12.810914993286133
1,1816229,22.501035690307617,-2.1777544021606445,38.96270751953125,-20.322072982788086
1,1816232,-12.863093376159668,14.025315284729004,-119.68270111083984,-11.404394149780273
1,1816233,-14.53514289855957,1.1477736234664917,-67.55908966064453,-8.841029167175293
1,1816236,23.32560157775879,-21.967609405517578,92.03734588623047,-30.483613967895508
1,1816237,3.7059102058410645,0.39303553104400635,37.262027740478516,17.62030029296875
1,1816240,-5.510144233703613,22.44095802307129,38.37786102294922,49.07857131958008
1,1816241,-0.12487076222896576,-24.891029357910156,-47.816375732421875,25.040929794311523
1,1816244,-34.27430725097656,-37.55270767211914,-101.90892028808594,-6.044772624969482
1,1816245,4.732931613922119,31.727632522583008,46.6119384765625,-31.276592254638672
1,1816248,51.27346420288086,33.77877426147461,82.10974884033203,-17.299299240112305
1,1816503,-26.799949645996094,-62.71319580078125,-125.42623138427734,5.213191986083984
1,1816504,-11.669163703918457,17.113483428955078,-69.69972229003906,31.73116683959961
1,1816507,89.27105712890625,133.293701171875,447.6866455078125,-12.850785255432129
1,1816508,4.802666664123535,-2.2182679176330566,264.038818359375,11.914456367492676
1,1816511,-100.0745620727539,-94.5420913696289,-397.9246826171875,23.980751037597656
1,1817372,-50.96223449707031,-44.66822814941406,-326.34857177734375,-43.65196228027344
1,1817373,-8.362371444702148,-10.494681358337402,-46.05228805541992,-7.71746301651001
1,1817376,11.84168815612793,-4.830566883087158,-82.65192413330078,17.66724967956543
1,1817377,26.609045028686523,-4.123022079467773,-36.88558578491211,5.028781890869141
1,1817380,38.97755432128906,47.5181770324707,167.39324951171875,-27.16252326965332
1,1817381,40.41339874267578,46.20527267456055,145.9232177734375,-5.9256134033203125
1,1817384,0.05573010817170143,-10.908145904541016,73.17121124267578,36.66286087036133
1,1817385,23.921913146972656,6.63637638092041,213.6073455810547,-0.02761855348944664
1,1817388,-19.986051559448242,-14.400094032287598,67.86162567138672,-11.416584014892578
1,1817389,-72.3797836303711,-31.901662826538086,-183.93582153320312,-1.1844285726547241
1,1817392,-29.4326171875,-9.212986946105957,-176.32102966308594,-9.874747276306152
1,1817393,3.0336084365844727,-28.253318786621094,-100.755126953125,10.077871322631836
1,1817396,46.57476043701172,-0.19286082684993744,-19.733951568603516,12.512248039245605
1,1817397,7.605818748474121,32.91184616088867,-18.2553768157959,-20.06191062927246
1,1817400,-5.9972920417785645,30.220430374145508,75.43350982666016,4.037894248962402
1,1817401,24.148353576660156,5.242857456207275,76.0525894165039,26.836313247680664
1,1817404,8.257423400878906,5.618215560913086,40.627742767333984,4.625711917877197
1,1817405,21.373605728149414,25.408926010131836,163.3860626220703,-34.934688568115234
1,1817408,-24.009496688842773,-44.64521026611328,14.695159912109375,-46.35172653198242
1,1817410,-35.90383529663086,-51.33517837524414,-164.21681213378906,33.50762176513672
1,1817412,-8.65505599975586,42.21405792236328,-124.05716705322266,42.60240173339844
1,1817414,-21.472604751586914,16.895902633666992,-19.913673400878906,-34.67533874511719
1,1817416,12.389664649963379,-54.64669418334961,37.77165603637695,-9.870108604431152
1,1817418,16.53049087524414,-7.642894268035889,-13.687505722045898,33.89463424682617
1,1817420,15.69338607788086,50.59319305419922,33.490047454833984,-5.023064613342285
1,1817422,2.5421688556671143,-7.249551296234131,42.746761322021484,-2.0714595317840576
1,1817423,-13.643892288208008,-26.163148880004883,-53.99805450439453,17.70876693725586
1,1817425,43.70201110839844,50.77001953125,93.5487289428711,-20.324052810668945
1,1817428,24.31856346130371,40.103355407714844,167.07498168945312,-15.91684627532959
1,1817429,-52.52772903442383,-21.180078506469727,-97.28450012207031,14.06686782836914
1,1817432,-59.1052360534668,-27.39521026611328,-155.66078186035156,11.08702278137207
1,1817433,16.584646224975586,-0.004152888432145119,2.1258718967437744,-2.2491281032562256
1,1817436,33.67705154418945,-24.8109188079834,16.513343811035156,-27.334068298339844
1,1817437,-29.66046714782715,-57.36266326904297,-38.448551177978516,10.39523696899414
1,1817440,16.10799217224121,65.3145980834961,36.15828323364258,22.713937759399414
1,1817441,39.16814041137695,49.69288635253906,26.991161346435547,-40.973331451416016
1,1817444,-19.101242065429688,-62.13298034667969,-54.599403381347656,-6.509085655212402
1,1817445,-9.888703346252441,37.33326721191406,101.23597717285156,5.115668773651123
1,1817448,33.815704345703125,16.03343963623047,108.32237243652344,13.123722076416016
1,1817449,-1.888965129852295,-39.055599212646484,-87.2568359375,46.005859375
1,1817452,-42.92485046386719,18.611421585083008,-109.15416717529297,-21.10667610168457
1,1817453,-11.114248275756836,-18.50699806213379,-3.0284793376922607,-33.01905059814453
1,1817456,9.144660949707031,-16.701839447021484,10.781631469726562,15.515259742736816
1,1817457,33.64101028442383,10.374859809875488,-13.251679420471191,24.293888092041016
1,1817460,8.662074089050293,19.01653289794922,64.5473403930664,3.066629409790039
1,1817461,-34.041770935058594,19.842899322509766,-11.850359916687012,-23.165252685546875
1,1817464,1.6981531381607056,-41.61137771606445,-64.12268829345703,-13.525602340698242
1,1817465,39.826744079589844,-0.5906386375427246,107.73910522460938,26.10013198852539
1,1817468,-5.312399864196777,30.709491729736328,88.46370697021484,5.002885818481445
1,1817469,-38.258975982666016,-8.141801834106445,-67.91385650634766,-17.8582820892334
1,1817472,-7.822865009307861,-20.583110809326172,-114.09164428710938,-6.862635612487793
1,1817473,6.397968769073486,-22.164255142211914,-24.738149642944336,-14.883394241333008
1,1817476,14.041788101196289,25.489938735961914,57.222694396972656,10.135919570922852
1,1817477,2.4946844577789307,14.092405319213867,8.162359237670898,15.199419021606445
1,1817480,-10.209595680236816,5.681143760681152,25.146902084350586,8.104254722595215
1,1817481,-28.66924285888672,-1.4692847728729248,-30.636720657348633,-12.831873893737793
1,1817484,-0.48357072472572327,-26.37638282775879,-68.10719299316406,-4.681577205657959
1,1817485,64.67695617675781,23.857200622558594,136.96217346191406,15.388021469116211
1,1817488,-5.037729740142822,1.2787295579910278,45.17668533325195,-10.586076736450195
1,1817489,-49.03136444091797,-23.901058197021484,-107.50605773925781,13.427347183227539
1,1817492,27.196971893310547,14.230081558227539,-9.445354461669922,-15.377545356750488
1,1817493,28.094024658203125,-2.4082798957824707,8.827693939208984,-8.982542991638184
1,1817496,-14.094868659973145,18.35641098022461,32.5539665222168,32.42804718017578
1,1817497,-3.7437567710876465,17.495508193969727,2.283947229385376,-3.9539036750793457
1,1817500,-5.285972595214844,-35.94995880126953,-12.80479621887207,-9.487800598144531
1,1817501,-41.44495391845703,-9.771615982055664,-40.99267578125,-5.121040344238281
1,1817504,20.699756622314453,22.691078186035156,-17.10865592956543,-9.38780689239502
1,1817505,51.29179000854492,-2.9774467945098877,117.88986206054688,-11.640846252441406
1,1817508,-34.488685607910156,-23.455984115600586,10.10708999633789,32.94618225097656
1,1817509,-36.15748596191406,5.322751522064209,-123.30654907226562,19.26109504699707
1,1817512,-4.481622219085693,-5.943031311035156,-60.868927001953125,-55.008670806884766
1,1817513,4.0073041915893555,-11.628227233886719,52.34910202026367,-10.176637649536133
1,1817516,43.06690216064453,30.043615341186523,66.16217803955078,35.66616439819336
1,1817517,45.801937103271484,21.42989158630371,-15.063652992248535,-8.30034351348877
1,1817520,-28.319849014282227,-21.95587921142578,25.18755531311035,-9.921806335449219
1,1817521,-53.712894439697266,-33.95127868652344,-21.581369400024414,-0.027400633320212364
1,1817524,21.508010864257812,24.389904022216797,-73.6385269165039,26.464435577392578
1,1817525,41.22291946411133,44.84409713745117,111.85250091552734,34.355709075927734
1,1817528,-35.04595184326172,-9.247568130493164,36.975032806396484,-39.27472686767578
1,1817529,-39.024009704589844,-19.038333892822266,-101.26473236083984,-30.52288246154785
1,1817532,13.05769157409668,-4.6706862449646,-36.35736846923828,6.818661212921143
1,1817533,3.236921787261963,-9.51305866241455,4.677793979644775,23.38353157043457
1,1817536,31.09910774230957,-0.12889471650123596,79.83968353271484,21.21572494506836
1,1817537,22.131473541259766,1.7856948375701904,19.001096725463867,4.523564338684082
1,1817540,-34.46004104614258,-8.041840553283691,-29.44197654724121,-19.192441940307617
1,1817541,-27.000463485717773,-21.288101196289062,-31.03299331665039,-43.54680252075195
1,1817544,-1.709760069847107,24.033935546875,-60.553897857666016,13.0643949508667
1,1817545,41.53693389892578,51.44035339355469,77.44828796386719,20.32435417175293
1,1817548,14.416570663452148,-22.02703094482422,78.92633056640625,3.858747959136963
1,1817549,-17.410749435424805,-7.941990375518799,-71.44248962402344,16.566293716430664
1,1817552,-10.72169303894043,-9.02638053894043,-84.42072296142578,-21.26447868347168
1,1817553,-4.371546745300293,-26.3411808013916,33.04255676269531,-5.735722064971924
1,1817556,10.702017784118652,22.329437255859375,91.97114562988281,3.524327278137207
1,1817557,-4.270766735076904,10.96713638305664,26.499862670898438,-21.229726791381836
1,1817560,0.6291648149490356,4.568261623382568,-24.199377059936523,18.13265037536621
1,1817561,-14.260453224182129,-23.396997451782227,-94.17996215820312,28.460033416748047
1,1817564,23.650785446166992,14.186452865600586,5.872923851013184,-6.072897434234619
1,1817565,51.509586334228516,35.254127502441406,122.96391296386719,-17.686758041381836
1,1817568,-48.222930908203125,-50.206321716308594,-60.39577102661133,-1.357579231262207
1,1817569,-47.6009407043457,-37.5376091003418,-91.77152252197266,11.09870433807373
1,1817572,18.920127868652344,10.487543106079102,-19.312469482421875,-9.425735473632812
1,1817573,11.03105640411377,23.977893829345703,7.690630912780762,-30.180683135986328
1,1817576,13.844160079956055,28.691213607788086,99.5366439819336,10.223438262939453
1,1817577,5.495485782623291,5.55131721496582,3.1603825092315674,31.071659088134766
1,1817580,-19.163930892944336,-10.527030944824219,-30.415983200073242,-17.75189971923828
1,1817583,-18.607200622558594,-29.865076065063477,-15.095029830932617,16.437223434448242
1,1817584,-0.2366265058517456,-14.494303703308105,-58.83562469482422,12.58633041381836
1,1817585,33.187931060791016,59.67599105834961,108.27899932861328,-58.23243713378906
1,1817588,1.1959093809127808,17.911109924316406,78.16333770751953,13.12130069732666
1,1817589,-24.614532470703125,-37.546356201171875,-93.04619598388672,32.484161376953125
1,1817592,1.893409252166748,-2.6764931678771973,-67.00252532958984,-10.263385772705078
1,1817593,26.338134765625,0.49512404203414917,18.96128273010254,5.661268711090088
1,1817596,28.313364028930664,-1.7201502323150635,91.23326110839844,-6.521953105926514
1,1817597,-40.643985748291016,-6.033463001251221,-6.941867828369141,9.054986000061035
1,1817600,-25.558229446411133,-11.610222816467285,-82.69625854492188,4.9035139083862305
1,1817601,11.32414436340332,-1.8642020225524902,-42.57861328125,-25.43362045288086
1,1817604,3.2079014778137207,10.042628288269043,10.685440063476562,-1.4967536926269531
1,1817605,29.168668746948242,14.106587409973145,99.00542449951172,18.091121673583984
1,1817608,-2.421219825744629,8.88630485534668,35.606353759765625,2.7674694061279297
1,1817609,-15.395957946777344,3.044268846511841,-57.97746658325195,-4.78794527053833
1,1817612,-9.088766098022461,-9.125462532043457,-37.3937873840332,16.123348236083984
1,1817613,5.405345916748047,0.3636799454689026,25.116477966308594,-3.197199821472168
1,1817616,18.672536849975586,-17.311616897583008,36.35654830932617,-27.863012313842773
1,1817617,-18.87838363647461,-16.558204650878906,-21.581256866455078,17.526281356811523
1,1817620,-22.487520217895508,35.854286193847656,3.726850748062134,9.595196723937988
1,1817621,-3.0935330390930176,12.574422836303711,-48.030128479003906,-24.787960052490234
1,1817624,34.34104537963867,-25.80453109741211,-54.57701873779297,-0.9568917155265808
1,1817625,48.07339859008789,-10.180130004882812,122.12103271484375,10.723730087280273
1,1817628,-34.28759765625,9.812851905822754,38.01079559326172,-0.31236523389816284
1,1817629,-67.66272735595703,-1.955964207649231,-109.34309387207031,-10.399824142456055
1,1817632,21.36548614501953,-33.19967269897461,-20.069456100463867,18.735097885131836
1,1817633,56.83094787597656,9.379029273986816,40.837459564208984,28.972461700439453
1,1817636,-17.326677322387695,57.83356475830078,40.03554153442383,-31.367996215820312
1,1817637,-43.03162384033203,-5.467390537261963,-2.5016093254089355,-49.21139907836914
1,1817640,29.213634490966797,-32.174949645996094,-10.073986053466797,15.814623832702637
1,1817641,8.17202091217041,6.55886697769165,-28.310165405273438,32.75836181640625
1,1817644,-40.898773193359375,-14.69389820098877,-36.125083923339844,10.375133514404297
1,1817645,36.374019622802734,9.080891609191895,75.36373138427734,-7.278993129730225
1,1817648,16.782943725585938,29.607099533081055,12.162598609924316,-13.358939170837402
1,1817649,-26.730052947998047,-3.122714042663574,-68.73965454101562,8.318879127502441
1,1817652,1.4203649759292603,-13.91071605682373,-10.668937683105469,4.760955333709717
1,1817653,-0.511552095413208,-11.944382667541504,40.2646369934082,6.535702705383301
1,1817656,20.383243560791016,21.916866302490234,22.751567840576172,-5.754237651824951
1,1817657,3.4520249366760254,-7.049400806427002,-53.539512634277344,-29.587045669555664
1,1817660,-24.300872802734375,-24.225812911987305,16.59937286376953,9.794309616088867
1,1817661,-11.426406860351562,-18.40888786315918,-11.71932315826416,26.56856346130371
1,1817664,21.84360694885254,4.007357597351074,-53.84846115112305,9.329751968383789
1,1817665,33.664756774902344,58.48480224609375,119.64948272705078,9.397815704345703
1,1817668,-27.512632369995117,-0.2666308879852295,98.58216094970703,-35.374637603759766
1,1817669,-57.0875129699707,-38.5716438293457,-73.08271026611328,-26.815261840820312
1,1817672,19.05447006225586,2.8063833713531494,-156.47689819335938,4.820767402648926
1,1817673,46.893043518066406,9.786556243896484,-20.525161743164062,-6.688775062561035
1,1817676,1.143053412437439,4.988496780395508,135.81732177734375,17.61307716369629
1,1817677,5.097902297973633,-29.42389488220215,22.644882202148438,25.289440155029297
1,1817680,-17.097856521606445,-13.797737121582031,-11.279093742370605,3.686159610748291
1,1817681,-43.427886962890625,40.84836196899414,-21.526992797851562,-21.223745346069336
1,1817685,15.10672664642334,29.11937713623047,-35.93750762939453,-9.655981063842773
1,1817686,32.519676208496094,-16.74709129333496,29.562564849853516,26.90172576904297
1,1817687,-6.425661087036133,-50.36372756958008,0.17107097804546356,1.9327335357666016
1,1817690,-11.625536918640137,10.59726619720459,-50.1287841796875,-17.60304069519043
1,1817691,-5.974260330200195,15.60735034942627,-27.709314346313477,4.215083599090576
1,1817694,14.22025203704834,3.1297900676727295,94.31088256835938,9.736382484436035
1,1817695,-4.993611812591553,44.23855972290039,54.60787582397461,-1.1058531999588013
1,1817698,-10.929605484008789,-3.487060785293579,-38.181541442871094,-13.199701309204102
1,1817699,12.921027183532715,-21.493122100830078,-10.60483455657959,11.581345558166504
1,1817702,-33.554039001464844,-23.869365692138672,-61.394962310791016,-12.676012992858887
1,1817703,-10.28149700164795,-47.17013168334961,-97.5217514038086,-26.554615020751953
1,1817706,45.56305694580078,24.42250633239746,145.7224578857422,31.21546745300293
1,1817707,15.64001178741455,45.61375427246094,138.73614501953125,12.162435531616211
1,1817710,-18.306354522705078,-19.226707458496094,-225.00660705566406,-4.107242107391357
1,1817711,5.340940475463867,2.4582159519195557,-83.41565704345703,-10.486589431762695
1,1817714,27.89691925048828,22.179828643798828,152.49270629882812,-13.874665260314941
1,1817715,-19.01881980895996,-3.1919925212860107,51.245079040527344,38.718711853027344
1,1817718,-19.577896118164062,1.2072051763534546,48.67740249633789,-3.2441725730895996
1,1817719,13.483516693115234,-15.913824081420898,14.182391166687012,-61.786102294921875
1,1817722,-24.602724075317383,-16.3165340423584,-193.46145629882812,17.151657104492188
1,1817723,0.04196791723370552,15.944330215454102,-158.45315551757812,54.927764892578125
1,1817726,62.822391510009766,20.773366928100586,187.09017944335938,-4.721080780029297
1,1817727,-4.30925989151001,-9.950207710266113,171.30624389648438,-18.77805519104004
1,1817730,-62.50148010253906,-52.14347457885742,-127.36800384521484,8.155275344848633
1,1817731,2.2174248695373535,3.168943405151367,-28.415822982788086,-5.48890495300293
1,1817734,28.216632843017578,67.8788833618164,76.94709014892578,-24.056684494018555
1,1817735,-1.0083781480789185,0.7432061433792114,-17.535680770874023,5.113353729248047
1,1817738,-8.233530044555664,-45.373172760009766,-12.860565185546875,7.687830924987793
1,1817739,-0.4651581645011902,8.996207237243652,-6.85342264175415,17.200185775756836
1,1817742,-10.348079681396484,7.459104061126709,69.55658721923828,9.600958824157715
1,1817743,-32.51334762573242,-29.89592170715332,46.13591384887695,-49.956363677978516
1,1817746,7.5134358406066895,30.811420440673828,-85.51608276367188,-5.759396553039551
1,1817747,27.460342407226562,32.92198944091797,-77.943115234375,38.9407958984375
1,1817750,3.1048059463500977,-48.4134407043457,-102.18775939941406,-11.709476470947266
1,1817751,10.237099647521973,-36.54181671142578,-2.8529911041259766,-7.835582733154297
1,1817754,10.72940731048584,11.234674453735352,141.48562622070312,29.410253524780273
1,1817755,19.13514518737793,34.9447135925293,53.680999755859375,16.80425453186035
1,1817758,18.63995361328125,37.146385192871094,21.602815628051758,8.260594367980957
1,1817759,-25.908449172973633,-11.698813438415527,-19.834938049316406,-25.44704818725586
1,1817762,-62.13858413696289,-37.96965026855469,-109.62620544433594,-26.95623207092285
1,1817763,-24.895774841308594,-5.2275309562683105,-41.60963439941406,17.290834426879883
1,1817766,50.70514678955078,14.54847526550293,154.6890106201172,-22.341869354248047
1,1817767,18.8240966796875,13.636075019836426,161.0692596435547,-24.20293617248535
1,1817770,-52.8681640625,-8.461681365966797,-176.65525817871094,17.449064254760742
1,1817771,2.3323919773101807,3.4444591999053955,-148.70468139648438,5.123004913330078
1,1817774,41.05109786987305,9.787456512451172,88.86711883544922,23.6197509765625
1,1817775,9.830106735229492,-23.831592559814453,23.78880500793457,19.23328971862793
1,1817778,31.604394912719727,19.248502731323242,8.14987850189209,-20.280302047729492
1,1817779,-3.450927734375,7.278000831604004,7.396271228790283,7.342926979064941
1,1817782,-43.08766174316406,-24.518985748291016,-28.261945724487305,-4.964949131011963
1,1817783,4.841301918029785,13.29831600189209,-39.744667053222656,-22.21766471862793
1,1817786,19.42389488220215,10.543529510498047,42.58192443847656,5.064401626586914
1,1817787,4.624475955963135,11.811627388000488,119.41502380371094,4.920635223388672
1,1817790,-32.228965759277344,-25.02859878540039,-118.20077514648438,11.40804386138916
1,1817791,-14.045470237731934,-15.494227409362793,-114.63394165039062,-8.31353759765625
1,1817794,32.68345260620117,27.318458557128906,127.87299346923828,-0.4527142643928528
1,1817795,-20.109798431396484,-39.390724182128906,32.55466079711914,-4.4297637939453125
1,1817798,1.4391825199127197,16.921283721923828,-9.674483299255371,-3.767263889312744
1,1817800,30.131412506103516,56.56596755981445,2.7796013355255127,35.37089920043945
1,1817802,-33.18760299682617,-46.928707122802734,-73.13085174560547,-23.691818237304688
1,1817804,-26.17555046081543,-25.679607391357422,-10.265164375305176,-16.99854850769043
1,1817806,17.6342830657959,20.86695098876953,121.24098205566406,18.421764373779297
1,1817808,25.442398071289062,-5.210997581481934,67.91622924804688,-8.623750686645508
1,1817810,-7.197303771972656,-25.173418045043945,-169.85081481933594,9.717820167541504
1,1817812,-24.772151947021484,-26.70941925048828,-66.52420806884766,31.179750442504883
1,1817814,37.07081985473633,36.06382369995117,90.71369934082031,-9.988428115844727
1,1817816,31.261159896850586,64.121826171875,-66.95372009277344,-40.56629180908203
1,1817818,-26.189945220947266,-2.1981077194213867,11.467009544372559,-2.3591883182525635
1,1817820,-13.146197319030762,-34.795921325683594,83.69319915771484,7.810874938964844
1,1817822,-7.683992862701416,-10.262358665466309,-51.743080139160156,-1.2295550107955933
1,1817824,17.224443435668945,19.335655212402344,-13.578683853149414,6.689138412475586
1,1817826,21.01238250732422,9.02778434753418,135.72117614746094,21.302806854248047
1,1817828,-33.07170486450195,-13.929255485534668,86.67603302001953,1.1579920053482056
1,1817830,-38.1927375793457,-14.031549453735352,-201.46043395996094,-25.53127670288086
1,1817832,15.357582092285156,5.9598846435546875,-111.1955337524414,-28.147315979003906
1,1817834,8.249893188476562,5.514310836791992,161.57899475097656,-6.619786262512207
1,1817836,-16.892845153808594,-22.152175903320312,38.6197395324707,24.849441528320312
1,1817838,42.36418533325195,12.948173522949219,3.0823285579681396,23.904268264770508
1,1817840,30.59843635559082,28.16448974609375,10.891663551330566,28.20403480529785
1,1817842,-65.47357940673828,-67.95123291015625,-148.2506561279297,-30.294740676879883
1,1817844,-8.467306137084961,-25.009244918823242,-68.00775909423828,-38.07563400268555
1,1817846,98.52155303955078,114.24140167236328,187.37644958496094,58.365543365478516
1,1817848,-4.172369003295898,43.01816940307617,118.37957763671875,32.52910232543945
1,1817850,-114.6721420288086,-87.10897827148438,-195.58181762695312,-70.8590087890625
1,1817852,-6.719979286193848,-31.03882598876953,-129.39356994628906,-25.617860794067383
1,1817854,73.69229125976562,31.891151428222656,139.7716827392578,68.040771484375
1,1817856,-5.24842643737793,-4.954773426055908,95.45265197753906,8.48987102508545
1,1817858,-31.59092903137207,-15.276020050048828,-37.58857345581055,-47.53270721435547
1,1817860,24.1049747467041,22.077049255371094,-54.56052017211914,-19.138669967651367
1,1817862,10.143120765686035,14.527226448059082,-72.36455535888672,40.052696228027344
1,1817864,-25.022916793823242,-40.29485321044922,-25.23869514465332,24.067764282226562
1,1817866,32.68710708618164,26.984893798828125,143.74266052246094,-36.30971145629883
1,1817868,12.96895980834961,32.09943389892578,96.19195556640625,-19.476680755615234
1,1817870,-45.090049743652344,-52.16575241088867,-141.64071655273438,18.182693481445312
1,1817872,-2.392124652862549,-1.077682614326477,-30.93299674987793,12.150091171264648
1,1817874,10.42128849029541,35.370052337646484,121.89661407470703,-28.730880737304688
1,1817876,-20.091157913208008,5.064067840576172,4.867593765258789,-12.375226020812988
1,1817878,-5.611708641052246,-8.48299789428711,-54.84653091430664,27.356184005737305
1,1817880,36.943695068359375,-0.5386967658996582,-68.94959259033203,31.656566619873047
1,1817882,-7.0196332931518555,-22.888755798339844,-76.83172607421875,-10.353556632995605
1,1817884,-7.157206058502197,-21.689165115356445,1.2699549198150635,-13.329157829284668
1,1817886,60.87351608276367,39.0828857421875,182.5916290283203,7.421589374542236
1,1817888,-19.71258544921875,9.339690208435059,109.38936614990234,-28.400346755981445
1,1817890,-69.42156982421875,-38.20779800415039,-205.7017822265625,-10.681419372558594
1,1817892,12.398427963256836,15.414665222167969,-78.9483871459961,52.76289367675781
1,1817894,25.026182174682617,34.118125915527344,134.42510986328125,4.802697658538818
1,1817896,9.91433048248291,-27.731292724609375,6.921680450439453,-70.79167938232422
1,1817898,14.838114738464355,-11.422147750854492,11.601532936096191,25.097776412963867
1,1817900,-22.144487380981445,5.985025405883789,18.5893497467041,45.091861724853516
1,1817902,-42.712486267089844,-35.3270149230957,-107.9032211303711,-21.912944793701172
1,1817904,1.7041876316070557,16.036149978637695,-43.95103073120117,-9.797706604003906
1,1817906,31.446908950805664,34.94053649902344,128.06051635742188,-18.378734588623047
1,1817908,13.847543716430664,-12.384025573730469,73.34447479248047,6.367073059082031
1,1817910,3.3848114013671875,-10.52907943725586,-177.0123291015625,37.428279876708984
1,1817912,10.432806968688965,22.152950286865234,-78.49862670898438,20.954160690307617
1,1817914,6.137973308563232,13.769042015075684,134.87071228027344,-29.283679962158203
1,1817916,-38.57426071166992,-29.395240783691406,43.57738494873047,-30.776525497436523
1,1817918,1.1366442441940308,7.018056392669678,46.972599029541016,9.152554512023926
1,1817920,27.41015625,1.9107296466827393,-5.606873035430908,0.9343549609184265
1,1817922,-48.780277252197266,-28.65281867980957,-128.50106811523438,-9.024251937866211
1,1817924,5.847133159637451,21.798736572265625,-8.310344696044922,0.9528166651725769
1,1817925,71.48797607421875,17.89299964904785,126.7635498046875,6.261663913726807
1,1817928,-20.095670700073242,-23.703718185424805,48.39961624145508,8.54776668548584
1,1817929,-62.99467468261719,1.1952764987945557,-113.86416625976562,19.092500686645508
1,1817932,7.537720203399658,23.686002731323242,-94.59754943847656,-5.213149547576904
1,1817933,15.077203750610352,-14.003928184509277,28.215593338012695,-37.33720016479492
1,1817935,-5.997169017791748,-10.94633960723877,70.33253479003906,7.500144004821777
1,1817938,41.034889221191406,16.817426681518555,58.90093231201172,36.97758102416992
1,1817939,-2.6514317989349365,-0.527794361114502,-14.006546974182129,-18.078142166137695
1,1817942,-50.07577896118164,-19.995920181274414,-118.92605590820312,-11.265509605407715
1,1817943,19.132644653320312,-0.4411967992782593,-35.691505432128906,18.05171012878418
1,1817946,24.749221801757812,24.96576690673828,154.00120544433594,-11.889298439025879
1,1817947,9.515213012695312,6.650521278381348,76.32592010498047,-2.516505241394043
1,1817950,-6.653961658477783,-30.999494552612305,-183.10549926757812,14.255254745483398
1,1817951,-26.2025146484375,-6.50875186920166,-44.85124588012695,-9.726993560791016
1,1817954,-6.35048770904541,21.844615936279297,159.6065673828125,-12.817797660827637
1,1817955,-3.1752748489379883,-23.424577713012695,19.025609970092773,-1.505441665649414
1,1817958,7.085637092590332,8.203839302062988,-3.8474645614624023,16.558473587036133
1,1817959,-3.651447296142578,22.148880004882812,-60.5843505859375,44.9549560546875
1,1817962,-10.332385063171387,-16.851919174194336,-141.3343505859375,-13.06755256652832
1,1817963,44.134979248046875,36.395050048828125,28.664304733276367,-29.429460525512695
1,1817966,49.87226867675781,27.327905654907227,197.4438018798828,16.87508201599121
1,1817967,-18.32237434387207,-46.322227478027344,64.33740997314453,-20.86458969116211
1,1817970,-58.27842712402344,-74.49246215820312,-220.4232177734375,-26.876813888549805
1,1817971,-11.318872451782227,-4.8462395668029785,-65.16490173339844,2.463522434234619
1,1817974,18.08061408996582,74.31602478027344,157.0881805419922,28.000455856323242
1,1817975,2.7034385204315186,16.4714412689209,-9.138837814331055,22.411907196044922
1,1817978,21.076900482177734,2.2864480018615723,-30.977569580078125,-22.878787994384766
1,1817979,-32.54901123046875,-4.501190662384033,39.67768859863281,-36.50809860229492
1,1817982,-28.528152465820312,-60.293033599853516,-52.802242279052734,5.28209924697876
1,1817983,32.21100616455078,10.460451126098633,-9.796552658081055,31.6451473236084
1,1817986,3.889843225479126,78.89543151855469,126.83299255371094,-27.13243865966797
1,1817987,-10.832917213439941,-11.966444969177246,4.3061137199401855,-35.544334411621094
1,1817990,-27.34056854248047,-63.50440979003906,-218.5685577392578,63.9229736328125
1,1817991,41.067073822021484,15.399870872497559,-69.91249084472656,58.3953742980957
1,1817994,88.3482894897461,20.32552146911621,182.86680603027344,-33.391319274902344
1,1817995,-22.984031677246094,3.881497383117676,105.3174819946289,-13.265029907226562
1,1817998,-69.05730438232422,20.660268783569336,-6.016298294067383,-32.06211853027344
1,1817999,-31.439559936523438,-28.466510772705078,-54.103763580322266,-37.955196380615234
1,1818002,-8.93754768371582,-60.51986312866211,-99.85277557373047,30.35265350341797
1,1818003,22.53759002685547,15.446151733398438,-5.84593391418457,22.193483352661133
1,1818006,39.12715148925781,55.89097213745117,107.1622543334961,30.010889053344727
1,1818007,-18.917543411254883,-16.104473114013672,26.22286605834961,-1.8155022859573364
1,1818010,-39.947288513183594,-24.342086791992188,-137.96807861328125,-42.70299530029297
1,1818011,27.970401763916016,28.20589828491211,-2.6603872776031494,23.011198043823242
1,1818014,14.804713249206543,13.665016174316406,139.2015838623047,-2.7825236320495605
1,1818015,-4.703038692474365,-19.885839462280273,7.613399505615234,-31.046772003173828
1,1818018,36.03275680541992,-11.59543228149414,-42.33235168457031,41.78549575805664
1,1818019,1.7641685009002686,9.672384262084961,-35.539947509765625,18.30146598815918
1,1818022,-56.02488327026367,19.908851623535156,-84.32429504394531,-38.397552490234375
1,1818023,3.839038372039795,9.937209129333496,5.03169059753418,-8.95628833770752
1,1818026,48.381378173828125,-13.28437614440918,169.87522888183594,27.511404037475586
1,1818027,-33.699127197265625,-12.836905479431152,47.40639877319336,5.221499919891357
1,1818030,-15.533111572265625,-7.078288555145264,-175.21507263183594,-15.588506698608398
1,1818031,28.045734405517578,-7.33773136138916,-32.408912658691406,-19.63104820251465
1,1818034,-31.34161949157715,0.24141310155391693,129.29873657226562,-4.741957664489746
1,1818035,-1.7907521724700928,34.554298400878906,19.307939529418945,17.534053802490234
1,1818038,50.47587203979492,19.67409324645996,-61.459815979003906,-15.446154594421387
1,1818039,-12.101819038391113,-42.60987854003906,-47.66677474975586,-2.3518640995025635
1,1818042,-24.57020378112793,-26.1547794342041,-48.2692985534668,41.945045471191406
1,1818044,27.595121383666992,8.002629280090332,-3.198493003845215,10.389724731445312
1,1818046,28.46337127685547,14.15920352935791,138.69479370117188,-35.35414505004883
1,1818048,-11.292074203491211,31.009000778198242,76.96524810791016,-20.478839874267578
1,1818050,-75.06070709228516,-23.205913543701172,-165.2222900390625,23.300355911254883
1,1818052,-16.80542755126953,-31.392465591430664,-64.84251403808594,7.087653160095215
1,1818054,61.1363639831543,44.2856330871582,123.6425552368164,-14.849157333374023
1,1818056,0.8506930470466614,-6.49051570892334,9.90678596496582,14.227846145629883
1,1818057,-16.583694458007812,-34.193870544433594,-22.887908935546875,28.56208038330078
1,1818060,0.2826322913169861,29.00374412536621,27.863727569580078,-16.35640525817871
1,1818061,-16.001174926757812,9.551230430603027,-59.70804977416992,-36.03652572631836
1,1818064,18.728675842285156,-26.145782470703125,-46.208194732666016,-7.695199966430664
1,1818065,54.567039489746094,35.14174270629883,133.71810913085938,19.059484481811523
1,1818068,-14.256406784057617,-1.6125367879867554,42.39412307739258,26.465564727783203
1,1818069,-43.31850814819336,-35.8231201171875,-137.9095916748047,-16.529258728027344
1,1818072,5.449779033660889,24.56434440612793,-22.395954132080078,-20.500715255737305
1,1818073,2.8835155963897705,-7.24943208694458,92.82293701171875,4.859043121337891
1,1818076,17.97281265258789,-7.161505699157715,20.559324264526367,0.9333464503288269
1,1818077,22.752504348754883,29.684158325195312,-84.3696517944336,4.133015155792236
1,1818080,-45.55488204956055,-18.99329376220703,-23.133567810058594,4.030395984649658
1,1818081,-35.09711837768555,-68.73298645019531,-41.071109771728516,21.376707077026367
1,1818085,49.403564453125,41.98351287841797,91.98226928710938,10.080820083618164
1,1818085,30.5764102935791,87.06782531738281,190.87245178222656,-22.376375198364258
1,1818088,-38.06635284423828,-40.12886047363281,-171.0064697265625,-15.747044563293457
1,1818089,-33.07591247558594,-61.589202880859375,-156.87796020507812,9.62794303894043
1,1818092,10.386154174804688,8.314483642578125,89.16984558105469,8.160736083984375
1,1818093,29.83319091796875,38.510520935058594,87.61016845703125,-25.55368423461914
1,1818096,6.707833766937256,-3.7705180644989014,11.812857627868652,0.5408993363380432
1,1818097,-18.25104331970215,-4.7376580238342285,-50.771915435791016,39.720191955566406
1,1818100,-17.239458084106445,11.649323463439941,-0.48569974303245544,1.4684783220291138
1,1818101,3.4032349586486816,-42.59309768676758,-46.78704071044922,-31.38918685913086
1,1818104,30.831811904907227,18.237728118896484,0.6152876615524292,-6.578145503997803
1,1818105,29.76253318786621,58.730567932128906,138.79306030273438,7.087080955505371
1,1818108,-24.912628173828125,-38.97692108154297,-50.4548454284668,1.191938042640686
1,1818109,-45.69196319580078,-24.950910568237305,-145.1907196044922,-4.2038798332214355
1,1818112,25.60687255859375,26.70212173461914,36.99932861328125,18.57297706604004
1,1818113,35.32301330566406,-19.33378791809082,89.80376434326172,30.771984100341797
1,1818116,-17.28050994873047,4.093385696411133,26.195863723754883,-43.92021942138672
1,1818117,-18.54277992248535,30.4366455078125,-31.489593505859375,-23.725107192993164
1,1818120,-14.432926177978516,-26.35825538635254,-19.61646842956543,26.058334350585938
1,1818121,-18.630290985107422,-3.6130480766296387,-57.70376205444336,7.340150833129883
1,1818124,22.79084587097168,21.055702209472656,19.8983097076416,9.928339958190918
1,1818125,47.159095764160156,13.577012062072754,161.4724578857422,-27.60572624206543
1,1818128,-31.060688018798828,-11.798481941223145,-93.93631744384766,13.369063377380371
1,1818129,-46.21017837524414,-37.774837493896484,-155.09414672851562,18.955787658691406
1,1818132,27.03377914428711,16.33129119873047,71.94884490966797,-13.010787010192871
1,1818133,32.19140625,1.5688738822937012,64.53934478759766,17.229013442993164
1,1818136,23.75958824157715,-18.210235595703125,44.642032623291016,-6.203838348388672
1,1818137,-11.005714416503906,27.22620391845703,-7.758046627044678,-20.671642303466797
1,1818140,-33.77997589111328,10.189095497131348,-56.71982192993164,-33.43869400024414
1,1818141,-2.729404926300049,-45.24650955200195,-52.87523651123047,1.8215099573135376
1,1818144,11.869863510131836,-19.838420867919922,34.39638137817383,40.95158004760742
1,1818145,34.147132873535156,40.492042541503906,132.3380889892578,-2.7978515625
1,1818148,-15.3255615234375,12.050616264343262,-88.96278381347656,7.948981285095215
1,1818149,-56.533905029296875,4.771848678588867,-112.18985748291016,16.347274780273438
1,1818152,28.764970779418945,14.328876495361328,72.24961853027344,-28.52059555053711
1,1818153,37.060943603515625,-14.177103996276855,39.01739501953125,0.15757109224796295
1,1818156,-36.87204360961914,-12.649867057800293,29.004283905029297,-0.12154485285282135
1,1818157,-24.717845916748047,6.35230827331543,14.57798957824707,-26.467994689941406
1,1818160,15.644315719604492,-15.556450843811035,-59.302467346191406,17.693132400512695
1,1818161,9.38810920715332,-40.87104034423828,-110.31593322753906,24.190065383911133
1,1818164,28.389806747436523,70.39639282226562,61.620018005371094,-2.3746776580810547
1,1818165,31.156904220581055,56.94099807739258,172.89907836914062,-26.028173446655273
1,1818168,-65.82014465332031,-109.8031005859375,-109.3884048461914,-24.918437957763672
1,1818169,-51.03084182739258,-24.101215362548828,-106.3622817993164,35.91026306152344
1,1818172,47.771705627441406,68.31231689453125,67.4700927734375,18.43022346496582
1,1818173,35.86677551269531,10.833373069763184,37.57561111450195,-24.59413719177246
1,1818176,3.69895339012146,14.78664493560791,24.033681869506836,11.049381256103516
1,1818177,-16.33887481689453,-28.895263671875,-8.657414436340332,-7.778452396392822
1,1818180,-7.798198699951172,-30.553119659423828,-6.635256767272949,-12.818462371826172
1,1818181,-15.91370677947998,37.12042236328125,-72.62670135498047,42.27399444580078
1,1818184,7.766270637512207,-5.261165142059326,4.89165735244751,20.64356231689453
1,1818185,42.34324264526367,5.1338114738464355,134.07618713378906,-42.05171203613281
1,1818188,-35.02935791015625,3.130265474319458,-67.87503051757812,-26.18454360961914
1,1818189,-44.87499237060547,-40.08391189575195,-105.29377746582031,16.13612937927246
1,1818192,13.902202606201172,-1.396311640739441,29.491933822631836,7.715761661529541
1,1818193,53.13813400268555,30.761795043945312,62.74701690673828,-0.1575659215450287
1,1818196,11.064399719238281,13.803102493286133,45.346683502197266,7.946683406829834
1,1818197,-55.85256576538086,-7.724535942077637,-36.9031867980957,1.0018757581710815
1,1818200,-5.059908866882324,-28.9146785736084,-26.08136558532715,-9.99068546295166
1,1818201,17.793298721313477,-34.65602493286133,-36.703155517578125,-9.192451477050781
1,1818204,22.95398712158203,59.39358139038086,24.101768493652344,7.045677185058594
1,1818205,33.05673599243164,67.99638366699219,127.48645782470703,11.975662231445312
1,1818208,-48.102779388427734,-66.0347671508789,-84.74311065673828,-5.8294196128845215
1,1818209,-39.54549789428711,-77.79398345947266,-123.86487579345703,-3.00836181640625
1,1818212,59.380958557128906,53.346431732177734,84.49934387207031,3.983719825744629
1,1818213,4.306080341339111,50.504791259765625,66.49105834960938,4.621270656585693
1,1818216,-14.433231353759766,-29.426725387573242,3.412766456604004,-0.6273950338363647
1,1818217,15.185383796691895,-19.789527893066406,-31.816734313964844,-22.517061233520508
1,1818220,-38.170108795166016,19.230714797973633,-36.91552734375,9.651470184326172
1,1818222,-13.90127182006836,21.4615478515625,-46.42640686035156,13.468836784362793
1,1818224,31.100610733032227,-17.04759407043457,36.501216888427734,-25.045860290527344
1,1818226,17.982009887695312,-8.983931541442871,128.13412475585938,5.5934553146362305
1,1818228,-43.69731140136719,-2.1776509284973145,-92.36270904541016,-10.378148078918457
1,1818230,-9.50745964050293,-7.818212509155273,-100.6773910522461,11.008576393127441
1,1818232,53.330997467041016,0.763031005859375,59.401519775390625,48.59712219238281
1,1818234,-4.117783546447754,3.761401653289795,30.141315460205078,-21.597810745239258
1,1818235,-11.239175796508789,11.364596366882324,30.063716888427734,-16.425973892211914
1,1818238,6.039860248565674,-0.9231652617454529,0.4524330198764801,8.284406661987305
1,1818239,-17.246475219726562,-1.3166983127593994,-23.63347625732422,-11.708691596984863
1,1818242,-12.003825187683105,-11.676634788513184,-53.24897003173828,-1.6954436302185059
1,1818243,0.9607119560241699,-22.663921356201172,-69.0380630493164,11.08329963684082
1,1818248,4.705885410308838,3.044949531555176,79.2564468383789,16.16023063659668
1,1818248,22.887523651123047,14.07972526550293,121.21324157714844,-9.133223533630371
1,1818249,3.5278501510620117,11.123801231384277,-37.99567794799805,-18.67444610595703
1,1818252,-10.66143798828125,28.925395965576172,-72.20787048339844,-21.786561965942383
1,1818253,21.525516510009766,27.06252098083496,52.75494384765625,-8.190890312194824
1,1818256,-8.415407180786133,-32.957969665527344,37.09251403808594,26.971128463745117
1,1818257,-22.480484008789062,-15.91756534576416,-45.69487380981445,-1.9912861585617065
1,1818260,-6.030519485473633,8.899012565612793,0.8764994144439697,-4.673335552215576
1,1818261,-23.797256469726562,-32.332115173339844,-51.228328704833984,21.891992568969727
1,1818264,32.407588958740234,22.357812881469727,27.473649978637695,20.247150421142578
1,1818265,67.56623077392578,47.816314697265625,143.4296112060547,-13.65661334991455
