Aktueller Finger,timestamp_ms,sensor_0,sensor_1,sensor_2,sensor_3
0,473789,-11.15887451171875,10.56418514251709,32.82959747314453,9.42941951751709
0,473794,6.9670939445495605,-48.81349563598633,-19.1519832611084,-36.452091217041016
0,473794,30.19780731201172,-4.533620834350586,13.474726676940918,-49.68489456176758
0,473795,-130.351806640625,55.64020538330078,-22.163978576660156,91.80531311035156
0,473798,5.782990455627441,-1.460607647895813,-16.16038703918457,1.4422186613082886
0,473799,150.63316345214844,-17.81073570251465,31.611927032470703,-54.02390670776367
0,473802,-39.25281524658203,0.8073290586471558,-22.191614151000977,41.491546630859375
0,473803,-88.12928771972656,-9.734345436096191,-3.7409701347351074,26.73248291015625
0,473806,15.913337707519531,20.321348190307617,7.606196403503418,13.214959144592285
0,473807,31.585947036743164,-1.9092715978622437,-23.998727798461914,24.675302505493164
0,473810,19.163185119628906,4.657918453216553,24.938507080078125,-49.68071746826172
0,473811,-25.60506820678711,-14.515262603759766,14.177544593811035,-26.967710494995117
0,473814,-25.48467445373535,-24.30860137939453,-27.231657028198242,31.058032989501953
0,473815,-30.972970962524414,47.81597137451172,6.401576995849609,21.975767135620117
0,473818,12.927982330322266,7.867614269256592,37.971641540527344,14.49255084991455
0,473819,128.6692352294922,-12.831738471984863,-1.519853949546814,14.7058687210083
0,473822,-29.566652297973633,17.601146697998047,-31.276729583740234,-97.0938949584961
0,473823,-120.77091217041016,-51.740997314453125,-9.037723541259766,-95.53421783447266
0,473826,40.389034271240234,-0.6976330280303955,15.020956993103027,134.27801513671875
0,473827,28.937358856201172,43.578887939453125,10.420276641845703,146.6164093017578
0,473830,11.224078178405762,-42.1295051574707,-6.338932037353516,-102.66658020019531
0,473831,29.433504104614258,10.212186813354492,-4.800966739654541,-181.9817352294922
0,473834,-47.571197509765625,35.07475280761719,-10.080622673034668,87.07217407226562
0,473835,-64.85685729980469,-14.968716621398926,3.9302518367767334,108.39102935791016
0,473838,51.39832305908203,-35.731815338134766,13.342175483703613,-84.01128387451172
0,473839,106.48114776611328,4.9710917472839355,8.521414756774902,-27.842060089111328
0,473842,-49.81476593017578,21.90888023376465,-19.48006820678711,53.60993576049805
0,473843,-109.05925750732422,-4.592069149017334,-17.175182342529297,37.19542694091797
0,473846,11.091894149780273,13.842143058776855,29.88526725769043,-16.108232498168945
0,473847,43.508514404296875,-5.1627702713012695,-2.799905776977539,-50.73281478881836
0,473850,24.408649444580078,-4.026139736175537,-6.689831733703613,-28.814002990722656
0,473851,0.3480038046836853,-13.708807945251465,6.736538410186768,18.05213165283203
0,473854,-9.12607479095459,-14.960376739501953,-3.483609676361084,29.930204391479492
0,473855,-29.532817840576172,31.0557861328125,-11.247536659240723,48.114105224609375
0,473858,2.2470884323120117,34.52725601196289,10.630207061767578,5.224173069000244
0,473859,121.33113098144531,19.066028594970703,44.939720153808594,-21.599658966064453
0,473862,-14.395668983459473,-59.610939025878906,-46.172210693359375,-16.816343307495117
0,473863,-121.78890228271484,-66.11129760742188,-40.54893112182617,34.362937927246094
0,473866,-8.08137321472168,59.78986358642578,44.40187072753906,-6.973889350891113
0,473867,52.19681167602539,39.87806701660156,9.617438316345215,-109.45427703857422
0,473870,43.43653106689453,-20.83370590209961,-23.14090347290039,83.96117401123047
0,473871,-15.159507751464844,15.804694175720215,17.59743309020996,81.9814453125
0,473874,-26.821308135986328,-22.934843063354492,14.749832153320312,-98.71245574951172
0,473875,-69.4241943359375,-21.35799217224121,-35.26569366455078,-62.23653793334961
0,473878,4.060747146606445,38.72812271118164,-4.32572603225708,21.95632553100586
0,473879,126.05118560791016,10.404325485229492,30.233673095703125,89.78043365478516
0,473882,-26.6425724029541,-41.11077880859375,-3.11624813079834,23.430858612060547
0,473883,-85.465087890625,-32.828914642333984,-32.69361114501953,-67.20500183105469
0,473886,-0.12215153127908707,49.537330627441406,14.65442180633545,-20.813241958618164
0,473887,24.305795669555664,28.513010025024414,12.12222957611084,28.69700813293457
0,473890,95.63099670410156,-45.32389450073242,7.143404006958008,-10.0963716506958
0,473891,3.8761160373687744,-3.878204822540283,23.86573600769043,-81.37619018554688
0,473894,-102.76256561279297,-8.165766716003418,-58.54731369018555,129.58761596679688
0,473895,-50.39827346801758,-47.958251953125,-33.573551177978516,74.55583953857422
0,473898,35.70528793334961,62.342559814453125,65.81103515625,-211.74130249023438
0,473899,103.68331909179688,68.02033996582031,16.665441513061523,12.39400863647461
0,473902,-34.11189270019531,-53.28780746459961,-31.467756271362305,91.91053771972656
0,473903,-84.59891510009766,-7.705578804016113,10.469111442565918,-24.863374710083008
0,473906,8.940272331237793,18.647117614746094,6.026550769805908,-28.253021240234375
0,473907,39.806976318359375,-7.5257487297058105,1.0395874977111816,-7.500978469848633
0,473910,31.926647186279297,-8.529107093811035,-30.52935218811035,29.64817237854004
0,473911,-12.056127548217773,4.614819526672363,-23.367252349853516,45.30343246459961
0,473914,1.1291923522949219,22.382633209228516,40.747276306152344,29.798147201538086
0,473915,-48.697242736816406,-13.659360885620117,-20.053924560546875,-78.7972412109375
0,473918,17.5831356048584,-12.178772926330566,21.35764503479004,-2.549255609512329
0,473919,126.32978820800781,-7.096246719360352,62.313053131103516,99.78019714355469
0,473922,-77.45330810546875,-7.699062824249268,-58.167057037353516,-104.7677230834961
0,473923,-117.7281723022461,23.005868911743164,-9.501090049743652,-42.216609954833984
0,473926,56.88739776611328,7.989786624908447,36.81000518798828,149.3770751953125
0,473927,70.77450561523438,-21.485445022583008,-26.033998489379883,-41.42788314819336
0,473930,-16.685585021972656,-4.700613021850586,-6.885261058807373,-17.39679527282715
0,473931,-32.04790115356445,-6.749935626983643,7.823699951171875,59.99457931518555
0,473934,14.342024803161621,12.103902816772461,-5.236969947814941,-118.97228240966797
0,473935,-78.10722351074219,27.545854568481445,-16.15326499938965,-37.668392181396484
0,473938,24.352304458618164,-29.62505531311035,8.962986946105957,96.5155258178711
0,473939,151.41514587402344,4.106780529022217,36.57682800292969,49.066383361816406
0,473942,-117.31134796142578,3.8080077171325684,-28.475419998168945,-31.57803726196289
0,473943,-93.5711898803711,-24.980104446411133,-40.502288818359375,-42.48052215576172
0,473946,96.99723815917969,31.916719436645508,17.266014099121094,-12.882858276367188
0,473947,35.00465774536133,-0.08467499911785126,28.98630142211914,-39.93583297729492
0,473950,34.52049255371094,-11.61726188659668,24.539613723754883,50.35083770751953
0,473951,-24.049638748168945,9.563302040100098,-37.916988372802734,99.94461822509766
0,473954,-61.83405303955078,-1.493147611618042,-22.187362670898438,-63.87177658081055
0,473955,-16.46626091003418,11.691500663757324,39.57115173339844,-90.33041381835938
0,473958,28.54600715637207,-19.658403396606445,-1.044458031654358,32.5696907043457
0,473959,87.82469177246094,-92.1044692993164,-55.89790344238281,46.02507781982422
0,473962,-71.41920471191406,29.54019546508789,4.441011905670166,-2.249619722366333
0,473963,-77.23111724853516,131.57933044433594,81.5316162109375,-0.4803173243999481
0,473966,73.17793273925781,-31.86026954650879,-28.828052520751953,-17.135208129882812
0,473967,-7.001410007476807,-43.76445007324219,-33.49260711669922,-19.024364471435547
0,473970,6.707952499389648,1.7981948852539062,46.95559310913086,14.221436500549316
0,473971,31.42374610900879,-3.1731698513031006,-17.703657150268555,-20.209033966064453
0,473974,-35.94565963745117,12.960881233215332,-40.40394592285156,23.780105590820312
0,473975,-67.3106918334961,-48.011802673339844,34.65037155151367,36.641998291015625
0,473978,35.434837341308594,34.357025146484375,8.508360862731934,-19.007112503051758
0,473979,115.7863540649414,65.09363555908203,-11.234124183654785,8.876805305480957
0,473982,-39.62242889404297,-60.93037414550781,15.317657470703125,-12.248808860778809
0,473983,-56.318946838378906,-7.955431938171387,1.8180359601974487,5.5947136878967285
0,473986,4.5295634269714355,48.84477996826172,16.6540584564209,23.88896369934082
0,473987,17.212392807006836,-15.79608154296875,-21.56037139892578,-49.51444625854492
0,473990,26.19849967956543,-18.890016555786133,-24.42890739440918,-29.908998489379883
0,473991,-32.729793548583984,24.508277893066406,-0.3404591381549835,-0.14810866117477417
0,473994,1.6316851377487183,-10.717005729675293,33.708824157714844,7.826011657714844
0,473995,-34.525997161865234,-53.63410186767578,9.951035499572754,38.973114013671875
0,473998,11.570575714111328,38.72120666503906,-49.71647262573242,23.195463180541992
0,473999,112.39429473876953,46.80017852783203,19.1627140045166,-36.290130615234375
0,474002,-106.86923217773438,-46.739749908447266,16.03217315673828,-23.97344970703125
0,474003,-80.99256896972656,-17.851652145385742,-61.73207092285156,20.999425888061523
0,474006,91.36368560791016,-26.27576446533203,-6.36529541015625,13.136063575744629
0,474007,-3.8718719482421875,-28.762638092041016,51.37161636352539,8.389646530151367
0,474010,28.804996490478516,89.2242202758789,43.71428298950195,-16.77472686767578
0,474012,47.691993713378906,38.96086883544922,-0.5348497629165649,20.671064376831055
0,474014,-50.5809326171875,-56.215782165527344,-62.22648620605469,31.60321807861328
0,474016,-56.870689392089844,24.503414154052734,12.176926612854004,-44.52869415283203
0,474018,53.24673080444336,30.359785079956055,48.633792877197266,-0.45363304018974304
0,474020,91.50376892089844,-55.386966705322266,-30.89641571044922,14.434720993041992
0,474275,-181.3555450439453,5.575797080993652,-18.721172332763672,-21.189876556396484
0,474276,-82.18997955322266,49.107200622558594,27.37766456604004,8.423805236816406
0,474279,275.57135009765625,-39.945037841796875,14.346814155578613,-8.305107116699219
0,474280,176.51475524902344,-4.695911884307861,11.683417320251465,3.4805972576141357
0,474283,-16.85032081604004,3.534763813018799,1.9445663690567017,44.31339645385742
0,474284,-193.87718200683594,-67.60855865478516,-72.82296752929688,-8.853779792785645
0,474287,-260.8100891113281,6.377127647399902,-50.84221649169922,-56.676063537597656
0,474288,-81.6528091430664,22.995119094848633,-1.4557842016220093,-2.9887208938598633
0,475111,52.34052276611328,-7.816863059997559,33.91325378417969,-13.625261306762695
0,475111,46.42983627319336,36.92497253417969,63.1767463684082,-9.978549003601074
0,475111,66.9786376953125,8.232060432434082,-13.728001594543457,68.85830688476562
0,475114,73.59330749511719,-10.637322425842285,-13.897672653198242,-69.36341857910156
0,475116,114.92327117919922,44.90419006347656,114.680908203125,70.01861572265625
0,475118,160.93905639648438,26.544479370117188,45.253875732421875,183.41665649414062
0,475120,-13.370960235595703,-52.463443756103516,-153.32530212402344,-191.5759735107422
0,475122,-203.923095703125,-47.453006744384766,-55.02086639404297,-97.85690307617188
0,475124,-152.68545532226562,-12.642186164855957,10.637225151062012,70.97733306884766
0,475126,-11.229636192321777,20.74400520324707,-16.630523681640625,-14.69468879699707
0,475128,-6.922111988067627,33.932674407958984,51.67802810668945,25.30112648010254
0,475130,-7.307844638824463,-24.020830154418945,-3.6053779125213623,8.659846305847168
0,475132,90.2679672241211,-28.583209991455078,-25.575559616088867,2.014401912689209
0,475134,80.69908905029297,33.05767059326172,21.9047908782959,-0.32255738973617554
0,475136,-3.542046308517456,23.462186813354492,11.59162712097168,-29.75023651123047
0,475138,97.20951080322266,-11.498712539672852,45.78779983520508,26.947900772094727
0,475140,104.36539459228516,10.968056678771973,11.701781272888184,34.03363800048828
0,475142,-171.1648406982422,-31.907445907592773,-80.82880401611328,-61.18873596191406
0,475144,-187.66522216796875,-32.662967681884766,-10.661107063293457,-14.29134464263916
0,475146,34.77825164794922,38.08181381225586,50.020774841308594,45.24834442138672
0,475148,30.815122604370117,19.62948226928711,-8.223931312561035,-6.710691452026367
0,475150,8.714234352111816,8.501011848449707,-3.400994062423706,-0.833155632019043
0,475152,47.396549224853516,-7.201743125915527,17.07304573059082,18.092132568359375
0,475154,18.400144577026367,-2.4111716747283936,-9.005364418029785,5.8499226570129395
0,475156,6.963870048522949,6.138652801513672,2.281254529953003,-4.141128063201904
0,475158,90.24712371826172,-12.519488334655762,24.25941276550293,-2.390209197998047
0,475160,68.1209716796875,27.874893188476562,12.104073524475098,4.966900825500488
0,475162,-174.10218811035156,-11.216757774353027,-30.274179458618164,-17.309146881103516
0,475164,-114.73639678955078,-19.3148193359375,-31.952497482299805,-9.890169143676758
0,475166,65.84696197509766,4.866883754730225,-0.1360625922679901,10.050033569335938
0,475168,3.438302516937256,-33.266685485839844,18.29192352294922,-21.5388126373291
0,475170,21.723901748657227,33.24289321899414,14.092790603637695,17.378976821899414
0,475172,58.347740173339844,33.86042022705078,-13.88604736328125,15.137989044189453
0,475174,-27.386390686035156,-48.856197357177734,-7.2567596435546875,-37.47581481933594
0,475176,-58.58582305908203,-22.585660934448242,4.386992454528809,0.3850616216659546
0,475178,88.16574096679688,22.78925132751465,10.76400089263916,48.667137145996094
0,475180,99.49028778076172,12.033073425292969,1.7774072885513306,31.929296493530273
0,475182,-127.69532775878906,-6.610641956329346,-27.713359832763672,-88.82947540283203
0,475184,-106.42788696289062,-4.3281474113464355,4.366973400115967,-42.31195068359375
0,475186,49.419925689697266,-5.501026153564453,40.70912551879883,77.12602233886719
0,475188,24.822872161865234,9.338674545288086,-15.043858528137207,11.98800277709961
0,475190,1.9195642471313477,4.25029182434082,-46.90553665161133,-31.086021423339844
0,475192,23.189817428588867,15.279285430908203,18.94907569885254,19.840662002563477
0,475194,0.3663446009159088,6.457274913787842,18.108863830566406,-9.014800071716309
0,475196,-19.64134407043457,-27.37997055053711,-27.84762191772461,47.61011505126953
0,475198,56.25285720825195,-9.261412620544434,49.08576202392578,14.113889694213867
0,475200,101.28508758544922,35.0487174987793,66.45647430419922,-122.23956298828125
0,475202,-97.73065185546875,2.5043399333953857,-78.39208984375,42.3366813659668
0,475204,-144.27061462402344,-75.38070678710938,-68.51799774169922,59.609619140625
0,475206,55.47576904296875,35.51177978515625,56.4149284362793,-37.8812141418457
0,475208,42.88955307006836,49.09404754638672,18.20747947692871,4.273609638214111
0,475210,14.050041198730469,-34.16471481323242,-32.395416259765625,10.24185562133789
0,475212,24.979053497314453,13.162665367126465,11.060791015625,-18.666839599609375
0,475214,-46.56890106201172,1.9064539670944214,13.407811164855957,-33.411949157714844
0,475216,-50.57035446166992,-40.006683349609375,-31.30677032470703,13.121408462524414
0,475218,64.07298278808594,25.759166717529297,9.412147521972656,42.744972229003906
0,475220,101.76661682128906,73.50889587402344,46.48869323730469,8.680006980895996
0,475222,-107.2803955078125,-65.3448715209961,-47.852413177490234,-40.763267517089844
0,475224,-79.93750762939453,-60.222869873046875,-23.38981056213379,-10.165705680847168
0,475226,97.53561401367188,74.89302062988281,55.71859359741211,46.19780349731445
0,475228,-60.41751480102539,-38.033077239990234,-27.385377883911133,-11.354392051696777
0,475230,21.41868019104004,-26.685657501220703,0.006441393867135048,-4.272449970245361
0,475232,120.81522369384766,80.11821746826172,57.73429870605469,11.510988235473633
0,475234,-135.9062042236328,-20.049875259399414,-35.40959548950195,-37.05830383300781
0,475236,-66.1642074584961,-10.326216697692871,-41.2408447265625,-3.933717727661133
0,475238,140.35067749023438,12.23315715789795,19.769668579101562,27.999691009521484
0,475240,72.27198791503906,-12.162470817565918,32.15592956542969,21.055522918701172
0,475242,-118.26142883300781,15.123239517211914,-14.007076263427734,-35.69235610961914
0,475244,-64.78327178955078,-33.24848556518555,-9.564815521240234,9.982620239257812
0,475246,98.416015625,9.578697204589844,41.145263671875,44.95922088623047
0,475248,9.095622062683105,33.25235366821289,-14.629463195800781,-31.876527786254883
0,475250,-15.599788665771484,-42.81474685668945,-35.55665969848633,-18.19927215576172
0,475252,23.23695182800293,2.4082376956939697,5.022873401641846,-10.64431095123291
0,475254,-62.950748443603516,-5.445721626281738,-8.448094367980957,-15.17531681060791
0,475256,-72.8740463256836,-22.51704216003418,-27.64194107055664,-2.1471338272094727
0,475258,106.0733871459961,30.191486358642578,50.13331604003906,40.105072021484375
0,475260,132.90969848632812,23.99774932861328,45.469207763671875,40.374298095703125
0,475262,-127.00792694091797,-7.294518947601318,-84.37088012695312,-63.99064254760742
0,475264,-108.15660858154297,-15.95276927947998,-12.34268569946289,-20.906177520751953
0,475266,44.325870513916016,-4.492153644561768,72.67025756835938,54.01305389404297
0,475268,24.555248260498047,-8.188453674316406,-16.8749942779541,-22.511560440063477
0,475270,64.21277618408203,49.0133171081543,-24.899112701416016,15.17592716217041
0,475272,5.001319885253906,6.763032913208008,26.36147117614746,55.05019760131836
0,475274,-68.79716491699219,-80.20469665527344,3.500375509262085,-49.65520477294922
0,475276,-22.90939712524414,17.505937576293945,-24.787715911865234,-35.78314971923828
0,475278,70.96439361572266,54.570682525634766,0.08182680606842041,24.04840087890625
0,475280,75.21753692626953,10.61474895477295,22.53836441040039,16.005056381225586
0,475282,-114.69322204589844,-45.91839599609375,-30.627655029296875,-15.571203231811523
0,475284,-70.20854949951172,-26.95244789123535,-31.64851951599121,-38.771575927734375
0,475286,109.33785247802734,95.74942016601562,49.6829948425293,13.927047729492188
0,475288,13.470205307006836,-23.563230514526367,22.921218872070312,23.22772979736328
0,475290,-67.39013671875,-97.41769409179688,-45.268898010253906,-16.7018985748291
0,475292,38.34139633178711,72.0145492553711,25.0198974609375,3.4150407314300537
0,475294,5.091651439666748,35.976043701171875,33.56035232543945,1.6529381275177002
0,475296,-90.6971435546875,-63.30189895629883,-71.6336441040039,-30.51828956604004
0,475298,93.32051849365234,-18.652671813964844,-4.0531439781188965,25.588747024536133
0,475300,101.65827178955078,17.079221725463867,66.62735748291016,55.4614372253418
0,475302,-141.468505859375,26.47034454345703,-28.104639053344727,-18.530717849731445
0,475304,-59.31587219238281,10.9404296875,-42.10538864135742,-16.715545654296875
0,475306,111.14908599853516,-20.021493911743164,50.92816925048828,26.246212005615234
0,475308,0.12011248618364334,-37.921504974365234,-18.59073257446289,-32.3181037902832
0,475309,-58.09083938598633,-4.474923133850098,-39.46580123901367,-23.007160186767578
0,475312,52.5150032043457,95.39655303955078,122.093017578125,65.3385238647461
0,475313,0.7706000804901123,15.606775283813477,2.096442937850952,-19.061744689941406
0,475316,-89.9739761352539,-90.18636322021484,-134.7028350830078,-48.636287689208984
0,475317,51.02531814575195,34.56563949584961,28.653270721435547,31.236431121826172
0,475320,101.36408233642578,7.294971942901611,60.729061126708984,-15.939623832702637
0,475321,-29.176599502563477,-45.04786682128906,-29.153980255126953,-13.143918991088867
0,475324,-74.47160339355469,17.537784576416016,-13.204723358154297,42.49150848388672
0,475325,-7.399996280670166,3.280750274658203,12.207712173461914,14.568921089172363
0,475328,47.69557189941406,2.022221326828003,2.205380916595459,-19.72367286682129
0,475329,-19.81034278869629,10.369755744934082,-10.844600677490234,-60.43575668334961
0,475332,3.450453519821167,-35.528499603271484,-26.58570671081543,-2.0756266117095947
0,475333,-22.05024528503418,-21.55556297302246,-2.5086281299591064,75.6502456665039
0,475338,4.285725116729736,57.221046447753906,49.166717529296875,26.570697784423828
0,475338,104.41002655029297,3.3244824409484863,25.044769287109375,-10.450682640075684
0,475339,-57.83342361450195,-0.27554377913475037,-1.8328725099563599,-54.88343811035156
0,475342,-120.27859497070312,-10.147079467773438,-33.045448303222656,-24.098417282104492
0,475343,-4.656506538391113,-36.610355377197266,-33.77640914916992,25.541038513183594
0,475346,88.00396728515625,57.58708190917969,23.086090087890625,12.056253433227539
0,475347,33.151153564453125,-4.8302531242370605,-2.610663414001465,-3.9306373596191406
0,475350,-5.0662360191345215,-19.030792236328125,21.287796020507812,7.984036922454834
0,475351,3.6835904121398926,31.618024826049805,28.077133178710938,12.722806930541992
0,475354,-66.33904266357422,-39.79097366333008,-58.090843200683594,-36.78131103515625
0,475355,-58.496124267578125,-33.689697265625,-22.792346954345703,-8.688321113586426
0,475358,91.37007904052734,39.92376708984375,53.305747985839844,25.99534034729004
0,475359,115.09954071044922,56.9422721862793,31.464006423950195,-1.3135502338409424
0,475362,-138.4688262939453,-31.91248893737793,-42.61268615722656,-9.534128189086914
0,475363,-58.802310943603516,-40.73564147949219,-36.96272277832031,9.209582328796387
0,475366,128.48431396484375,39.83243179321289,29.038103103637695,11.898012161254883
0,475367,-9.983050346374512,-27.651611328125,12.714035987854004,-2.5900650024414062
0,475370,-15.469597816467285,-45.98149490356445,-3.169346570968628,-2.2200927734375
0,475371,12.701906204223633,61.63352584838867,11.209352493286133,-5.056609153747559
0,475374,-53.333553314208984,14.988903045654297,-13.275859832763672,-11.81686782836914
0,475375,-56.56525802612305,-48.900367736816406,-16.546939849853516,1.575242042541504
0,475378,79.09294891357422,22.885866165161133,16.034639358520508,31.357362747192383
0,475379,110.17713928222656,37.09056854248047,21.93967056274414,22.469310760498047
0,475382,-136.77127075195312,-54.02802276611328,-30.106950759887695,-44.10447692871094
0,475383,-70.92539978027344,-23.708078384399414,-19.4261474609375,-20.850934982299805
0,475386,118.99482727050781,69.47975158691406,38.796058654785156,17.406774520874023
0,475387,28.628637313842773,10.082212448120117,3.331530809402466,-4.69448709487915
0,475390,91.70008850097656,30.449132919311523,12.873726844787598,56.3906364440918
0,475391,-47.394874572753906,-15.277260780334473,4.488323211669922,19.9544620513916
0,475394,-235.56581115722656,-138.13504028320312,-64.82942199707031,-79.16483306884766
0,475395,13.083210945129395,19.414020538330078,-19.69049644470215,-30.25375747680664
0,475398,133.68333435058594,72.9080810546875,37.30804443359375,25.75063705444336
0,475399,81.97418975830078,-2.897892475128174,45.1284294128418,21.536529541015625
0,475402,2.5513150691986084,39.06267166137695,14.335068702697754,-4.30732536315918
0,475403,-111.78929901123047,-42.38531494140625,-70.0959243774414,-19.107500076293945
0,475406,-74.40048217773438,-52.36928939819336,62.87348175048828,82.93800354003906
0,475407,54.34453582763672,42.07889175415039,46.01474380493164,20.936573028564453
0,475410,51.62295913696289,15.17065143585205,-149.0902557373047,-123.5349349975586
0,475411,1.0411081314086914,6.986410617828369,27.260290145874023,6.067087173461914
0,475414,-44.35271072387695,-7.0825324058532715,40.419586181640625,18.16465950012207
0,475415,-51.63831329345703,-12.147391319274902,-33.44481658935547,-15.045768737792969
0,475418,119.45578002929688,31.74318504333496,60.7967643737793,45.830413818359375
0,475419,95.79719543457031,7.12612771987915,7.077599048614502,3.1924362182617188
0,475422,-142.05516052246094,-55.01753616333008,-162.2500457763672,-42.432857513427734
0,475423,-102.39716339111328,12.6796236038208,2.130556106567383,-5.5724406242370605
0,475426,82.69731903076172,20.856098175048828,207.56163024902344,16.667015075683594
0,475427,87.47949981689453,-47.37017822265625,-42.44354248046875,10.021842002868652
0,475430,-17.493967056274414,52.235992431640625,-37.214664459228516,12.232256889343262
0,475431,-8.358620643615723,31.674083709716797,32.39366912841797,-13.759966850280762
0,475434,-22.001195907592773,-57.7667121887207,-47.20064926147461,14.453879356384277
0,475435,-91.46896362304688,-18.53293228149414,27.473472595214844,13.791343688964844
0,475438,79.32154083251953,12.597810745239258,22.49359893798828,-33.6279411315918
0,475439,139.9223175048828,37.69170379638672,-5.273176670074463,-5.275379657745361
0,475442,-141.34620666503906,-14.358077049255371,-31.36374282836914,1.421617865562439
0,475443,-129.373779296875,-51.079410552978516,-19.79351043701172,1.2405343055725098
0,475446,124.50171661376953,41.67435836791992,29.09486198425293,30.37508201599121
0,475447,62.721675872802734,56.09703826904297,-8.396562576293945,-20.849544525146484
0,475450,-37.96965026855469,-23.61031150817871,-3.504178047180176,-13.50146484375
0,475451,8.082036972045898,-61.40394973754883,13.808884620666504,6.654320240020752
0,475454,-29.454431533813477,12.600303649902344,-36.61619567871094,6.575835227966309
0,475455,-59.08586120605469,54.36861038208008,-28.341150283813477,29.923603057861328
0,475458,86.14691925048828,-31.680086135864258,36.717491149902344,-2.753742218017578
0,475459,98.66220092773438,-31.309667587280273,57.39774703979492,-11.234275817871094
0,475462,-134.8196563720703,-0.2426156997680664,-5.5712714195251465,-23.822097778320312
0,475463,-80.96575927734375,-6.485726356506348,-54.299964904785156,-14.843456268310547
0,475466,109.03962707519531,54.693729400634766,0.23481512069702148,29.189281463623047
0,475467,31.470258712768555,30.680419921875,3.008127450942993,-5.69650936126709
0,475470,-29.117725372314453,-59.4163818359375,-9.420670509338379,-15.418255805969238
0,475471,-26.307249069213867,-4.852509498596191,33.12936019897461,48.7191162109375
0,475474,-40.39438247680664,15.890446662902832,8.558506965637207,-32.70231628417969
0,475475,-7.498319149017334,-28.903413772583008,-21.000680923461914,-63.866615295410156
0,475478,98.82911682128906,26.7723331451416,15.787191390991211,59.257301330566406
0,475479,60.408145904541016,43.72930908203125,31.38417625427246,69.01424407958984
0,475482,-131.8148651123047,-23.36106300354004,-35.9484977722168,-32.3565559387207
0,475483,-40.45808792114258,-47.53136444091797,-35.247249603271484,-70.08853912353516
0,475486,83.98477172851562,17.984548568725586,16.768604278564453,12.395365715026855
0,475487,32.19497299194336,45.18680953979492,24.733078002929688,33.88044738769531
0,475490,13.542533874511719,-20.959211349487305,-3.1760947704315186,-3.1281826496124268
0,475491,-28.41586685180664,-23.933324813842773,-26.79482078552246,-3.8855814933776855
0,475494,-56.680015563964844,-20.178186416625977,-14.408997535705566,-9.223308563232422
0,475495,-31.95124626159668,-0.07094940543174744,21.503353118896484,19.046144485473633
0,475498,65.86250305175781,55.612640380859375,38.72061538696289,24.865720748901367
0,475499,82.41302490234375,18.83757209777832,-4.49307107925415,-17.59880256652832
0,475502,-88.68099212646484,-38.84627914428711,-28.81821060180664,-16.77762222290039
0,475503,-66.10533905029297,-34.459373474121094,-16.571971893310547,-10.77050495147705
0,475506,56.85221481323242,10.144658088684082,7.9110846519470215,-16.186227798461914
0,475507,19.798297882080078,2.890176773071289,6.6440815925598145,5.137984275817871
0,475510,28.986709594726562,30.963563919067383,33.63528823852539,52.53030776977539
0,475511,-3.8801515102386475,27.65264892578125,9.146912574768066,-8.597070693969727
0,475514,-79.91001892089844,-55.86138916015625,-46.884010314941406,-36.8311882019043
0,475515,-64.96759033203125,-20.0316104888916,-22.45014190673828,50.677574157714844
0,475518,98.33744049072266,16.02075958251953,14.337499618530273,-30.2248477935791
0,475519,139.78829956054688,10.109131813049316,32.16193389892578,-78.27571105957031
0,475522,-125.18973541259766,15.148649215698242,-26.593189239501953,28.682588577270508
0,475523,-78.18866729736328,2.793383836746216,-9.107125282287598,83.24715423583984
0,475526,195.13369750976562,59.46509552001953,89.5440673828125,44.721534729003906
0,475527,-21.748937606811523,-29.088254928588867,-26.58159637451172,-76.7719497680664
0,475530,-181.96656799316406,-115.09701538085938,-81.7605972290039,-34.50497817993164
0,475531,77.6629409790039,55.18600845336914,46.4770393371582,53.0950813293457
0,475534,20.676136016845703,50.930782318115234,-7.476334571838379,-24.378910064697266
0,475535,-110.38420867919922,-38.662227630615234,-27.450923919677734,-37.50007247924805
0,475538,108.22450256347656,-10.053581237792969,45.49311065673828,37.9243278503418
0,475539,109.33002471923828,11.608144760131836,4.983839988708496,22.987594604492188
0,475542,-184.19107055664062,-9.165021896362305,-28.88245391845703,-49.40496826171875
0,475544,-82.0644302368164,-28.30116844177246,-20.368131637573242,-16.05965805053711
0,475546,136.359375,19.917760848999023,-7.253994464874268,12.579277038574219
0,475548,15.19178581237793,8.247126579284668,4.6896796226501465,27.673934936523438
0,475550,5.334874153137207,14.797296524047852,21.679611206054688,25.15201187133789
0,475552,58.4273567199707,35.30335235595703,66.19792938232422,-43.39058303833008
0,475554,-34.621665954589844,-32.2778205871582,-13.73702335357666,24.236305236816406
0,475556,-83.91705322265625,4.186244487762451,-83.2008056640625,35.085899353027344
0,475557,31.48530387878418,45.91733169555664,24.9517822265625,-95.50102996826172
0,475560,100.0865707397461,-36.330142974853516,34.53251647949219,-10.20207691192627
0,475564,-131.53262329101562,-37.07511520385742,-45.298274993896484,147.0498046875
0,475564,-113.28655242919922,21.301591873168945,-5.724209785461426,65.34917449951172
0,475565,179.37937927246094,-2.5342705249786377,55.997867584228516,-156.2863006591797
0,475568,52.710384368896484,-10.955445289611816,-0.6157392859458923,-114.54927825927734
0,475569,-83.78652954101562,-3.1038506031036377,-38.735069274902344,66.97846221923828
0,475572,34.19658660888672,-21.15410041809082,4.0602707862854,67.40856170654297
0,475573,-7.674025535583496,11.512147903442383,2.2367796897888184,17.784561157226562
0,475576,-77.77030181884766,29.322622299194336,-4.678674221038818,-33.42252731323242
0,475577,78.17034912109375,27.978025436401367,39.35014343261719,-14.356721878051758
0,475580,98.43083953857422,-3.8401036262512207,-3.0270612239837646,11.664798736572266
0,475581,-98.10210418701172,-62.94218063354492,-41.763214111328125,29.74930763244629
0,475584,-90.8382797241211,0.7382658123970032,8.97150707244873,16.88646125793457
0,475585,42.316322326660156,29.606184005737305,12.328164100646973,-29.694751739501953
0,475588,85.7744369506836,3.399130344390869,28.38791275024414,28.655155181884766
0,475589,-11.388553619384766,25.559986114501953,-16.56982421875,-19.027332305908203
0,475592,-45.81986618041992,-16.783077239990234,-66.3653564453125,-101.37044525146484
0,475593,-11.880374908447266,5.3130903244018555,21.80047607421875,6.641077995300293
0,475596,-30.371809005737305,-4.113534450531006,40.521644592285156,114.46273803710938
0,475597,73.0673599243164,-23.575668334960938,12.28049087524414,47.57076644897461
0,475600,59.710208892822266,48.33430480957031,12.561799049377441,-59.7065544128418
0,475601,-85.05577850341797,-3.4684174060821533,-28.133739471435547,-41.91257095336914
0,475604,-47.46535110473633,-42.59076690673828,-33.54460525512695,-31.515838623046875
0,475605,42.26710891723633,-22.87797737121582,8.864999771118164,-13.298276901245117
0,475608,27.10371208190918,-4.229074001312256,33.95630645751953,53.35152053833008
0,475609,-24.331233978271484,27.277328491210938,-5.122984886169434,18.904197692871094
0,475612,18.453935623168945,24.015342712402344,-18.399295806884766,55.15037536621094
0,475613,-5.122314929962158,-7.172576427459717,10.652210235595703,30.909826278686523
0,475616,-70.34207916259766,-26.05224609375,-16.222043991088867,-129.55181884765625
0,475617,68.80347442626953,25.480791091918945,17.175384521484375,-46.44583511352539
0,475620,52.81269454956055,-0.49337485432624817,12.115333557128906,90.3919677734375
0,475621,-65.61164093017578,-36.29869842529297,-46.961219787597656,80.87103271484375
0,475624,-34.18015670776367,25.277219772338867,2.240330219268799,-57.87534713745117
0,475625,-6.122992038726807,12.26987361907959,28.14573097229004,-164.05992126464844
0,475628,44.21007537841797,0.8280855417251587,7.622856140136719,15.430774688720703
0,475629,32.61602783203125,34.26750946044922,10.03844165802002,162.27862548828125
0,475632,4.58208703994751,-10.476201057434082,-13.86652946472168,27.918060302734375
0,475633,-58.241920471191406,-47.767059326171875,-31.40378189086914,-57.92503356933594
0,475636,-60.527400970458984,10.923421859741211,12.538517951965332,-26.468032836914062
0,475637,119.80168914794922,45.386260986328125,53.4366340637207,9.303825378417969
0,475640,52.732139587402344,-24.54104232788086,-0.108377605676651,-42.993125915527344
0,475641,-112.30679321289062,-51.15263748168945,-54.765357971191406,-165.34213256835938
0,475644,-9.307323455810547,12.942547798156738,5.161116600036621,103.7931137084961
0,475645,42.65605163574219,38.071231842041016,6.320781230926514,240.4021453857422
0,475648,-32.488033294677734,6.519697666168213,-17.19298553466797,-20.8525390625
0,475649,-0.27822113037109375,-12.842628479003906,25.077667236328125,-16.47585105895996
0,475652,64.31097412109375,-14.371912956237793,18.933189392089844,-30.96644401550293
0,475653,-41.88427734375,-22.0864315032959,-22.93426513671875,-143.3929901123047
0,475656,-97.51018524169922,8.30087947845459,-17.67864418029785,6.571207523345947
0,475657,90.90446472167969,50.91790771484375,28.75450325012207,164.4481201171875
0,475660,88.26577758789062,-14.703112602233887,-0.7129064798355103,-156.56729125976562
0,475661,-78.90818786621094,-56.065406799316406,-21.275251388549805,-223.35755920410156
0,475664,-60.79841995239258,9.00434398651123,19.307754516601562,360.1470031738281
0,475665,42.99275588989258,20.722034454345703,5.005276203155518,351.6234130859375
0,475668,31.41922378540039,5.777599811553955,-39.186439514160156,-350.01190185546875
0,475669,-21.07965660095215,-6.945180416107178,-6.290894985198975,-482.1986389160156
0,475672,42.02037811279297,23.751750946044922,90.3825454711914,161.70712280273438
0,475673,-23.53594970703125,25.831811904907227,12.312962532043457,344.23138427734375
0,475676,-101.44371032714844,-46.41012954711914,-127.04153442382812,11.456889152526855
0,475677,83.67414855957031,4.216103553771973,13.833643913269043,-36.74800109863281
0,475680,110.96819305419922,55.238155364990234,104.10881805419922,-0.1925313025712967
0,475681,-88.80474853515625,-26.054975509643555,-28.73105812072754,-182.03126525878906
0,475684,-106.88662719726562,-51.52192306518555,-66.30433654785156,263.8615417480469
0,475685,35.394447326660156,17.064128875732422,-7.525002956390381,391.4524841308594
0,475688,109.19766998291016,36.57524108886719,65.66101837158203,-661.0155029296875
0,475689,-19.80516815185547,-38.61209487915039,5.0434441566467285,-313.59661865234375
0,475692,-99.53912353515625,-53.2077751159668,-68.3880844116211,260.5348815917969
0,475693,1.0727088451385498,33.42937088012695,-17.05217742919922,-150.76211547851562
0,475696,53.0522575378418,60.261009216308594,52.614471435546875,280.4862365722656
0,475697,52.41018295288086,15.487859725952148,100.73983764648438,407.2357482910156
0,475700,18.860517501831055,-18.615379333496094,-30.225244522094727,-280.0902404785156
0,475701,-27.705095291137695,-11.463550567626953,-50.49374008178711,-279.93731689453125
0,475704,-48.50988006591797,-34.81883239746094,-27.518234252929688,132.52525329589844
0,475705,-5.790070533752441,-18.160762786865234,-59.671836853027344,-75.24755096435547
0,475708,34.55961990356445,56.30547332763672,62.573326110839844,56.46706008911133
0,475709,-8.350131034851074,0.43021532893180847,68.29473876953125,429.4435119628906
0,475712,27.90557289123535,-33.570762634277344,-42.60044860839844,-9.873027801513672
0,475713,-45.766910552978516,13.142598152160645,-79.86804962158203,-414.0086669921875
0,475716,-115.65267944335938,-29.243518829345703,-13.993240356445312,-165.31634521484375
0,475717,82.31243133544922,-43.2366828918457,11.703954696655273,14.061556816101074
0,475720,108.35334777832031,52.46814727783203,55.66301345825195,254.81292724609375
0,475721,-54.84602355957031,43.89866638183594,55.42323684692383,193.98171997070312
0,475724,-48.668819427490234,-21.856599807739258,-23.930042266845703,-405.5569152832031
0,475725,52.99337387084961,17.46407127380371,3.094273567199707,48.62575912475586
0,475728,26.750062942504883,2.3634722232818604,-29.432653427124023,307.1298828125
0,475729,-32.06109619140625,-18.621767044067383,-34.049373626708984,-217.29762268066406
0,475732,-2.1988139152526855,23.75258445739746,37.90715408325195,428.7117004394531
0,475733,-33.666168212890625,-18.411943435668945,-24.179540634155273,148.7577362060547
0,475736,-27.99138641357422,-12.11851978302002,4.156572341918945,-993.2802124023438
0,475737,120.46568298339844,33.40275573730469,103.9645767211914,38.25537109375
0,475740,41.23837661743164,-24.95179557800293,11.258197784423828,526.5021362304688
0,475741,-125.10700988769531,-0.9664317965507507,-69.9268569946289,-160.8328857421875
0,475744,-48.24045944213867,11.153070449829102,-47.16530990600586,-43.515785217285156
0,475745,37.17839431762695,-40.0976676940918,3.4282097816467285,112.6323013305664
0,475748,46.00861740112305,15.716089248657227,-14.759882926940918,-17.50006675720215
0,475749,-13.991419792175293,-4.781120777130127,9.895214080810547,-16.93000030517578
0,475752,16.299734115600586,-9.332616806030273,83.51233673095703,77.57937622070312
0,475753,35.7672004699707,57.59241485595703,-24.04529571533203,71.96569061279297
0,475756,-78.01716613769531,7.439314842224121,-63.95896530151367,-286.3742980957031
0,475757,32.42826461791992,-23.040912628173828,8.216400146484375,-403.72509765625
0,475760,62.957393646240234,-31.608434677124023,-19.438230514526367,723.248779296875
0,475761,-105.35762023925781,-37.43198776245117,-35.75352096557617,396.377197265625
0,475764,-17.145523071289062,51.034515380859375,46.25774002075195,-792.478759765625
0,475765,83.40745544433594,51.32558059692383,74.71859741210938,19.055116653442383
0,475768,25.662757873535156,-29.36417007446289,17.685091018676758,266.1869812011719
0,475769,-15.054926872253418,-5.193092346191406,-19.310588836669922,-151.59982299804688
0,475772,-18.52902603149414,-31.197280883789062,-43.55567169189453,194.14102172851562
0,475773,-23.97711181640625,-52.67390060424805,-65.39093017578125,303.0525817871094
0,475776,-30.28312873840332,38.76264190673828,27.735158920288086,-130.79852294921875
0,475777,65.19832611083984,31.815187454223633,100.98641204833984,-375.8724365234375
0,475780,39.607486724853516,14.047514915466309,-31.863006591796875,-85.7394790649414
0,475781,-96.7378158569336,27.337051391601562,-59.618568420410156,180.9715118408203
0,475784,-55.74652099609375,-35.98289108276367,2.9777348041534424,38.87382888793945
0,475786,7.3641886711120605,-12.7786283493042,-10.332128524780273,-514.7518310546875
0,475788,33.43305587768555,23.454631805419922,89.09663391113281,318.4974670410156
0,475790,73.956787109375,17.252944946289062,68.7094955444336,1050.595703125
0,475792,-5.3905158042907715,-18.797639846801758,-104.35881042480469,-967.3973388671875
0,475794,-104.47126007080078,-70.54240417480469,-86.40054321289062,-799.9506225585938
0,475796,-39.67423629760742,-2.7617361545562744,-12.01426887512207,1005.2066040039062
0,475798,126.49028015136719,58.06624984741211,60.96479415893555,84.05442810058594
0,475801,-2.4561667442321777,18.65182113647461,87.78250122070312,-286.580810546875
0,475802,-123.37574768066406,-5.352081775665283,-3.3232665061950684,147.9595489501953
0,475803,89.00743103027344,-3.7647385597229004,-51.44146728515625,11.582589149475098
0,475806,44.579612731933594,-12.631502151489258,-45.84402847290039,82.3300552368164
0,475807,-17.63567352294922,24.8586483001709,9.396734237670898,-25.667089462280273
0,475810,26.696001052856445,8.165492057800293,37.32716369628906,-686.01123046875
0,475811,-38.300846099853516,-71.5689697265625,-14.12984561920166,143.01690673828125
0,475814,-42.35464096069336,-20.718360900878906,-17.009265899658203,1030.37353515625
0,475815,-49.44599914550781,66.91242218017578,22.674318313598633,-667.9608764648438
0,475818,71.22405242919922,18.58115005493164,-14.579193115234375,-293.9073791503906
0,475819,122.15617370605469,-19.75942039489746,-45.96622848510742,831.3529052734375
0,475822,-63.019596099853516,-21.188262939453125,12.793334007263184,-297.8012390136719
0,475823,-62.37192153930664,7.3170928955078125,36.144195556640625,-240.820556640625
0,475826,65.32015991210938,49.28487777709961,22.501480102539062,101.81311798095703
0,475827,23.61896514892578,-10.834044456481934,-0.8625956773757935,-228.53073120117188
0,475830,-44.338096618652344,-50.07073211669922,-8.628884315490723,13.248586654663086
0,475831,13.301366806030273,6.982856750488281,16.639644622802734,-38.687931060791016
0,475834,19.46969223022461,18.236587524414062,-26.449052810668945,297.14544677734375
0,475835,-58.1629524230957,-28.496328353881836,-26.08856964111328,543.7113037109375
0,475838,61.58987045288086,35.78379440307617,43.33271026611328,-517.4865112304688
0,475839,106.6695327758789,35.073543548583984,8.88151741027832,-406.2792053222656
0,475842,-130.76614379882812,-42.98773956298828,-45.52757263183594,387.7086486816406
0,475843,-82.95276641845703,-14.256771087646484,1.9714258909225464,35.700538635253906
0,475846,120.71263885498047,3.00569748878479,57.468326568603516,-414.54052734375
0,475847,-9.38338851928711,1.8583048582077026,-8.630431175231934,-460.2420959472656
0,475850,-151.7938232421875,5.7905073165893555,-71.2017593383789,647.8816528320312
0,475851,-32.199092864990234,3.0919029712677,-18.78023338317871,763.5946044921875
0,475854,51.454803466796875,-28.040937423706055,17.163969039916992,-636.6097412109375
0,475855,-56.25003433227539,-47.5750732421875,28.108102798461914,-346.1584167480469
0,475858,63.68568420410156,52.224578857421875,80.06952667236328,249.30886840820312
0,475859,204.32012939453125,91.43417358398438,75.67122650146484,208.4984893798828
0,475862,-115.11511993408203,-32.06965637207031,-79.83427429199219,139.84100341796875
0,475863,-158.35169982910156,-67.44347381591797,-126.02145385742188,-687.3402099609375
0,475866,120.55670166015625,-2.8779501914978027,-7.584350109100342,52.5355110168457
0,475867,53.1129150390625,15.255021095275879,21.401870727539062,1537.4818115234375
0,475870,-35.80759048461914,24.69925308227539,13.246662139892578,-4.783222198486328
0,475871,-0.07031074166297913,-21.850372314453125,20.08191680908203,-1797.9434814453125
0,475874,6.398276329040527,-10.211226463317871,59.14763641357422,-582.6575317382812
0,475875,-11.471654891967773,79.26530456542969,24.163545608520508,1042.54638671875
0,475878,59.339561462402344,-12.352789878845215,-43.476318359375,453.4136657714844
0,475879,80.84152221679688,-72.0216064453125,-1.815600872039795,-258.2605895996094
0,475882,-116.56983184814453,10.68741226196289,-47.95260238647461,-48.21009063720703
0,475883,-92.56629943847656,32.740474700927734,-4.74511194229126,-134.04205322265625
0,475886,78.4278564453125,21.168123245239258,91.51724243164062,-372.0258483886719
0,475887,77.18778991699219,-5.735264778137207,-7.1085076332092285,126.12431335449219
0,475890,-14.486632347106934,-22.016712188720703,-44.896385192871094,712.3480224609375
0,475891,-36.38174819946289,7.988199710845947,-6.544413089752197,181.15423583984375
0,475894,-13.158451080322266,-9.818694114685059,-14.544568061828613,-410.45123291015625
0,475895,-89.69763946533203,-25.715953826904297,-6.887526512145996,-471.3781433105469
0,475898,32.926639556884766,-1.9609473943710327,1.9551677703857422,318.37127685546875
0,475899,120.21843719482422,4.267686367034912,-7.7165679931640625,258.80157470703125
0,475902,-95.99571228027344,8.692411422729492,-7.145007133483887,-370.8878173828125
0,475903,-54.98173904418945,-20.46670150756836,6.972029209136963,232.9530487060547
0,475906,47.730995178222656,-18.656042098999023,56.45302963256836,-79.56282806396484
0,475907,19.25672721862793,35.99399948120117,25.369831085205078,-194.32980346679688
0,475910,40.07635498046875,61.64309310913086,-49.93351745605469,187.59939575195312
0,475911,-43.97585678100586,8.044803619384766,-38.65757751464844,354.66717529296875
0,475914,-123.26406860351562,-75.72843170166016,-25.098224639892578,-133.01483154296875
0,475915,-36.4376335144043,-19.11098861694336,79.53356170654297,-739.8073120117188
0,475918,100.28467559814453,66.71615600585938,94.09809875488281,452.81744384765625
0,475919,-21.460500717163086,14.911890983581543,-77.19176483154297,491.9428405761719
0,475922,-113.07048797607422,-67.56825256347656,-95.29116821289062,-290.1845703125
0,475923,47.43553161621094,-54.299827575683594,7.3883514404296875,-220.3169708251953
0,475926,100.53337097167969,63.03483200073242,51.961151123046875,87.91265869140625
0,475927,13.134057998657227,30.50780487060547,8.136979103088379,45.268428802490234
0,475930,-11.223033905029297,-38.159420013427734,5.5975189208984375,50.655677795410156
0,475931,86.56737518310547,74.85017395019531,8.511462211608887,428.48992919921875
0,475934,80.81754302978516,14.645242691040039,-33.08622741699219,-1181.341552734375
0,475935,-65.15960693359375,-91.40647888183594,-7.2983269691467285,-1036.7725830078125
0,475938,35.256526947021484,26.032976150512695,-0.35612615942955017,2128.235107421875
0,475939,117.48983001708984,24.27808380126953,-31.11884307861328,976.870849609375
0,475942,-90.74694061279297,-62.11960220336914,12.708101272583008,-1012.171630859375
0,475943,-65.3126220703125,-9.875336647033691,40.61014938354492,-16.172502517700195
0,475946,76.61734771728516,44.69991683959961,15.02230453491211,-612.0418090820312
0,475947,37.26841735839844,21.95598793029785,15.352669715881348,-476.333984375
0,475950,-41.99485778808594,-10.449934005737305,11.395123481750488,509.3091125488281
0,475951,-60.6916618347168,16.37363052368164,23.020286560058594,156.98037719726562
0,475954,-51.64854431152344,-19.31777000427246,-45.644622802734375,289.24951171875
0,475955,-79.47713470458984,-41.135536193847656,-20.311128616333008,483.3309631347656
0,475958,59.674442291259766,30.631322860717773,9.178102493286133,-635.6221313476562
0,475959,73.81704711914062,4.892602920532227,-92.34890747070312,-1172.276611328125
0,475962,-79.21810913085938,-36.09355163574219,13.0730562210083,252.25607299804688
0,475963,-17.978221893310547,-41.071693420410156,78.41993713378906,991.96826171875
0,475966,35.62641143798828,5.685211181640625,-2.4258649349212646,150.5323028564453
0,475967,24.281509399414062,78.4506607055664,5.966577053070068,-287.8851013183594
0,475970,27.73755645751953,34.89809036254883,-6.804112434387207,132.5009765625
0,475971,13.172990798950195,-9.198942184448242,-19.858055114746094,42.06853103637695
0,475974,-86.46759796142578,-12.001906394958496,18.678598403930664,147.2589874267578
0,475975,-85.89574432373047,-24.974523544311523,12.41719913482666,194.99761962890625
0,475978,124.4161148071289,16.939285278320312,1.2980766296386719,-556.6366577148438
0,475979,43.9917106628418,16.770164489746094,-31.238679885864258,-378.3646545410156
0,475982,-121.03641510009766,-42.63051986694336,-41.227325439453125,134.47555541992188
0,475983,21.15131950378418,10.013161659240723,35.51614761352539,268.7022399902344
0,475986,17.612966537475586,36.53304672241211,30.166194915771484,83.39598846435547
0,475987,-13.58508014678955,-36.07194137573242,-24.155012130737305,-184.71795654296875
0,475990,27.196041107177734,-46.428565979003906,30.339815139770508,-2.6822409629821777
0,475991,11.173863410949707,-1.600340485572815,20.522140502929688,37.78156661987305
0,475994,3.367497444152832,15.023849487304688,-62.47416305541992,195.49632263183594
0,475995,-99.56973266601562,18.462610244750977,-45.07250213623047,206.4860382080078
0,475998,101.69147491455078,37.33257293701172,51.95311737060547,-268.5674133300781
0,475999,234.82171630859375,17.3453369140625,101.96241760253906,-234.3444366455078
0,476002,-141.6895751953125,-60.42411422729492,-37.59746551513672,316.3697509765625
0,476003,-162.49154663085938,-12.821578979492188,-78.91065216064453,210.56398010253906
0,476006,46.74147033691406,87.65017700195312,40.69401550292969,-517.6781005859375
0,476007,16.141765594482422,-5.1872453689575195,-3.4664273262023926,-704.8759155273438
0,476010,5.767861366271973,-50.272682189941406,-42.381954193115234,623.6259155273438
0,476011,-6.61494255065918,-28.236940383911133,25.470415115356445,1024.53955078125
0,476014,-14.1762113571167,16.64761734008789,31.97269058227539,-730.3795776367188
0,476015,-72.13652801513672,26.364099502563477,0.680194079875946,-648.1458740234375
0,476018,59.41522216796875,3.738816499710083,28.269155502319336,490.3982238769531
0,476019,129.15670776367188,65.21978759765625,21.58020782470703,380.9540710449219
0,476022,-190.6072235107422,-68.63610076904297,-93.94609069824219,118.05734252929688
0,476023,-135.31520080566406,-117.23612976074219,-99.75228118896484,1.4755396842956543
0,476026,119.54120635986328,33.68946838378906,30.57783317565918,-488.2876281738281
0,476027,65.5908203125,81.31832885742188,89.53164672851562,-341.0610656738281
0,476032,29.8946590423584,54.488258361816406,68.24882507324219,414.9027099609375
0,476032,23.949541091918945,-9.767420768737793,-24.010082244873047,2.451446056365967
0,476033,-66.30570983886719,-60.10881423950195,-69.18409729003906,-191.56387329101562
0,476036,-22.47987937927246,-25.408554077148438,12.308380126953125,96.8240737915039
0,476037,103.20532989501953,29.490142822265625,10.306735038757324,-16.585195541381836
0,476040,55.8818473815918,4.223394870758057,0.8168151378631592,46.5577392578125
0,476041,-48.662776947021484,1.5942153930664062,31.26450538635254,107.55149841308594
0,476044,-83.04334259033203,13.762518882751465,-3.3884971141815186,-50.593414306640625
0,476045,6.0109477043151855,-35.63492965698242,0.061706338077783585,-9.840315818786621
0,476048,95.13721466064453,-4.835205554962158,9.758992195129395,74.28895568847656
0,476049,0.5363198518753052,44.670047760009766,-23.163436889648438,51.72338104248047
0,476052,-13.136475563049316,-37.54665756225586,-40.57682800292969,143.7046356201172
0,476053,-48.35648727416992,-62.875999450683594,-36.69767761230469,-197.19644165039062
0,476056,-74.76092529296875,32.898643493652344,20.45359992980957,-278.9476623535156
0,476057,100.17581939697266,73.28327178955078,85.73739624023438,158.76014709472656
0,476060,70.84811401367188,-13.550457954406738,-11.986592292785645,85.82978057861328
0,476061,-55.6376953125,-31.382234573364258,-71.18744659423828,-44.563148498535156
0,476064,-29.196306228637695,48.51309585571289,55.66171646118164,78.18354797363281
0,476065,4.100869655609131,-13.595743179321289,26.584569931030273,57.21912384033203
0,476068,5.22273588180542,-41.59893035888672,-60.800106048583984,-59.32270431518555
0,476069,-22.812389373779297,30.735301971435547,-0.12770147621631622,-60.038063049316406
0,476072,21.378799438476562,-11.254704475402832,14.307863235473633,-0.00832374021410942
0,476073,-1.9415019750595093,-14.325326919555664,1.5278081893920898,11.13308334350586
0,476076,-99.4022445678711,12.448905944824219,14.464272499084473,-1.562467098236084
0,476077,67.43818664550781,6.837382793426514,-0.9776856303215027,-16.89739227294922
0,476080,106.96155548095703,26.207813262939453,-9.281519889831543,-25.966081619262695
0,476081,-115.62371063232422,-5.522505760192871,9.260796546936035,-16.770320892333984
0,476084,-98.99199676513672,-44.21970748901367,5.841389179229736,90.74641418457031
0,476085,83.18455505371094,-15.880890846252441,-30.571548461914062,74.11883544921875
0,476088,64.97005462646484,39.9980354309082,-2.743720293045044,-82.73877716064453
0,476089,-12.080089569091797,13.337064743041992,28.503957748413086,-39.2303352355957
0,476092,66.3772964477539,-3.1396963596343994,-11.846525192260742,19.18021583557129
0,476093,-19.851016998291016,14.322776794433594,-24.932558059692383,-30.16128921508789
0,476096,-94.59182739257812,-30.817424774169922,10.56478214263916,7.101237773895264
0,476097,84.17537689208984,-21.99637794494629,45.129581451416016,62.32162094116211
0,476100,39.65416717529297,27.68631935119629,-9.049956321716309,31.605852127075195
0,476101,-111.2872543334961,2.3960061073303223,-47.61940002441406,-49.18268966674805
0,476104,-14.431416511535645,-22.63920021057129,10.375701904296875,-75.39738464355469
0,476105,36.91830825805664,17.642845153808594,18.723066329956055,12.059823989868164
0,476108,-20.09393310546875,3.6353554725646973,11.629281044006348,60.66343688964844
0,476109,16.580955505371094,-42.70063400268555,12.079338073730469,-24.234676361083984
0,476112,48.87263870239258,13.93887710571289,-11.256368637084961,28.622255325317383
0,476113,-23.549468994140625,24.623544692993164,-27.870609283447266,29.03940200805664
0,476116,-65.10369873046875,-19.306318283081055,-22.085508346557617,-130.2349853515625
0,476117,41.87137222290039,35.667579650878906,49.58699417114258,9.200387954711914
0,476120,83.1695556640625,41.796295166015625,44.83147048950195,121.20745086669922
0,476121,-40.21639633178711,-38.67295837402344,-58.4468994140625,-4.899698257446289
0,476124,-80.02384185791016,-32.62391662597656,-25.994609832763672,-32.567909240722656
0,476125,1.03513765335083,-17.287303924560547,34.30108642578125,-10.611205101013184
0,476128,49.784339904785156,29.338701248168945,-4.9560980796813965,-5.594834804534912
0,476129,1.7125256061553955,44.511749267578125,-11.620989799499512,-1.5529837608337402
0,476132,-9.102705955505371,-36.06210708618164,23.317920684814453,9.15817928314209
0,476133,-8.854390144348145,6.695507049560547,-1.8597939014434814,7.555047988891602
0,476136,-57.78145980834961,-6.35807991027832,-30.583995819091797,-19.440153121948242
0,476137,75.17498016357422,-12.142123222351074,45.877567291259766,21.131996154785156
0,476140,106.24627685546875,14.940237998962402,17.03399085998535,9.830365180969238
0,476141,-116.27873229980469,-57.919742584228516,-80.57373046875,-60.81270980834961
0,476144,-96.5894775390625,18.165592193603516,1.5007846355438232,-7.344829082489014
0,476145,59.92357635498047,62.65631103515625,38.855281829833984,51.657989501953125
0,476148,69.3534164428711,-24.426990509033203,-2.1353936195373535,31.17267417907715
0,476149,33.03956604003906,-13.250666618347168,13.96685791015625,-11.936007499694824
0,476152,-6.638471603393555,7.960594654083252,-7.6718220710754395,-56.2696647644043
0,476153,-108.32456970214844,-44.789306640625,-41.03366470336914,-48.690086364746094
0,476156,-65.99201202392578,-8.69544792175293,-9.072484970092773,25.580297470092773
0,476157,147.17098999023438,64.73006439208984,75.00528717041016,102.28311157226562
0,476160,48.67167282104492,24.61172103881836,17.98116111755371,13.464622497558594
0,476161,-86.79496765136719,-44.1351203918457,-55.828556060791016,-46.152103424072266
0,476164,-13.651638984680176,3.2419614791870117,8.342010498046875,-10.14151668548584
0,476165,19.795331954956055,42.82147979736328,-2.0746121406555176,-66.02154541015625
0,476168,21.527400970458984,-31.54030990600586,-24.163537979125977,29.11461639404297
0,476169,-37.49177169799805,-24.38813591003418,9.260455131530762,101.43888854980469
0,476172,44.196929931640625,30.58565330505371,48.45897674560547,-11.908913612365723
0,476173,0.6339359879493713,-18.928720474243164,-16.271738052368164,-77.93194580078125
0,476176,-120.2334213256836,-27.095844268798828,-50.67995071411133,18.15108871459961
0,476177,87.5624008178711,66.875,43.783897399902344,132.69219970703125
0,476180,99.63298034667969,9.08588695526123,-4.719110012054443,-51.16940689086914
0,476181,-87.971435546875,-77.13750457763672,-22.79728126525879,-188.79576110839844
0,476184,-102.85554504394531,-19.132688522338867,9.546789169311523,4.374643325805664
0,476185,46.66512680053711,41.81881332397461,-12.930018424987793,129.4474639892578
0,476188,61.62192153930664,9.500629425048828,12.625019073486328,-28.48982048034668
0,476189,-71.25784301757812,-62.188636779785156,5.468513488769531,-94.74796295166016
0,476192,64.60648345947266,36.25712203979492,12.55888557434082,87.42607116699219
0,476193,47.561649322509766,68.58043670654297,-9.094733238220215,73.41252899169922
0,476196,-114.94279479980469,-42.79623031616211,-25.35854721069336,-66.70355987548828
0,476197,58.247745513916016,-1.9382051229476929,18.988861083984375,-24.708738327026367
0,476200,99.23522186279297,16.426790237426758,11.656689643859863,44.65178680419922
0,476201,-69.82882690429688,6.652846813201904,-3.3962316513061523,10.656005859375
0,476204,-78.10487365722656,18.950044631958008,8.809637069702148,-16.38398551940918
0,476205,49.17192077636719,-3.234546422958374,26.540388107299805,32.79599380493164
0,476208,18.24213218688965,-45.61513137817383,-22.50778579711914,-56.48382568359375
0,476209,-53.76488494873047,-42.04786682128906,-55.5677604675293,-109.80342102050781
0,476212,69.69219207763672,70.86344909667969,29.96805191040039,109.14446258544922
0,476213,-2.5947558879852295,14.529725074768066,40.15123748779297,70.61599731445312
0,476216,-58.34381103515625,-29.98042106628418,-17.785804748535156,-65.0011215209961
0,476217,63.44771194458008,6.936954021453857,-5.482657432556152,1.1687308549880981
0,476220,1.507320523262024,-41.413719177246094,-20.49899673461914,-2.122039556503296
0,476221,-56.106048583984375,1.6340017318725586,-28.0034236907959,-8.91977596282959
0,476224,-36.85293197631836,7.510508060455322,31.572067260742188,17.655744552612305
0,476225,30.982864379882812,7.465811252593994,12.461941719055176,55.26142883300781
0,476228,82.00408935546875,40.11228942871094,-2.1645219326019287,4.698502540588379
0,476229,-18.152965545654297,5.018265247344971,33.8405647277832,-23.641328811645508
0,476232,-8.636655807495117,-20.92522430419922,-34.395572662353516,-6.2222371101379395
0,476233,-29.601919174194336,-36.69460678100586,-49.550437927246094,-45.2410774230957
0,476236,-38.15778350830078,7.170031547546387,55.11498260498047,3.4005508422851562
0,476237,97.08853912353516,41.539798736572266,44.751739501953125,47.906959533691406
0,476240,-30.996158599853516,-26.12995147705078,-48.00334930419922,16.097929000854492
0,476241,-101.52467346191406,-56.53336715698242,-29.313947677612305,-77.03248596191406
0,476244,23.680238723754883,25.119291305541992,11.604557991027832,-65.52066040039062
0,476245,39.67345428466797,47.8788948059082,-3.829416275024414,35.16585159301758
0,476248,57.196414947509766,19.48215103149414,33.7039794921875,65.155029296875
0,476249,-10.12260627746582,-10.713971138000488,24.593645095825195,80.82390594482422
0,476252,-66.90576171875,-59.38738250732422,-48.86588668823242,-80.8401870727539
0,476254,-17.461008071899414,7.890664577484131,-23.45128631591797,-96.8326644897461
0,476256,13.787196159362793,48.69917297363281,7.7027058601379395,37.94487380981445
0,476258,85.58802795410156,9.428756713867188,37.26496505737305,23.706283569335938
0,476260,-24.913833618164062,-19.61341667175293,29.00197982788086,46.046791076660156
0,476262,-88.20927429199219,-22.64328384399414,-52.799095153808594,15.149717330932617
0,476264,51.33989715576172,49.61944580078125,-2.581357955932617,1.7816075086593628
0,476266,25.34210205078125,9.007501602172852,39.3779182434082,6.838754653930664
0,476267,-4.410506248474121,-73.72492980957031,-11.121720314025879,-48.006744384765625
0,476270,4.69458532333374,-38.571136474609375,-15.059775352478027,-27.64666748046875
0,476272,-8.34938907623291,27.57040786743164,-15.341694831848145,37.94089889526367
0,476273,-16.89826774597168,54.87530517578125,-22.292818069458008,6.859132289886475
0,476276,-37.18229293823242,-6.280538082122803,20.634902954101562,-31.166017532348633
0,476277,58.31572723388672,1.653791904449463,37.54706954956055,-8.268393516540527
0,476280,47.194461822509766,10.448203086853027,-14.622920989990234,-0.5447073578834534
0,476281,-72.77652740478516,-27.568965911865234,-15.760066032409668,5.5608720779418945
0,476284,2.386240243911743,47.16806411743164,20.29703712463379,32.68303298950195
0,476285,44.62080764770508,11.31213092803955,7.844706058502197,44.01152420043945
0,476288,-17.953378677368164,-84.81708526611328,0.05658341944217682,-38.62589645385742
0,476289,4.425190448760986,13.446389198303223,-3.9254448413848877,-62.20069885253906
0,476292,-15.887530326843262,56.064048767089844,-10.65498161315918,10.722070693969727
0,476293,-60.85871124267578,-6.512835502624512,-6.470418930053711,59.78860855102539
0,476296,-4.951665878295898,-26.069719314575195,-16.588560104370117,57.34136962890625
0,476297,91.05850982666016,-41.73485565185547,10.110821723937988,-9.141536712646484
0,476300,40.94778060913086,-37.92224884033203,-2.8523731231689453,-123.63922119140625
0,476301,-74.41204833984375,45.99861526489258,-1.9942349195480347,-37.387847900390625
0,476304,-27.063201904296875,60.67445373535156,24.758581161499023,96.11089324951172
0,476305,40.094871520996094,-30.27362632751465,4.845324516296387,5.472629070281982
0,476308,15.079422950744629,-23.631153106689453,-10.530623435974121,-14.795023918151855
0,476309,-15.845283508300781,-24.711336135864258,-26.30554962158203,21.868024826049805
0,476312,-0.48450779914855957,9.689220428466797,20.708690643310547,-65.35192108154297
0,476313,-65.37876892089844,-65.22503662109375,-49.124813079833984,35.28351593017578
0,476316,-15.111798286437988,15.816238403320312,-15.246192932128906,114.86821746826172
0,476317,150.9571990966797,231.1043701171875,159.10389709472656,-64.02489471435547
0,476320,-4.653600692749023,-55.42515182495117,-26.82236099243164,-35.57660675048828
0,476321,-111.18538665771484,-130.0943145751953,-90.45671844482422,-5.112865924835205
0,476324,14.329445838928223,54.61813735961914,62.20355224609375,-62.59063720703125
0,476325,16.038162231445312,23.543865203857422,-24.905384063720703,5.7609543800354
0,476328,14.19515609741211,-6.746565818786621,-45.1945915222168,67.89567565917969
0,476329,28.362321853637695,-26.70922088623047,42.231571197509766,12.083489418029785
0,476332,6.507761001586914,-12.47291088104248,3.8517963886260986,-56.572608947753906
0,476333,-74.22209167480469,28.895971298217773,-20.147884368896484,25.080535888671875
0,476336,-65.67607116699219,5.058500289916992,2.5246689319610596,-6.4696245193481445
0,476337,133.65577697753906,-20.8441104888916,44.73705291748047,-131.4010772705078
0,476340,50.668853759765625,-7.156579971313477,5.112947463989258,106.12516784667969
0,476341,-128.13380432128906,-39.28843688964844,-101.84098815917969,166.701904296875
0,476344,-52.10282516479492,-13.083853721618652,-23.263002395629883,-119.24971008300781
0,476345,74.66606140136719,36.3044548034668,63.89981460571289,-81.40678405761719
0,476348,82.58934783935547,29.11907386779785,31.315994262695312,151.44528198242188
0,476349,-28.653982162475586,8.790236473083496,-6.8268609046936035,70.63870239257812
0,476352,-37.79878234863281,-12.257678031921387,14.701593399047852,-134.35621643066406
0,476353,-10.70792293548584,24.966379165649414,4.733301639556885,-157.02386474609375
0,476356,-2.233584403991699,-15.016741752624512,-45.783782958984375,24.81509017944336
0,476357,37.82979202270508,-35.27099609375,-7.700671195983887,227.9565887451172
0,476360,16.8290958404541,17.841581344604492,24.11128044128418,-38.46979522705078
0,476361,-35.12750244140625,-1.5313794612884521,1.9487634897232056,-183.9122772216797
0,476364,-18.267967224121094,22.266748428344727,-10.058263778686523,92.45731353759766
0,476365,58.841732025146484,37.285850524902344,28.742753982543945,144.36766052246094
0,476368,-7.272527694702148,-36.645973205566406,-17.209863662719727,-105.12399291992188
0,476369,-67.87411499023438,-51.7259407043457,-34.185855865478516,-128.6407012939453
0,476372,25.163619995117188,17.286670684814453,43.032962799072266,89.59432983398438
0,476373,-15.058793067932129,16.771766662597656,3.6198930740356445,96.72966766357422
0,476376,-37.65721893310547,-5.978997230529785,-28.508596420288086,-39.41838073730469
0,476377,85.9056167602539,-28.429853439331055,4.791108131408691,-50.847496032714844
0,476380,29.986509323120117,2.7569289207458496,6.73105001449585,-19.190475463867188
0,476381,-90.50778198242188,51.35517120361328,-2.32881498336792,-24.175029754638672
0,476384,-19.328237533569336,-13.259452819824219,2.5443997383117676,116.67023468017578
0,476385,63.608131408691406,-8.133232116699219,13.707550048828125,60.4195556640625
0,476388,27.655622482299805,103.89685821533203,68.99457550048828,-112.77391815185547
0,476389,-18.417722702026367,-18.905065536499023,-25.24042320251465,-31.562402725219727
0,476392,23.172611236572266,-135.33731079101562,-108.49296569824219,26.898984909057617
0,476393,-26.814706802368164,22.480989456176758,22.198328018188477,7.18269157409668
0,476396,-91.91551208496094,8.04154109954834,25.548046112060547,-16.62432098388672
0,476397,89.59464263916016,-26.459030151367188,-1.227975845336914,-1.32171630859375
0,476400,44.446109771728516,5.016027927398682,-24.196374893188477,-32.00522232055664
0,476401,-133.0805206298828,-9.254280090332031,-17.936777114868164,-18.465192794799805
0,476404,18.252695083618164,45.931243896484375,65.33467864990234,16.748844146728516
0,476405,80.35575866699219,32.53507995605469,12.969710350036621,-39.25368881225586
0,476408,-0.2030152827501297,-20.073200225830078,-31.051992416381836,83.65377807617188
0,476409,-11.37708854675293,-9.293058395385742,10.550542831420898,114.26594543457031
0,476412,16.08644676208496,17.349872589111328,3.673962116241455,-79.86152648925781
0,476413,-36.55311584472656,-13.325544357299805,-30.02253532409668,-123.91202545166016
0,476416,-44.52978515625,-21.174854278564453,10.436782836914062,95.3259048461914
0,476417,97.6432113647461,39.90235900878906,37.01568603515625,128.3584747314453
0,476420,33.266239166259766,10.311532020568848,-18.605554580688477,-106.54479217529297
0,476421,-104.20259857177734,-44.44822692871094,-21.67746353149414,-63.53080368041992
0,476424,-53.05591583251953,-33.30108642578125,-21.717737197875977,-7.239729404449463
0,476425,63.77619934082031,-1.9200327396392822,-20.367961883544922,-56.74332809448242
0,476428,55.80839538574219,45.08053207397461,48.347591400146484,53.170352935791016
0,476429,-29.612823486328125,28.048690795898438,44.966896057128906,108.71363067626953
0,476432,6.188782215118408,-8.99759578704834,-17.00031852722168,-54.800411224365234
0,476433,-57.318634033203125,-31.27640151977539,-65.83050537109375,-165.5800018310547
0,476436,-43.05453109741211,0.09651734679937363,-3.693293571472168,76.59400939941406
0,476437,140.1181640625,32.25740432739258,68.84998321533203,183.1962890625
0,476440,11.3826265335083,-7.233952045440674,19.399864196777344,-6.7495341300964355
0,476441,-98.46231842041016,3.606032133102417,-31.312915802001953,-48.026641845703125
0,476444,-14.442063331604004,-21.01801872253418,-39.99736404418945,-44.50242233276367
0,476445,44.96311950683594,-36.00654983520508,16.625490188598633,-21.38068389892578
0,476448,39.706642150878906,45.086448669433594,31.86861801147461,48.274681091308594
0,476449,-23.331710815429688,34.44841003417969,-15.44304370880127,7.827488899230957
0,476452,33.61737823486328,-18.529726028442383,10.714336395263672,-2.746079683303833
0,476453,-38.161231994628906,3.81217885017395,8.755797386169434,-48.14398193359375
0,476456,-99.57420349121094,1.827695608139038,-21.50385093688965,-34.599822998046875
0,476457,105.5810317993164,-13.243971824645996,1.2784602642059326,66.38703918457031
0,476460,60.32484436035156,-20.415328979492188,-14.193254470825195,-33.62799835205078
0,476461,-117.37161254882812,-35.46903991699219,-7.831945896148682,-45.48999786376953
0,476464,-13.240616798400879,34.345008850097656,18.4835262298584,22.92572021484375
0,476465,68.55838775634766,36.21885681152344,11.064984321594238,20.395681381225586
0,476468,-22.319530487060547,-71.62498474121094,-17.81876564025879,-0.5045154690742493
0,476469,-17.19004249572754,4.444294452667236,-17.59027099609375,-48.24930953979492
0,476472,78.78336334228516,61.59476089477539,21.66233253479004,62.05781555175781
0,476473,-49.53036880493164,-31.531335830688477,7.244107246398926,106.65694427490234
0,476476,-84.98063659667969,1.0578678846359253,0.5875461101531982,-38.635284423828125
0,476477,111.04203796386719,25.134742736816406,16.339675903320312,-76.70702362060547
0,476480,29.4237117767334,16.631244659423828,9.447763442993164,9.88687801361084
0,476481,-95.36649322509766,4.697707653045654,-23.81923484802246,25.963911056518555
0,476484,-5.38415002822876,-34.8314094543457,-22.665340423583984,-31.94681167602539
0,476485,46.223289489746094,-0.8955474495887756,13.713683128356934,-19.3305606842041
0,476488,18.3377628326416,-16.034557342529297,1.219850778579712,21.5898494720459
0,476489,5.1947503089904785,6.996222019195557,-14.70759391784668,4.977784633636475
0,476492,-1.6772640943527222,37.582122802734375,7.191861629486084,19.528942108154297
0,476493,-78.29623413085938,-49.5272216796875,-0.2810575067996979,-15.203506469726562
0,476496,4.946573257446289,-24.475278854370117,-9.320775985717773,-29.90668296813965
0,476497,120.36198425292969,43.0020751953125,17.795589447021484,8.597270011901855
0,476500,-36.69073486328125,17.19953727722168,-1.301580548286438,-2.5481696128845215
0,476501,-107.3247299194336,5.074865818023682,-5.134470462799072,34.84489822387695
0,476504,0.01649455539882183,-10.855399131774902,-2.8471176624298096,0.9021129012107849
0,476505,88.17819213867188,-15.179335594177246,-27.25787925720215,3.4183506965637207
0,476508,26.95895004272461,17.416954040527344,26.41339874267578,31.66568946838379
0,476509,-61.3060417175293,-40.00607681274414,42.18675231933594,-89.39126586914062
0,476512,23.478015899658203,-46.66080856323242,-15.817887306213379,-18.222246170043945
0,476513,-25.835866928100586,67.65646362304688,-5.864189624786377,80.93059539794922
0,476516,-1.9085156917572021,78.25530242919922,15.665430068969727,-22.457717895507812
0,476517,112.94817352294922,-15.316367149353027,21.077312469482422,-3.504988431930542
0,476520,-101.2012710571289,-77.7639389038086,-21.794849395751953,31.937820434570312
0,476522,-89.3076400756836,-11.065594673156738,-58.560001373291016,-43.240623474121094
1,476525,59.52434158325195,34.75336456298828,13.598705291748047,-7.280246257781982
1,476525,25.04172134399414,-4.796480655670166,29.00656509399414,43.11201095581055
1,476528,50.061824798583984,15.774725914001465,-3.5760178565979004,-44.88315963745117
1,476529,-6.826864719390869,28.967084884643555,-5.130659103393555,-13.386499404907227
1,476532,-12.877976417541504,-21.73735237121582,-3.3274097442626953,74.56851196289062
1,476533,-26.965330123901367,-29.726818084716797,-14.422609329223633,-26.00205421447754
1,476536,-31.077573776245117,9.849143981933594,-21.39968490600586,-30.975704193115234
1,476537,90.85374450683594,-7.074873924255371,38.79283905029297,8.57116413116455
1,476540,12.545130729675293,-6.993478298187256,2.273477792739868,-63.512733459472656
1,476541,-98.90608215332031,-0.5612767934799194,-40.396728515625,20.26337432861328
1,476544,-10.830301284790039,-12.682031631469727,42.89654541015625,90.7053451538086
1,476545,71.24397277832031,41.91212844848633,22.498077392578125,24.12438201904297
1,476548,19.699541091918945,17.912107467651367,-25.82361602783203,-21.092872619628906
1,476549,-50.8577995300293,-44.33341598510742,-4.638685703277588,-30.044200897216797
1,476552,-13.555002212524414,-5.99785852432251,-1.2949267625808716,-31.434202194213867
1,476553,-21.275951385498047,46.37144088745117,0.8311429023742676,-32.63632583618164
1,476556,16.737199783325195,13.829960823059082,8.14649486541748,65.090576171875
1,476557,102.73861694335938,-28.033798217773438,1.7588422298431396,122.41996002197266
1,476560,-37.08194351196289,-35.73800277709961,-5.429269313812256,-89.3863296508789
1,476561,-82.92522430419922,-16.907546997070312,-2.859182596206665,-135.57862854003906
1,476564,18.46552848815918,48.97172546386719,10.014233589172363,55.73846435546875
1,476819,61.35523223876953,3.320977210998535,29.802316665649414,44.122249603271484
1,476820,83.48103332519531,-29.921920776367188,1.8701127767562866,-11.145023345947266
1,476823,84.63699340820312,43.06333541870117,-24.7291316986084,1.4188814163208008
1,476824,-10.144378662109375,-11.457316398620605,-5.813495635986328,19.56820297241211
1,476827,-229.84388732910156,-69.9983901977539,-29.348526000976562,-38.310935974121094
1,476828,-231.40089416503906,8.981552124023438,-39.69686508178711,-51.54441833496094
1,476831,-38.917381286621094,34.6097412109375,0.739198625087738,35.79904556274414
1,476832,85.09033203125,1.877949833869934,28.217304229736328,36.52108383178711
1,476835,95.78882598876953,20.12740135192871,30.783000946044922,26.624740600585938
1,477650,109.0197982788086,21.913944244384766,18.58468246459961,6.444147109985352
1,477651,146.5979766845703,-13.626107215881348,16.81975555419922,-13.107540130615234
1,477654,11.167381286621094,-23.595233917236328,-10.014911651611328,-20.991735458374023
1,477655,2.825476884841919,17.17542839050293,-1.628912091255188,-13.651881217956543
1,477658,42.46124267578125,-9.739192008972168,-5.6184210777282715,31.396564483642578
1,477659,-134.84681701660156,-56.84476089477539,-61.02366256713867,5.907660484313965
1,477662,-195.83358764648438,38.30662155151367,-4.339803695678711,-50.06172180175781
1,477663,-47.98374557495117,18.54400634765625,16.63111686706543,-17.045387268066406
1,477666,75.43266296386719,-32.63494873046875,2.6348743438720703,20.56208038330078
1,477667,57.93428421020508,47.050453186035156,37.66167068481445,4.163800239562988
1,477670,70.20714569091797,31.254039764404297,24.076095581054688,20.773557662963867
1,477671,62.017066955566406,-34.12786865234375,-11.186408042907715,20.10451889038086
1,477674,4.692232608795166,-15.949061393737793,-12.491820335388184,13.830204963684082
1,477675,20.33641242980957,33.94336700439453,12.609911918640137,-0.054333869367837906
1,477678,19.237564086914062,-8.108866691589355,-12.060592651367188,-48.493186950683594
1,477679,-78.10635375976562,-49.80036544799805,-24.079830169677734,-56.985355377197266
1,477682,-176.11825561523438,-12.255407333374023,-15.058977127075195,38.56727600097656
1,477683,-25.574853897094727,11.786648750305176,-5.21650505065918,76.2576904296875
1,477686,97.65393829345703,9.199173927307129,36.69390869140625,-22.838823318481445
1,477687,24.960538864135742,20.844738006591797,30.052974700927734,-7.8563761711120605
1,477690,90.62909698486328,22.81586456298828,-10.841181755065918,-1.6362082958221436
1,477691,46.05012130737305,9.730879783630371,-12.72629165649414,-29.525297164916992
1,477694,-105.01541137695312,-34.67755889892578,-3.230375289916992,6.8319878578186035
1,477695,18.497207641601562,-26.99810028076172,27.10797882080078,24.688404083251953
1,477698,90.25979614257812,19.948646545410156,-6.161348342895508,15.689481735229492
1,477699,-40.699867248535156,9.867326736450195,-42.838191986083984,-31.664018630981445
1,477702,-144.70309448242188,-6.189661502838135,-1.2320928573608398,-30.11979103088379
1,477703,-59.50938415527344,-7.811959266662598,2.315645217895508,9.32784652709961
1,477706,86.36670684814453,16.472776412963867,3.731822967529297,14.02601146697998
1,477707,38.05983352661133,-18.107881546020508,-0.1699105203151703,2.6800358295440674
1,477710,54.078285217285156,-17.896812438964844,3.918581485748291,-8.99850845336914
1,477711,32.66644287109375,54.146018981933594,3.6123838424682617,14.558631896972656
1,477714,-74.00514221191406,-28.18058967590332,2.168344020843506,16.749420166015625
1,477715,24.09364891052246,-21.36317253112793,39.57791519165039,-15.47834587097168
1,477718,60.37654495239258,53.21855163574219,-14.798197746276855,6.49473762512207
1,477719,-47.12470626831055,-44.6544189453125,-49.988616943359375,-13.616323471069336
1,477722,-104.2429428100586,2.0395424365997314,11.99945068359375,-50.52971649169922
1,477723,-9.621881484985352,34.39617156982422,2.718109369277954,14.076177597045898
1,477727,63.774600982666016,-40.91136932373047,-1.626956820487976,83.73561096191406
1,477728,29.626005172729492,13.11815071105957,20.81132698059082,88.05847930908203
1,477729,39.018463134765625,15.878934860229492,6.781640529632568,-61.843780517578125
1,477732,-49.56383514404297,-20.2993106842041,-18.86260986328125,-164.7428741455078
1,477733,-80.95671081542969,27.603492736816406,-11.316885948181152,40.08364486694336
1,477736,86.37906646728516,4.35162878036499,35.456092834472656,85.21768951416016
1,477737,108.20489501953125,-28.979806900024414,4.0745978355407715,-43.80727005004883
1,477740,-108.16602325439453,18.198728561401367,-34.34743118286133,8.913844108581543
1,477741,-91.51129913330078,10.66450023651123,-0.03811391070485115,17.85384178161621
1,477744,75.33281707763672,-13.192143440246582,15.030184745788574,-47.93933868408203
1,477745,22.665084838867188,4.8390374183654785,9.878058433532715,4.3676676750183105
1,477748,-4.840744495391846,3.749983310699463,-3.1610662937164307,27.45634651184082
1,477749,4.239311218261719,-13.26652717590332,3.613586664199829,-12.304474830627441
1,477752,-12.617115020751953,-17.86431121826172,0.6682456731796265,41.88994598388672
1,477753,-54.473819732666016,-3.160306453704834,-40.96091079711914,-15.445615768432617
1,477756,45.857505798339844,31.51164436340332,18.122377395629883,-35.70386505126953
1,477757,137.8328857421875,-13.541733741760254,40.41079330444336,51.7471809387207
1,477760,-119.33497619628906,-50.540565490722656,-59.633182525634766,-10.594756126403809
1,477761,-117.8393325805664,39.45256042480469,-28.451257705688477,-20.470951080322266
1,477764,87.82443237304688,23.49690818786621,43.78618621826172,10.226910591125488
1,477765,37.93291091918945,-7.8761138916015625,28.600000381469727,-49.98863983154297
1,477768,13.216850280761719,18.567516326904297,4.910436153411865,-3.659646511077881
1,477769,-9.451878547668457,-28.120975494384766,-0.5254775285720825,66.80003356933594
1,477772,-25.31128692626953,-2.0309367179870605,-6.036500453948975,18.83454132080078
1,477773,-61.70783996582031,8.157658576965332,-38.02828598022461,-50.95977783203125
1,477776,13.491680145263672,21.200714111328125,10.017669677734375,-11.374920845031738
1,477777,175.82777404785156,13.332392692565918,63.2713737487793,63.92772674560547
1,477780,-91.05990600585938,-64.3947982788086,-41.55065155029297,-13.886412620544434
1,477781,-167.7249298095703,0.7067036032676697,-46.097618103027344,-37.78498077392578
1,477784,115.59827423095703,45.0223503112793,50.22309875488281,-0.10883353650569916
1,477785,60.8511848449707,-13.380181312561035,-10.89590835571289,-7.137874126434326
1,477788,-18.072675704956055,-8.627663612365723,-17.101957321166992,67.4818344116211
1,477789,7.316359996795654,9.723984718322754,29.172704696655273,7.76732873916626
1,477792,-35.511653900146484,-2.0518980026245117,-22.277734756469727,-95.11180114746094
1,477793,-38.54518127441406,-11.506691932678223,-24.23236656188965,9.241110801696777
1,477796,53.6856689453125,0.7729286551475525,30.31005096435547,57.89439010620117
1,477797,83.73235321044922,19.724721908569336,30.03179931640625,2.5985159873962402
1,477800,-119.22645568847656,-8.018735885620117,-27.44083595275879,-42.095882415771484
1,477801,-84.23101043701172,-15.110950469970703,-20.25673484802246,-4.303175449371338
1,477804,92.46038818359375,5.923995494842529,26.03367042541504,18.591115951538086
1,477806,38.18799591064453,14.902660369873047,10.895806312561035,-4.5245256423950195
1,477808,1.8858586549758911,-24.914779663085938,-26.38162612915039,-8.326708793640137
1,477810,-11.03170394897461,-15.109661102294922,3.042755603790283,-5.544929027557373
1,477812,-35.15007019042969,25.379234313964844,35.242271423339844,23.34910774230957
1,477814,-29.98538589477539,18.431808471679688,-31.58231544494629,-6.4449052810668945
1,477817,82.91926574707031,20.941190719604492,-20.159664154052734,-28.340892791748047
1,477819,39.269893646240234,-45.18573760986328,21.64215660095215,9.96815299987793
1,477820,-119.75424194335938,-33.05633544921875,-15.181775093078613,47.17359161376953
1,477822,-7.15440034866333,35.614532470703125,8.508956909179688,-19.363889694213867
1,477824,53.291046142578125,16.854095458984375,15.038564682006836,-57.18342208862305
1,477826,19.257041931152344,14.957359313964844,-11.048694610595703,24.01749610900879
1,477828,8.556267738342285,-18.655536651611328,-7.819624900817871,62.68195343017578
1,477830,-16.313535690307617,-45.796024322509766,17.963851928710938,-7.302684307098389
1,477832,4.265331268310547,42.5477294921875,11.087100982666016,-53.933837890625
1,477834,-56.75914001464844,40.65252685546875,-28.149934768676758,14.561806678771973
1,477836,30.642494201660156,-28.818153381347656,19.213167190551758,25.753557205200195
1,477838,116.09180450439453,-0.7377498745918274,31.844093322753906,-21.743412017822266
1,477840,-101.52410888671875,-3.9377424716949463,-46.57366180419922,-27.618650436401367
1,477842,-73.41452026367188,-19.78575897216797,-10.487163543701172,15.814021110534668
1,477844,61.882633209228516,11.241082191467285,38.77660369873047,53.74968338012695
1,477846,2.0262131690979004,5.161630630493164,-16.786149978637695,-4.712902069091797
1,477848,36.358253479003906,-8.738829612731934,-18.920555114746094,-73.02218627929688
1,477850,5.335492134094238,4.194476127624512,5.828611373901367,10.133956909179688
1,477852,-62.02690887451172,-17.62362289428711,5.311446189880371,36.737884521484375
1,477854,-21.90483856201172,4.623049736022949,4.073726177215576,-18.26249885559082
1,477856,65.10433197021484,43.65433883666992,-1.3374006748199463,43.743560791015625
1,477858,101.15589141845703,11.780320167541504,5.388250827789307,8.326451301574707
1,477860,-110.88352966308594,-68.24590301513672,-20.255765914916992,-85.56961059570312
1,477862,-117.85253143310547,-46.11919021606445,-18.912521362304688,-8.604986190795898
1,477864,111.45606231689453,89.34529113769531,38.01108169555664,74.68781280517578
1,477866,44.292964935302734,24.474306106567383,13.222269058227539,1.200504183769226
1,477868,-25.54438591003418,-38.61103439331055,-1.779990553855896,-37.43885803222656
1,477870,22.64554786682129,14.119317054748535,13.040061950683594,14.475833892822266
1,477872,-43.646305084228516,-21.71258544921875,-22.018375396728516,-9.482697486877441
1,477874,-80.60724639892578,-29.11214828491211,-37.68695831298828,-2.5067992210388184
1,477876,83.64558410644531,15.518357276916504,14.069753646850586,35.290672302246094
1,477878,116.53327941894531,21.92475700378418,55.35264205932617,-8.18128776550293
1,477880,-127.64208221435547,-12.094467163085938,-13.751066207885742,-29.70588493347168
1,477882,-76.3335952758789,7.562270641326904,-29.075958251953125,2.5416133403778076
1,477884,91.15348052978516,24.64813995361328,6.652792930603027,20.458984375
1,477886,2.606985569000244,-0.1971420794725418,-18.56003761291504,-0.6156425476074219
1,477888,-0.36135992407798767,-11.928589820861816,-2.169246196746826,-3.5187928676605225
1,477890,28.10863494873047,-2.2006423473358154,2.5413081645965576,16.901607513427734
1,477892,-32.879852294921875,-7.419605731964111,-8.69039535522461,-7.023100852966309
1,477894,-73.44432067871094,-28.218952178955078,1.1993235349655151,-26.03045654296875
1,477896,51.10873794555664,18.442609786987305,18.528087615966797,-1.970306158065796
1,477898,102.14122009277344,24.84861183166504,33.632877349853516,13.83842658996582
1,477899,-44.556915283203125,-19.29587173461914,-6.677694320678711,13.036884307861328
1,477902,-67.81219482421875,-1.1729527711868286,-37.028541564941406,-25.20028305053711
1,477903,-0.06597644835710526,14.967132568359375,-2.694624900817871,-9.951395988464355
1,477906,67.63456726074219,-38.10477066040039,58.76103973388672,10.246912002563477
1,477907,-1.4309598207473755,-21.3272705078125,-6.7503743171691895,-40.226036071777344
1,477910,-40.197994232177734,60.89122772216797,-56.833526611328125,16.99392318725586
1,477911,-5.613711357116699,0.9058457612991333,16.015962600708008,42.42723083496094
1,477914,-85.18018341064453,-60.04579162597656,4.238577842712402,-16.93621253967285
1,477915,4.433835983276367,29.41826629638672,-11.656719207763672,18.43762969970703
1,477918,149.52867126464844,54.272613525390625,27.99224090576172,27.759016036987305
1,477919,33.870689392089844,-9.227490425109863,18.888839721679688,-9.470105171203613
1,477922,-95.19387817382812,-2.648263931274414,-28.102481842041016,-4.238391399383545
1,477923,3.5430715084075928,-0.031949833035469055,-10.548075675964355,22.58774185180664
1,477927,17.727174758911133,-29.70864486694336,14.0723876953125,-46.634674072265625
1,477928,-50.22998809814453,-8.156161308288574,-0.000810687430202961,-51.84123229980469
1,477929,48.95610809326172,-14.518608093261719,-11.237455368041992,82.31494903564453
1,477932,13.98097038269043,3.71830153465271,-13.640317916870117,3.1185414791107178
1,477933,-92.82936096191406,36.164615631103516,12.801718711853027,-90.31961822509766
1,477936,50.577369689941406,-0.4599141776561737,32.20740509033203,6.001026630401611
1,477937,129.5384063720703,3.273594379425049,5.312254905700684,69.73149871826172
1,477940,-106.28272247314453,-28.96973991394043,-54.33335494995117,17.392436981201172
1,477941,-96.60282135009766,-17.45014762878418,-26.356468200683594,-18.469942092895508
1,477944,64.6730728149414,17.897581100463867,41.40925598144531,-78.59814453125
1,477945,1.3461596965789795,-15.8411865234375,17.299840927124023,-43.04076385498047
1,477948,27.948781967163086,29.631914138793945,-16.87101173400879,125.68231964111328
1,477949,25.632511138916016,24.702516555786133,6.159640312194824,70.57662963867188
1,477952,-42.70332717895508,-18.88554573059082,18.536701202392578,-15.960123062133789
1,477953,-21.258451461791992,-4.162425518035889,-16.85137176513672,-58.84777069091797
1,477956,61.83299255371094,8.994914054870605,-15.025703430175781,-100.04210662841797
1,477957,23.03728485107422,-34.127227783203125,5.992323875427246,-54.26070022583008
1,477960,-105.74677276611328,-33.494544982910156,-18.1313533782959,85.3773422241211
1,477961,13.758051872253418,49.2903938293457,2.642169952392578,132.82591247558594
1,477964,86.03413391113281,49.24199295043945,34.453853607177734,-13.486884117126465
1,477965,-24.803316116333008,-3.7797701358795166,9.958054542541504,-10.50750732421875
1,477968,-7.4819841384887695,-37.94145965576172,-25.60801124572754,-24.960893630981445
1,477969,-17.100366592407227,-5.400274753570557,-16.502683639526367,-92.23110961914062
1,477972,-30.474245071411133,16.37008285522461,19.05263900756836,30.043901443481445
1,477973,-15.691662788391113,-22.829669952392578,-12.498234748840332,50.95922088623047
1,477976,38.98733901977539,-10.0242919921875,8.595343589782715,-23.258827209472656
1,477977,93.40889739990234,30.973926544189453,69.04784393310547,-2.5560219287872314
1,477980,-101.61942291259766,-6.249722003936768,-29.926517486572266,46.4547119140625
1,477981,-72.62944030761719,-27.03387451171875,-46.17762756347656,0.029777808114886284
1,477984,116.7110824584961,41.42776870727539,66.32540130615234,-66.09107971191406
1,477985,15.735551834106445,24.263538360595703,5.008780479431152,-9.169339179992676
1,477988,-22.998332977294922,-56.40846252441406,-130.45425415039062,7.796959400177002
1,477989,8.389548301696777,-2.6718175411224365,-57.78004837036133,32.334129333496094
1,477992,-67.13153839111328,15.330049514770508,59.41128158569336,12.87285327911377
1,477993,-112.2408447265625,-58.234642028808594,-18.902536392211914,-98.86254119873047
1,477996,103.73092651367188,37.97276306152344,31.67007827758789,37.44532775878906
1,477997,199.00494384765625,71.912109375,118.05278015136719,151.54727172851562
1,478000,-119.7581558227539,-42.56298065185547,-4.333187580108643,-99.1528549194336
1,478001,-106.88896942138672,-14.569958686828613,-13.270673751831055,-110.35043334960938
1,478004,91.14301300048828,22.990161895751953,70.54590606689453,111.77584075927734
1,478005,19.15839958190918,7.568696975708008,4.436845302581787,37.491981506347656
1,478008,24.428970336914062,-2.7424886226654053,-73.38298034667969,4.482397556304932
1,478009,3.820427417755127,-21.588638305664062,-41.753028869628906,23.078838348388672
1,478012,-131.9683837890625,-29.391141891479492,-66.06871032714844,-167.4923858642578
1,478013,-114.43171691894531,-7.155374050140381,-18.806198120117188,-116.74559020996094
1,478016,169.15843200683594,73.88433074951172,82.17639923095703,231.57125854492188
1,478017,186.35153198242188,48.546287536621094,12.111599922180176,161.53515625
1,478020,-152.9250030517578,-85.40184783935547,-32.03675842285156,-143.40786743164062
1,478021,-93.1263198852539,-58.0301513671875,-20.985633850097656,-90.76580810546875
1,478024,54.28926086425781,50.34284210205078,-13.935483932495117,29.02815055847168
1,478025,10.553391456604004,15.460735321044922,26.182632446289062,45.40081787109375
1,478028,-30.345563888549805,-40.64049530029297,18.011280059814453,-66.9227294921875
1,478029,-20.36905860900879,-3.826451301574707,31.451677322387695,-59.5517578125
1,478032,80.02787780761719,51.723819732666016,82.81666564941406,163.5198516845703
1,478033,32.45329666137695,22.679065704345703,-14.649033546447754,48.35750961303711
1,478036,11.612359046936035,-13.445611000061035,-85.5435562133789,-125.62747955322266
1,478037,37.40965270996094,-30.804513931274414,-33.86487579345703,-5.379761219024658
1,478040,-108.0155258178711,-40.34159851074219,-23.51613998413086,-6.088930130004883
1,478041,-114.94374084472656,8.881632804870605,-15.34505844116211,-30.94390296936035
1,478044,68.22339630126953,36.60219955444336,1.0272921323776245,64.31124877929688
1,478045,98.37317657470703,10.479586601257324,63.79572296142578,16.755599975585938
1,478050,56.31448745727539,3.4119691848754883,76.5690689086914,0.16802765429019928
1,478050,5.769098281860352,33.598365783691406,-0.7914659380912781,21.132572174072266
1,478052,-133.28265380859375,-53.91017532348633,-50.559295654296875,-46.164512634277344
1,478053,-109.70684051513672,-62.245574951171875,-51.51512908935547,-17.88116455078125
1,478056,111.52118682861328,58.59489440917969,39.05929946899414,28.36094856262207
1,478057,144.0194091796875,41.17643737792969,78.24710845947266,8.859663963317871
1,478060,-93.03455352783203,-21.57000732421875,-38.391815185546875,-3.017753839492798
1,478061,-123.07930755615234,-42.56850814819336,-84.40736389160156,-64.25733947753906
1,478064,27.63994026184082,20.214828491210938,-29.1455078125,-0.33392012119293213
1,478065,40.30799102783203,21.910449981689453,-12.154451370239258,75.16851806640625
1,478068,27.296058654785156,-13.777743339538574,-6.545716762542725,-47.21662902832031
1,478069,-5.43438720703125,13.921055793762207,-9.016289710998535,-40.44697952270508
1,478072,-1.618661642074585,-12.04647445678711,71.44295501708984,71.48894500732422
1,478073,-28.40533447265625,-9.581252098083496,109.76213836669922,75.1313705444336
1,478076,26.70339584350586,30.3310604095459,5.974360942840576,-82.669677734375
1,478077,121.34610748291016,25.73524284362793,-27.24679946899414,-86.61541748046875
1,478080,-76.27252960205078,-41.165992736816406,-82.64537811279297,94.96935272216797
1,478081,-88.68838500976562,-50.43321228027344,-46.70095443725586,48.05352783203125
1,478084,31.514307022094727,31.79222297668457,51.78219985961914,-60.23347854614258
1,478085,3.2875165939331055,52.41425323486328,-11.038569450378418,-26.124910354614258
1,478088,18.473535537719727,-3.692244529724121,39.872318267822266,55.75232696533203
1,478089,28.560264587402344,-5.394930839538574,79.53753662109375,-3.6053473949432373
1,478092,1.5621652603149414,7.705099582672119,-56.54676055908203,-26.999597549438477
1,478093,-64.62625122070312,-34.78328323364258,-98.08292388916016,76.13337707519531
1,478096,-9.874199867248535,-17.216983795166016,2.831012487411499,-94.61084747314453
1,478097,90.27766418457031,12.681073188781738,87.8257064819336,-89.37139129638672
1,478100,6.3857622146606445,17.90530014038086,29.826095581054688,125.67345428466797
1,478101,-81.86178588867188,7.106662273406982,-17.295944213867188,1.0090060234069824
1,478104,34.978328704833984,5.9351372718811035,49.24727249145508,-41.078887939453125
1,478105,51.64460754394531,1.1767696142196655,-20.436628341674805,-10.10300350189209
1,478108,-91.23662567138672,-42.10617446899414,-130.4134521484375,-1.1130812168121338
1,478109,-50.06694412231445,-11.676468849182129,-84.0940933227539,39.9916877746582
1,478112,40.72868347167969,4.843873500823975,-32.07303237915039,2.190403938293457
1,478113,-17.897254943847656,-12.566580772399902,9.03623104095459,55.7899169921875
1,478116,37.1872673034668,13.108065605163574,87.8662109375,39.73130798339844
1,478117,127.15530395507812,18.392658233642578,83.48826599121094,-44.69021224975586
1,478120,-103.51823425292969,-8.301200866699219,43.31782913208008,-94.46810913085938
1,478121,-101.27748107910156,-0.5827184319496155,48.67585754394531,-32.55552291870117
1,478124,100.12980651855469,1.1332368850708008,-17.444896697998047,56.167659759521484
1,478125,58.25001525878906,-4.3106608390808105,-26.63085174560547,3.4531638622283936
1,478128,39.277008056640625,24.50785255432129,7.004397869110107,-0.052230123430490494
1,478129,-22.705039978027344,8.888998031616211,10.99291706085205,16.869524002075195
1,478132,-64.08878326416016,2.756065607070923,5.6229424476623535,-30.028141021728516
1,478133,-72.24900817871094,-4.797971725463867,-80.46859741210938,-38.28057098388672
1,478136,-3.2477200031280518,-14.132096290588379,-39.9349479675293,43.28466796875
1,478137,129.133056640625,29.631969451904297,39.52450180053711,54.75577163696289
1,478140,-39.956146240234375,-13.467034339904785,-41.361148834228516,-26.16837501525879
1,478141,-90.5103530883789,-36.323177337646484,-59.56541061401367,-13.960409164428711
1,478144,56.85803985595703,20.63882064819336,24.583724975585938,24.000566482543945
1,478145,21.527509689331055,0.12454788386821747,46.67833709716797,-3.8760266304016113
1,478148,-7.654259204864502,-16.914541244506836,40.31711959838867,-21.557235717773438
1,478149,-37.1937370300293,2.397510290145874,14.844615936279297,-28.984739303588867
1,478152,-0.7092154026031494,-5.032894134521484,-1.3263978958129883,40.00799560546875
1,478153,18.799694061279297,-18.342655181884766,-14.567208290100098,30.037948608398438
1,478156,8.071051597595215,20.79092025756836,7.368754863739014,-55.053035736083984
1,478157,91.19703674316406,66.54231262207031,65.95299530029297,0.43985989689826965
1,478160,-37.65155029296875,-16.28040313720703,-38.515262603759766,6.917118072509766
1,478161,-95.85327911376953,-44.80776596069336,-61.489036560058594,18.60012435913086
1,478164,14.894567489624023,18.95943832397461,18.616119384765625,7.624138355255127
1,478165,47.66505432128906,-13.82882308959961,-49.74001693725586,-40.76116180419922
1,478168,21.004362106323242,-50.820030212402344,-69.49044799804688,62.55986785888672
1,478169,-42.596778869628906,11.024645805358887,18.608013153076172,25.28993034362793
1,478172,-5.639531135559082,71.7981948852539,8.374868392944336,-66.69168853759766
1,478173,-51.088783264160156,-26.7375431060791,11.152989387512207,-7.1947760581970215
1,478176,19.807857513427734,-18.664737701416016,172.32958984375,24.651935577392578
1,478177,133.70639038085938,40.487300872802734,60.618019104003906,20.854284286499023
1,478180,-68.49032592773438,-22.990720748901367,-141.0561065673828,-56.20485305786133
1,478181,-90.48823547363281,-10.44688606262207,-16.14290428161621,-23.400955200195312
1,478184,39.17361831665039,2.3387064933776855,20.440561294555664,35.5206298828125
1,478185,19.891204833984375,15.858858108520508,6.882009983062744,-2.597332239151001
1,478188,28.64006233215332,0.34899815917015076,89.25865936279297,6.215523719787598
1,478189,71.67000579833984,-4.200835704803467,49.2127799987793,5.919185161590576
1,478192,-20.183542251586914,37.03621292114258,-1.0947459936141968,3.4888594150543213
1,478193,-121.12522888183594,-11.9510498046875,-97.3612060546875,-7.522589206695557
1,478196,19.135576248168945,-21.982276916503906,-263.22735595703125,2.6558005809783936
1,478197,75.24899291992188,-8.673076629638672,-140.11204528808594,14.427445411682129
1,478200,-88.98310852050781,-27.16283416748047,129.10311889648438,9.133066177368164
1,478201,-45.33380126953125,8.764922142028809,164.51182556152344,1.3430488109588623
1,478204,91.801025390625,13.138969421386719,122.98922729492188,-17.667274475097656
1,478205,47.89024353027344,0.7715244889259338,46.488407135009766,-24.502784729003906
1,478208,-24.091821670532227,18.105125427246094,-73.09672546386719,-2.4038047790527344
1,478209,-8.423162460327148,-2.6310489177703857,-7.746484279632568,31.298778533935547
1,478212,-7.053319454193115,-33.00728225708008,34.61936950683594,-14.65822982788086
1,478213,-59.48031997680664,3.841618537902832,-21.664745330810547,-29.193655014038086
1,478216,51.12003707885742,38.09065246582031,1.3657288551330566,12.808465003967285
1,478217,111.63065338134766,5.853224277496338,-21.218902587890625,3.178882598876953
1,478220,-114.0388412475586,-26.178150177001953,-66.83616638183594,18.08837127685547
1,478221,-106.7017822265625,-6.824795246124268,-20.17329216003418,15.255642890930176
1,478224,85.62767028808594,14.489371299743652,65.99283599853516,18.445537567138672
1,478225,68.22360229492188,15.0946044921875,28.27517318725586,21.319303512573242
1,478228,3.7074472904205322,-20.030548095703125,-70.61904907226562,-19.92218589782715
1,478229,-25.27498435974121,-22.352436065673828,-36.706390380859375,-20.873422622680664
1,478232,-10.234212875366211,13.656278610229492,-21.94096565246582,-9.28329086303711
1,478233,-73.92190551757812,-20.537485122680664,-74.26995086669922,-78.0211410522461
1,478236,-0.42712074518203735,10.720004081726074,108.16004180908203,9.637693405151367
1,478237,154.73536682128906,46.36782455444336,203.33473205566406,140.51918029785156
1,478240,-57.317405700683594,-20.08570671081543,-35.561370849609375,-53.43326187133789
1,478241,-100.46477508544922,-32.14131164550781,-88.51799011230469,-78.01464080810547
1,478244,64.604736328125,13.056777000427246,-50.15013885498047,69.92784881591797
1,478245,22.42548179626465,16.6385555267334,-35.83411407470703,12.512282371520996
1,478248,-46.38997268676758,-8.123756408691406,53.442901611328125,-26.88665008544922
1,478249,-31.293798446655273,6.448559284210205,50.94112014770508,5.396035194396973
1,478252,45.07932662963867,30.79827880859375,24.063724517822266,-2.946016550064087
1,478253,4.090620994567871,8.68726634979248,-5.906758785247803,-20.094684600830078
1,478256,39.132572174072266,-13.9401216506958,-38.681278228759766,6.1040496826171875
1,478257,99.32901000976562,-18.92181968688965,-33.54963684082031,21.53787612915039
1,478260,-124.90293884277344,-39.25318908691406,-33.36829376220703,-20.197946548461914
1,478261,-138.2841339111328,-37.067012786865234,0.5847343802452087,-17.6500186920166
1,478264,70.7614517211914,40.38312530517578,3.559129238128662,18.322967529296875
1,478265,123.17943572998047,79.09551239013672,10.251607894897461,28.943082809448242
1,478268,-3.94484806060791,-39.653804779052734,54.470149993896484,1.429653525352478
1,478269,-98.56708526611328,-59.5136833190918,-25.440187454223633,-49.75547790527344
1,478272,53.25176239013672,27.337644577026367,-51.36669921875,27.088275909423828
1,478273,-2.19419002532959,-6.652070045471191,-2.166837453842163,30.9469051361084
1,478276,-76.86275482177734,10.969175338745117,45.66154861450195,-88.45751953125
1,478277,103.18099975585938,46.281673431396484,57.05696487426758,-9.557501792907715
1,478280,-4.853361129760742,-23.788278579711914,-11.723542213439941,113.0255355834961
1,478281,-67.06990814208984,-2.83097767829895,-1.3272688388824463,33.87706756591797
1,478284,40.29621505737305,29.2399845123291,-23.960508346557617,-75.67411041259766
1,478285,21.47057342529297,-26.469865798950195,-2.867830276489258,-59.71870422363281
1,478288,11.949153900146484,-19.398738861083984,48.52405548095703,38.83367919921875
1,478289,-44.85845184326172,29.894092559814453,-39.989906311035156,59.7402229309082
1,478292,-36.11894989013672,-16.85219383239746,-117.48787689208984,-27.19478416442871
1,478293,-29.242259979248047,-33.84043884277344,-48.124820709228516,-17.048656463623047
1,478296,49.16267776489258,64.99880981445312,185.84056091308594,51.71125793457031
1,478297,103.35027313232422,12.774471282958984,117.79948425292969,-2.4538557529449463
1,478300,-89.64128875732422,-86.8857421875,-175.05076599121094,-95.0233383178711
1,478301,-63.045074462890625,-29.13008689880371,-74.69129180908203,1.4280253648757935
1,478304,65.17839050292969,62.07005310058594,88.97990417480469,53.23565673828125
1,478305,17.04576301574707,38.58376693725586,22.68297576904297,-16.32984733581543
1,478308,15.997285842895508,-19.00734519958496,-5.6503005027771,2.599874496459961
1,478309,15.124317169189453,11.771280288696289,14.522912979125977,7.113987922668457
1,478312,-43.26552200317383,-14.726547241210938,31.967531204223633,10.817033767700195
1,478313,-47.33046340942383,-34.44713592529297,24.377689361572266,-16.370609283447266
1,478316,70.63372802734375,24.437393188476562,-49.68244552612305,-8.776032447814941
1,478317,97.07050323486328,9.644940376281738,-80.17410278320312,34.514404296875
1,478320,-138.877197265625,-30.357872009277344,-32.31237030029297,-2.6147031784057617
1,478321,-96.88335418701172,-17.79499053955078,-1.252190351486206,-3.47735595703125
1,478324,90.39606475830078,52.7707633972168,32.30171203613281,-3.915747880935669
1,478325,9.959933280944824,18.80738639831543,41.880218505859375,-10.305017471313477
1,478328,18.602937698364258,-53.24032211303711,19.33775520324707,-18.335124969482422
1,478329,34.773189544677734,4.950883865356445,36.571754455566406,-8.152179718017578
1,478332,-33.577816009521484,-1.4011962413787842,17.71824836730957,40.9985466003418
1,478333,-35.8319091796875,16.98465347290039,-53.809932708740234,-10.802942276000977
1,478336,63.07069778442383,23.091571807861328,-48.18160629272461,-19.82051658630371
1,478337,64.17910766601562,-22.245927810668945,23.406213760375977,11.773442268371582
1,478342,-170.15736389160156,-8.445021629333496,-7.783517837524414,9.020062446594238
1,478342,-76.56959533691406,-5.249428749084473,-31.495901107788086,25.28660774230957
1,478344,186.578369140625,20.535110473632812,32.043434143066406,-19.555194854736328
1,478346,24.953420639038086,-5.864459037780762,19.54289436340332,-18.083030700683594
1,478348,-76.5534896850586,-12.188563346862793,-0.646830677986145,15.245950698852539
1,478350,53.69350051879883,10.761877059936523,66.11429595947266,-11.171161651611328
1,478352,-7.256505012512207,-11.893149375915527,37.54694366455078,-35.5995979309082
1,478354,-97.90467834472656,19.004310607910156,-69.04277038574219,-2.2256112098693848
1,478356,81.97083282470703,36.33653259277344,-46.0799560546875,63.97515106201172
1,478358,106.67550659179688,-16.163057327270508,-14.456982612609863,22.547889709472656
1,478360,-129.9129180908203,-44.93535232543945,-84.47156524658203,-82.57247161865234
1,478362,-105.2032699584961,13.637101173400879,-9.26983642578125,1.540112018585205
1,478364,41.255638122558594,30.05682945251465,109.3408203125,89.69911193847656
1,478366,66.58785247802734,-17.96615219116211,85.4211196899414,-29.772014617919922
1,478368,67.88436889648438,10.997997283935547,37.435428619384766,-38.37778854370117
1,478370,21.609752655029297,-21.80392837524414,-118.56321716308594,-3.5958805084228516
1,478372,-69.95265197753906,-50.84722900390625,-134.045166015625,-10.253278732299805
1,478374,-105.02669525146484,46.74247360229492,89.73640441894531,43.04838943481445
1,478376,38.832725524902344,37.853214263916016,177.25624084472656,17.135944366455078
1,478378,107.69417572021484,-61.95789337158203,79.8052978515625,-39.098758697509766
1,478380,-51.72550964355469,-19.3089599609375,-138.61239624023438,-16.839372634887695
1,478382,-48.07465744018555,23.792783737182617,-340.4618835449219,7.586679935455322
1,478384,115.30732727050781,36.28240203857422,-37.530033111572266,46.20826721191406
1,478386,-42.49313735961914,68.06398010253906,371.7874755859375,24.830455780029297
1,478388,-129.5035858154297,-59.57795333862305,115.0810546875,-74.79305267333984
1,478390,134.26254272460938,-37.41719436645508,-143.21385192871094,3.04703426361084
1,478392,28.68262481689453,43.66199493408203,-30.32381248474121,27.47635269165039
1,478394,-122.01271057128906,-37.90082550048828,24.81743812561035,-16.337139129638672
1,478396,61.76152420043945,18.61627769470215,34.82040786743164,37.64274597167969
1,478398,88.8902359008789,39.990501403808594,17.68012809753418,-17.08646583557129
1,478400,-63.95264434814453,-58.35066223144531,-34.47750473022461,-48.75764083862305
1,478402,-112.81512451171875,-23.950042724609375,-107.69315338134766,-43.73828887939453
1,478404,63.13050842285156,48.280460357666016,-44.53175354003906,42.586395263671875
1,478406,47.9765625,-7.254035472869873,102.44026947021484,97.73362731933594
1,478408,-104.82543182373047,-32.464847564697266,32.75646209716797,-53.206825256347656
1,478410,56.420494079589844,38.86135482788086,-38.416954040527344,-14.273270606994629
1,478412,45.87331008911133,1.044719934463501,-63.51983642578125,52.019657135009766
1,478414,-71.22305297851562,-45.31532287597656,-44.771705627441406,2.2711379528045654
1,478416,72.47848510742188,-2.8619136810302734,84.8048324584961,-9.060866355895996
1,478418,70.63526916503906,52.79286193847656,125.07130432128906,-71.42318725585938
1,478420,-73.12364959716797,21.95623016357422,115.59514617919922,-25.041301727294922
1,478422,-26.20584487915039,-32.08344268798828,-34.327388763427734,37.432437896728516
1,478424,49.074188232421875,10.620201110839844,-206.7666015625,-9.780728340148926
1,478426,-1.9100112915039062,13.439406394958496,-73.4088134765625,26.932178497314453
1,478428,-18.690629959106445,-20.664966583251953,77.45132446289062,25.55874252319336
1,478430,-33.3159294128418,-25.822965621948242,11.980450630187988,-23.98306655883789
1,478432,-65.48543548583984,-15.558003425598145,-87.1243667602539,-3.0480616092681885
1,478434,-26.290363311767578,-2.988185405731201,24.70210838317871,-8.08117389678955
1,478436,100.80277252197266,67.82608032226562,135.2620086669922,38.442298889160156
1,478438,72.06424713134766,12.847264289855957,23.745189666748047,23.925655364990234
1,478440,-69.8946762084961,-81.60955810546875,26.513565063476562,-73.02626037597656
1,478442,-62.49220657348633,13.347041130065918,7.614822864532471,1.6922942399978638
1,478444,31.493715286254883,38.60308837890625,-154.81260681152344,69.21326446533203
1,478446,42.605690002441406,-30.51034164428711,-140.7310333251953,-16.522321701049805
1,478448,19.70671272277832,-14.22952938079834,42.22793197631836,-18.458032608032227
1,478450,61.950477600097656,34.247806549072266,204.27334594726562,-9.928876876831055
1,478452,-52.0338020324707,-6.032742977142334,55.65846252441406,-44.38138961791992
1,478454,-102.57899475097656,-39.39861297607422,-155.2482147216797,20.15135955810547
1,478456,69.85359954833984,26.62958526611328,-42.81938171386719,44.14568328857422
1,478458,47.052337646484375,33.9227180480957,-20.03396987915039,-28.174598693847656
1,478460,-100.36265563964844,-29.641551971435547,0.04489059001207352,-21.443708419799805
1,478462,-28.533355712890625,31.38627052307129,196.8892059326172,43.83194351196289
1,478464,76.00858306884766,47.72748947143555,125.11241149902344,-22.044082641601562
1,478466,33.041934967041016,-48.05813980102539,-49.11897659301758,-51.61628341674805
1,478468,-17.800621032714844,-28.382274627685547,-89.59015655517578,3.7328174114227295
1,478470,22.596332550048828,24.141141891479492,-171.11802673339844,0.6365984082221985
1,478472,-30.786502838134766,-18.00629234313965,-171.47354125976562,19.592967987060547
1,478473,-105.79973602294922,-15.445984840393066,63.59624099731445,89.99034881591797
1,478476,35.988121032714844,22.713306427001953,192.3120574951172,43.9161376953125
1,478477,100.65019226074219,-26.419239044189453,64.54151916503906,-50.62586975097656
1,478480,-46.057857513427734,-9.65792465209961,100.9445571899414,-53.16770553588867
1,478481,-30.16667366027832,51.31214141845703,97.14496612548828,-2.7968831062316895
1,478484,86.1587142944336,-27.839054107666016,-384.056396484375,-23.965768814086914
1,478485,49.06273651123047,-52.483001708984375,-353.8576354980469,-33.52225875854492
1,478488,-47.015987396240234,59.15988540649414,364.3692932128906,90.80706024169922
1,478489,-97.08438110351562,46.87862014770508,330.3826904296875,16.54313850402832
1,478492,-55.79318618774414,-53.602272033691406,-101.3377685546875,-68.63184356689453
1,478493,-20.993684768676758,-33.575679779052734,-56.84526062011719,-23.912250518798828
1,478496,107.9182357788086,39.92032241821289,10.444642066955566,4.936168193817139
1,478497,135.70021057128906,6.597919464111328,-37.385215759277344,37.57997131347656
1,478500,-86.74102020263672,-4.265236854553223,-49.96059799194336,35.68949890136719
1,478501,-68.58611297607422,5.014573097229004,-6.131163597106934,25.36557388305664
1,478504,51.371856689453125,-27.92989730834961,38.00564193725586,-31.3239803314209
1,478505,-18.99586296081543,3.3122527599334717,30.315673828125,-51.610504150390625
1,478510,11.534416198730469,42.02311706542969,25.298952102661133,23.197202682495117
1,478510,39.867252349853516,11.327984809875488,-33.88787841796875,56.262733459472656
1,478512,-86.68956756591797,-36.5278434753418,-68.76689147949219,-66.4293441772461
1,478514,-25.04224395751953,11.558736801147461,72.76211547851562,-33.16938018798828
1,478516,137.3639373779297,24.857250213623047,28.220901489257812,97.29068756103516
1,478518,9.25788688659668,-71.12247467041016,-341.5220642089844,-60.87800216674805
1,478520,-88.85912322998047,-28.141237258911133,-123.90145874023438,1.5123344659805298
1,478522,-90.4735336303711,45.29291534423828,401.9789123535156,85.96287536621094
1,478524,-41.81296920776367,15.008474349975586,187.60220336914062,-92.0872802734375
1,478526,115.70890045166016,25.441659927368164,-82.82693481445312,-14.964027404785156
1,478528,38.72932815551758,-3.8610081672668457,-16.67190170288086,29.335838317871094
1,478530,33.276119232177734,-9.768765449523926,-9.451772689819336,-3.2690467834472656
1,478532,-7.2555694580078125,1.0811575651168823,-50.572330474853516,4.670658111572266
1,478534,-93.9986801147461,-6.13257360458374,-23.10589599609375,-34.11709213256836
1,478536,79.26447296142578,32.79299545288086,23.101356506347656,-21.2010498046875
1,478538,50.989112854003906,-21.928340911865234,-63.53612518310547,15.653264045715332
1,478540,-93.1014404296875,-37.73210906982422,-45.74953842163086,59.450252532958984
1,478542,-70.89923095703125,17.877166748046875,51.84355545043945,20.233028411865234
1,478544,17.222763061523438,-16.181392669677734,-28.797565460205078,-54.323150634765625
1,478546,69.94502258300781,1.8741750717163086,41.237911224365234,28.526485443115234
1,478548,21.539705276489258,23.31509780883789,111.55115509033203,55.21435546875
1,478550,2.275310516357422,-29.717809677124023,-133.5015106201172,-80.78924560546875
1,478552,-13.002501487731934,17.134456634521484,-91.49465942382812,5.028343200683594
1,478554,-102.36543273925781,29.7213191986084,140.9094696044922,38.40996170043945
1,478556,17.472091674804688,-19.714332580566406,60.300960540771484,-67.53981018066406
1,478558,141.2598114013672,1.938499927520752,-17.3226261138916,43.035125732421875
1,478560,2.5101382732391357,6.136239051818848,-27.595006942749023,33.141754150390625
1,478562,-115.69993591308594,-59.89640426635742,-53.3029670715332,-84.39440155029297
1,478564,-8.592390060424805,-1.3233104944229126,56.64481735229492,-13.631547927856445
1,478566,10.846439361572266,40.055450439453125,-20.143213272094727,30.1135311126709
1,478568,-0.3342719078063965,-13.111621856689453,-133.64889526367188,17.48248291015625
1,478570,126.4937973022461,68.22770690917969,61.82081985473633,27.619577407836914
1,478572,-79.24065399169922,-20.07172966003418,67.95474243164062,-12.075642585754395
1,478574,-87.17951202392578,-58.64212417602539,8.78394603729248,1.4408085346221924
1,478576,156.03680419921875,68.68885803222656,55.36436462402344,5.3057427406311035
1,478578,30.323091506958008,33.47584533691406,-35.22569274902344,-21.062589645385742
1,478580,-109.81462860107422,-48.9700813293457,-65.91415405273438,-8.78597354888916
1,478582,-35.82939529418945,-26.872480392456055,15.468810081481934,10.632678985595703
1,478584,20.947036743164062,30.927940368652344,13.06702995300293,9.053614616394043
1,478586,22.301681518554688,-9.67983341217041,-37.3216667175293,11.602295875549316
1,478588,17.23578453063965,-35.18474578857422,23.379484176635742,14.575167655944824
1,478590,17.874095916748047,2.245133876800537,55.07476043701172,-16.82733726501465
1,478592,-32.7962532043457,-5.686446189880371,-45.38619613647461,-15.447476387023926
1,478594,-98.56861877441406,10.224431037902832,-37.36940002441406,-8.242630004882812
1,478596,65.70758819580078,42.1054801940918,73.3845443725586,15.924921035766602
1,478598,83.42227935791016,-48.320011138916016,-4.233314037322998,2.903846502304077
1,478600,-91.92852020263672,-22.856990814208984,-78.55208587646484,-30.78223419189453
1,478602,-64.2774658203125,75.87069702148438,39.27914810180664,6.307105541229248
1,478604,75.44302368164062,-1.2629399299621582,63.71570587158203,16.061960220336914
1,478606,86.59711456298828,-30.68409538269043,-27.695924758911133,22.355600357055664
1,478608,-33.80774688720703,8.841046333312988,-54.02728271484375,32.50340270996094
1,478610,-5.3395304679870605,11.00838851928711,7.236751556396484,-63.913570404052734
1,478612,-9.07502269744873,-18.24169158935547,48.532047271728516,-57.19520950317383
1,478614,-76.13612365722656,-29.075214385986328,-38.34195327758789,39.94160842895508
1,478616,69.67650604248047,54.71180725097656,-17.66264533996582,43.22079086303711
1,478618,75.16690063476562,0.1837451159954071,45.406585693359375,26.23454475402832
1,478620,-88.7549057006836,-62.39533996582031,-6.158544063568115,-49.48447799682617
1,478622,-49.04697799682617,22.707717895507812,-16.831254959106445,-51.17921447753906
1,478624,40.67142868041992,-0.7341548800468445,-18.064592361450195,25.300182342529297
1,478626,12.995162010192871,1.4715570211410522,19.7963809967041,86.46122741699219
1,478628,8.582324028015137,35.46025085449219,13.392431259155273,73.34286499023438
1,478630,24.225202560424805,-0.9290418028831482,-14.94038200378418,-103.59364318847656
1,478632,-54.257835388183594,-3.8630471229553223,9.829345703125,-99.09336853027344
1,478634,-68.5493392944336,-33.98027420043945,-16.875581741333008,63.38019943237305
1,478636,90.71695709228516,-5.5898213386535645,-5.683788299560547,50.6220703125
1,478638,92.22966003417969,49.90683364868164,21.61790657043457,-44.780731201171875
1,478640,-76.97816467285156,-10.11190414428711,2.128849744796753,-41.66490936279297
1,478641,-47.15574264526367,-29.614742279052734,-4.696239471435547,65.39801025390625
1,478644,40.947601318359375,19.30843162536621,-3.2650413513183594,28.24706268310547
1,478645,44.35292434692383,11.262565612792969,38.34175491333008,-80.398193359375
1,478648,-18.310094833374023,-0.36748918890953064,20.38255500793457,-26.375022888183594
1,478649,-65.83747863769531,1.8618829250335693,-54.87616729736328,44.19864273071289
1,478652,-14.112619400024414,-49.452232360839844,-36.67390823364258,29.430797576904297
1,478653,-46.91233825683594,-31.01009750366211,-8.19631290435791,-5.990550994873047
1,478656,63.63412094116211,44.37812805175781,38.35515594482422,1.6300216913223267
1,478657,156.65797424316406,49.25523376464844,44.04563903808594,13.376626014709473
1,478660,-108.68936920166016,-19.478038787841797,-31.232112884521484,16.268413543701172
1,478661,-105.28182220458984,-50.30495071411133,-16.924179077148438,29.479494094848633
1,478664,84.97064971923828,8.656952857971191,26.702648162841797,-32.137611389160156
1,478665,29.3890438079834,19.306060791015625,-1.5919394493103027,-76.96760559082031
1,478668,4.359555721282959,20.427061080932617,-18.47587776184082,-4.657561779022217
1,478669,1.1748855113983154,13.683917999267578,0.7693638801574707,4.725580215454102
1,478672,-44.643798828125,-28.138702392578125,-21.039756774902344,23.713890075683594
1,478673,-67.46614074707031,-19.225278854370117,-22.572017669677734,48.84974670410156
1,478676,63.76374816894531,13.861490249633789,66.6403579711914,-20.635719299316406
1,478677,115.15621185302734,18.245370864868164,43.42056655883789,-20.60224151611328
1,478680,-108.0869140625,16.248424530029297,-70.14735412597656,-14.422856330871582
1,478681,-80.31820678710938,0.3535889983177185,-23.798908233642578,-10.684822082519531
1,478684,71.73759460449219,-19.796911239624023,39.73027038574219,19.075218200683594
1,478685,21.67385482788086,1.3044955730438232,18.693998336791992,40.073455810546875
1,478690,58.3915901184082,-0.8270688652992249,-4.377575397491455,30.853160858154297
1,478690,33.93407440185547,1.3491542339324951,-24.516767501831055,-17.850406646728516
1,478692,-141.1996612548828,-20.249019622802734,-13.655024528503418,-45.8370246887207
1,478693,-103.54410552978516,-35.45881271362305,13.462896347045898,-8.338550567626953
1,478696,151.02882385253906,37.59330749511719,18.686979293823242,42.58224105834961
1,478697,126.72538757324219,29.74612045288086,-1.47550630569458,-1.1570559740066528
1,478700,-152.4093780517578,-16.853792190551758,-35.847076416015625,-65.11507415771484
1,478701,-83.02970886230469,-8.838582992553711,-11.947169303894043,-15.473651885986328
1,478704,77.77288818359375,-20.12154769897461,28.720272064208984,55.47550964355469
1,478705,28.14639663696289,-8.431268692016602,-7.667231559753418,19.349496841430664
1,478708,-1.9922691583633423,6.487313747406006,-9.781820297241211,-8.578338623046875
1,478709,-11.6331787109375,25.337182998657227,21.62276268005371,-7.460461139678955
1,478712,-19.754228591918945,13.965754508972168,-3.276156187057495,-7.620124816894531
1,478713,-40.95397186279297,-34.22641372680664,-23.36053466796875,2.7087626457214355
1,478716,53.88615036010742,14.578669548034668,15.854432106018066,-4.387113094329834
1,478717,138.4825897216797,41.40193557739258,28.00477409362793,27.118379592895508
1,478720,-64.43987274169922,-17.488502502441406,-19.968568801879883,41.56880187988281
1,478721,-130.21609497070312,-15.190211296081543,-16.118350982666016,-27.784866333007812
1,478724,63.70132827758789,-0.0959431380033493,18.858612060546875,-66.68050384521484
1,478725,72.32854461669922,-11.374396324157715,-5.399103164672852,-64.21874237060547
1,478728,-32.27336502075195,8.840690612792969,9.302022933959961,67.29011535644531
1,478729,-13.459803581237793,18.086944580078125,25.97946548461914,133.2582244873047
1,478732,-28.910263061523438,-15.833900451660156,-17.649585723876953,-64.96846771240234
1,478733,-84.44031524658203,-12.610214233398438,-12.741851806640625,-86.04377746582031
