Aktueller Finger,timestamp_ms,sensor_0,sensor_1,sensor_2,sensor_3
0,300047,15.060774803161621,17.92887306213379,48.65811538696289,19.86334800720215
0,300050,38.0557975769043,-0.5260412693023682,-21.672555923461914,2.5274479389190674
0,300051,-7.901428699493408,-8.646020889282227,-46.960227966308594,-18.537107467651367
0,300054,-37.697017669677734,-35.06521224975586,-2.6115341186523438,-20.767372131347656
0,300055,-70.92269134521484,8.520990371704102,16.582656860351562,-4.054356098175049
0,300058,-41.911094665527344,99.68364715576172,79.22538757324219,14.872989654541016
0,300064,28.705848693847656,54.705322265625,69.7260971069336,9.33824634552002
0,300064,49.93564224243164,-63.6864128112793,-39.12714385986328,-3.118018865585327
0,300065,13.316575050354004,-35.71346664428711,-30.538387298583984,9.099732398986816
0,300066,20.58951759338379,9.155555725097656,-9.081740379333496,0.8628588318824768
0,300067,47.78175735473633,-34.222190856933594,-55.15687561035156,-16.97612953186035
0,300070,-14.571045875549316,1.6855881214141846,1.9670289754867554,-0.1196686178445816
0,300071,-39.7278938293457,27.241819381713867,22.52666473388672,1.0191231966018677
0,300074,-6.719344139099121,-47.884605407714844,-55.414615631103516,-7.124682426452637
0,300075,-12.749099731445312,-21.556873321533203,-5.202291965484619,12.594820022583008
0,300078,-47.32292175292969,86.142822265625,100.0827865600586,3.854200601577759
0,300079,-54.70378875732422,88.9112319946289,94.4357681274414,-10.331535339355469
0,300082,13.909757614135742,-32.13990020751953,-16.111169815063477,15.333083152770996
0,300083,64.5776138305664,-84.208251953125,-90.01573181152344,-23.154905319213867
0,300086,80.75955963134766,-29.735157012939453,-50.12787628173828,-14.765307426452637
0,300088,46.57387161254883,-7.211420059204102,-15.788293838500977,41.475013732910156
0,300108,-51.48799514770508,0.6570623517036438,9.382367134094238,3.779264450073242
0,300108,-23.928512573242188,30.149532318115234,35.076393127441406,-1.271690845489502
0,300108,22.779495239257812,33.9806022644043,3.935842990875244,0.5317614674568176
0,300108,-4.295459270477295,-35.577213287353516,-15.331218719482422,-7.868585586547852
0,300108,0.7084848284721375,-0.7773416638374329,16.940427780151367,7.080471038818359
0,300109,-11.629170417785645,39.19060134887695,13.4572172164917,-15.489930152893066
0,300109,-30.29029655456543,-19.975624084472656,-12.785382270812988,-2.150054931640625
0,300109,-14.602544784545898,-11.404596328735352,-4.032530784606934,14.493328094482422
0,300109,4.172056674957275,11.66495132446289,16.11347770690918,-14.193927764892578
0,300109,-2.614004611968994,-17.93429946899414,-6.815138816833496,6.195096015930176
0,300111,-11.980415344238281,-23.766836166381836,-44.30031967163086,-14.514090538024902
0,300112,13.799612998962402,3.2978169918060303,-9.09188461303711,-20.7775936126709
0,300113,30.353370666503906,6.454937934875488,28.681697845458984,35.17484664916992
0,300116,-29.388687133789062,-14.819195747375488,-21.329120635986328,-26.06467628479004
0,300117,-64.60679626464844,-4.860637664794922,-6.524028778076172,-23.783126831054688
0,300120,-6.452583312988281,97.15154266357422,96.52948760986328,49.32547378540039
0,300121,29.50727653503418,51.09370422363281,32.75888442993164,28.540922164916992
0,300124,62.476837158203125,-104.95223999023438,-68.28065490722656,-21.161813735961914
0,300125,46.24436950683594,-61.31252670288086,-48.15715789794922,-29.4410400390625
0,300128,-22.170352935791016,38.61962127685547,-0.2686394453048706,8.71038818359375
0,300129,-23.231964111328125,37.273956298828125,46.224639892578125,20.3969783782959
0,300132,11.948780059814453,-15.533645629882812,-39.71607208251953,-11.334264755249023
0,300133,19.681568145751953,-28.252273559570312,-41.14344787597656,-20.814218521118164
0,300135,-4.532040596008301,0.47566601634025574,38.92852783203125,31.919309616088867
0,300169,-4.991722583770752,32.5185661315918,6.922954559326172,24.148698806762695
0,300169,2.3203535079956055,14.997721672058105,21.57139015197754,-33.46120071411133
0,300169,-8.704809188842773,-35.833805084228516,-1.2737665176391602,-19.946321487426758
0,300169,-27.224414825439453,-7.3743414878845215,-22.738811492919922,32.629905700683594
0,300169,-30.606597900390625,44.78767395019531,13.540244102478027,2.3123459815979004
0,300169,1.0706863403320312,4.460806369781494,15.334169387817383,-27.67040252685547
0,300170,13.856504440307617,-16.390897750854492,13.679743766784668,7.810708045959473
0,300170,1.728846549987793,15.044425964355469,11.77074909210205,17.576976776123047
0,300170,23.160608291625977,-2.5182931423187256,0.34729671478271484,1.552708387374878
0,300170,17.382047653198242,-26.533309936523438,-27.70873260498047,-23.49354362487793
0,300170,2.938330888748169,-36.849822998046875,-50.58221435546875,8.807361602783203
0,300170,-10.809821128845215,-0.6838142275810242,0.41881078481674194,22.91336441040039
0,300171,-20.721670150756836,14.665692329406738,42.09213638305664,-19.30770492553711
0,300171,21.936819076538086,7.650008678436279,-16.55524444580078,-28.745655059814453
0,300171,-4.335011959075928,15.807599067687988,-25.088912963867188,7.239927768707275
0,300171,-30.976394653320312,7.105929374694824,52.0804328918457,22.375951766967773
0,300172,1.5285686254501343,7.040684700012207,23.915529251098633,-6.308146953582764
0,300173,-1.5819283723831177,-8.910526275634766,-29.280973434448242,-4.5945258140563965
0,300174,-4.330729007720947,-16.93810272216797,6.2806878089904785,7.512746810913086
0,300175,-5.145570278167725,-14.34135627746582,-17.479022979736328,-6.2515645027160645
0,300178,-10.085527420043945,82.74951171875,34.3468132019043,-21.359516143798828
0,300179,-14.756326675415039,75.25016784667969,77.64543151855469,7.5019612312316895
0,300182,0.7091378569602966,-97.58513641357422,-53.34638214111328,28.714427947998047
0,300183,26.972949981689453,-55.952903747558594,-53.489959716796875,-6.460893154144287
0,300186,56.489463806152344,16.20330810546875,-15.064661979675293,-3.6987383365631104
0,300188,55.82933044433594,-9.028776168823242,-34.11507797241211,3.9928343296051025
0,300189,-60.56766891479492,24.168685913085938,64.26412200927734,-15.064656257629395
0,300192,-60.03620529174805,-8.36911392211914,4.618220329284668,16.074371337890625
0,300193,43.648834228515625,-60.955196380615234,-105.21409606933594,25.46738624572754
0,300196,17.85994529724121,2.824251651763916,25.325281143188477,-28.44063949584961
0,300197,-30.705352783203125,54.45542907714844,53.5543098449707,-28.344743728637695
0,300200,-48.045101165771484,47.45074462890625,56.029624938964844,22.3609676361084
0,300246,50.43124771118164,-38.70585250854492,-7.390312194824219,19.197765350341797
0,300246,92.40055847167969,-69.92185974121094,-115.57782745361328,-10.079821586608887
0,300246,-62.59444808959961,55.848976135253906,40.37115478515625,-12.015982627868652
0,300246,-52.338069915771484,30.09264373779297,63.34190368652344,9.69472599029541
0,300246,28.09335708618164,-28.29402732849121,-17.888338088989258,9.174603462219238
0,300247,-4.770777702331543,29.82795524597168,4.770928859710693,-15.736137390136719
0,300247,9.678190231323242,-0.9610440135002136,-13.407947540283203,-5.02014684677124
0,300247,32.01274871826172,-59.981842041015625,-21.434171676635742,29.566925048828125
0,300247,-0.36028045415878296,-9.515073776245117,-3.045469045639038,3.073143720626831
0,300247,-7.4453840255737305,34.10744094848633,-18.761844635009766,-35.85513687133789
0,300248,-7.13806676864624,-3.8435935974121094,-5.526264190673828,14.422459602355957
0,300248,-39.523590087890625,17.838207244873047,42.990291595458984,27.103992462158203
0,300248,-32.835601806640625,48.90150451660156,44.330284118652344,-19.911623001098633
0,300248,9.340721130371094,-10.955065727233887,7.711702346801758,-14.677029609680176
0,300248,13.213530540466309,-10.374115943908691,-7.490610122680664,8.737988471984863
0,300248,-6.2793426513671875,43.15269088745117,18.31883430480957,2.281466245651245
0,300249,11.063610076904297,-10.025522232055664,-8.113113403320312,-23.116535186767578
0,300249,28.388395309448242,-49.45418930053711,-29.23785972595215,-18.664749145507812
0,300249,14.313096046447754,-5.378622055053711,-4.208361625671387,25.344152450561523
0,300249,-19.20965576171875,-5.963704586029053,-5.055702209472656,17.426780700683594
0,300249,-15.764684677124023,-12.600138664245605,-10.230573654174805,-20.166751861572266
0,300249,11.262144088745117,-14.415074348449707,-19.142383575439453,-3.8164758682250977
0,300250,-9.51699447631836,-3.784392833709717,3.149606704711914,25.741397857666016
0,300251,-8.021167755126953,9.734411239624023,-22.766773223876953,-0.9735987782478333
0,300251,10.711616516113281,-10.538034439086914,-43.11640930175781,-18.14324188232422
0,300251,0.8635520339012146,12.812454223632812,37.04446792602539,13.759553909301758
0,300254,7.325567722320557,9.116533279418945,38.05072784423828,-29.868507385253906
0,300255,-8.003294944763184,-12.831764221191406,-5.342404842376709,-20.220294952392578
0,300258,-63.819374084472656,59.564701080322266,53.40296173095703,50.926002502441406
0,300259,-43.781166076660156,65.78887176513672,68.5100326538086,20.463247299194336
0,300262,74.9791488647461,-53.52375411987305,-57.88055419921875,-7.022961616516113
0,300263,82.70539093017578,-71.57759094238281,-79.72410583496094,-27.207948684692383
0,300266,-7.218778610229492,-25.03045082092285,-15.653935432434082,-12.553605079650879
0,300267,-7.5294270515441895,9.28839111328125,2.8350000381469727,27.203081130981445
0,300270,9.272626876831055,47.051109313964844,57.88386917114258,-2.1667051315307617
0,300271,-6.858453273773193,8.889833450317383,13.809752464294434,-2.464869976043701
0,300274,-13.826226234436035,-57.29602813720703,-89.71109771728516,19.718103408813477
0,300275,-13.674145698547363,-21.910602569580078,-21.251358032226562,3.7988359928131104
0,300278,-34.592411041259766,76.77286529541016,86.94924926757812,-23.1187801361084
0,300279,-33.55463409423828,63.991390228271484,71.17206573486328,-17.68076515197754
0,300281,20.752946853637695,-33.292903900146484,-24.198244094848633,5.017806529998779
0,300341,41.03177261352539,-30.65934181213379,-48.7165641784668,6.963804721832275
0,300342,2.2836990356445312,20.657936096191406,14.109846115112305,23.19019317626953
0,300342,-33.33702850341797,11.566447257995605,38.637451171875,10.610190391540527
0,300342,-9.101452827453613,13.534579277038574,23.728710174560547,-14.817611694335938
0,300342,30.809146881103516,-15.302146911621094,-24.28954315185547,-14.907955169677734
0,300342,28.94182014465332,-47.05808639526367,-50.416839599609375,3.7143242359161377
0,300342,10.250068664550781,-32.51615524291992,-37.12202072143555,5.597156524658203
0,300343,12.214262962341309,-18.13239288330078,-22.94664192199707,-27.05896759033203
0,300343,13.608692169189453,-2.105851411819458,-4.465317249298096,-8.263469696044922
0,300343,-19.067081451416016,6.739190101623535,-9.020673751831055,13.596630096435547
0,300343,-23.07745933532715,23.12931251525879,9.254790306091309,-14.749722480773926
0,300343,-17.55123519897461,20.12075424194336,36.60294723510742,3.1565101146698
0,300344,-25.012802124023438,-3.556976079940796,13.172757148742676,20.446889877319336
0,300344,-0.28543946146965027,-19.16302490234375,2.917362928390503,-5.702299118041992
0,300344,20.718534469604492,9.489203453063965,16.54203987121582,2.7738852500915527
0,300344,28.75263786315918,22.388731002807617,-11.715499877929688,1.4488520622253418
0,300344,17.331954956054688,-20.46686553955078,-38.66276931762695,10.202058792114258
0,300344,-8.341344833374023,-18.57227325439453,4.587896823883057,25.3802433013916
0,300345,4.917344570159912,17.707143783569336,18.87015724182129,-18.080076217651367
0,300345,11.330557823181152,-9.382949829101562,-20.9092960357666,-16.164960861206055
0,300345,-31.686582565307617,-22.88909912109375,-11.392248153686523,27.238298416137695
0,300345,-31.125553131103516,30.648170471191406,20.50337028503418,-10.398303031921387
0,300345,-3.395259141921997,39.76557540893555,26.952051162719727,-24.21735382080078
0,300345,10.230949401855469,-12.67927360534668,12.445793151855469,35.69040298461914
0,300346,13.036699295043945,-20.894054412841797,-5.237855911254883,16.658464431762695
0,300346,7.588682651519775,27.225419998168945,4.264052391052246,-32.66926574707031
0,300346,21.380970001220703,-0.008212806656956673,-1.7624937295913696,-19.847166061401367
0,300346,-5.355257987976074,-32.57341003417969,-19.26806640625,8.159317970275879
0,300346,-21.537273406982422,2.3218281269073486,-10.412261962890625,7.502762317657471
0,300346,7.87347936630249,26.65043830871582,2.8356823921203613,-11.90955924987793
0,300348,3.9824020862579346,21.16059112548828,47.90071105957031,-6.452016830444336
0,300348,-11.678257942199707,3.890622615814209,29.315410614013672,6.880808353424072
0,300348,-22.446813583374023,-7.536700248718262,-23.275053024291992,15.112664222717285
0,300349,-13.47186279296875,5.369429588317871,-6.656133651733398,3.2361538410186768
0,300352,20.57135772705078,-38.59995651245117,-47.50880813598633,-29.2619686126709
0,300353,10.440350532531738,-51.12018966674805,-47.56135559082031,-4.04126501083374
0,300356,-26.659774780273438,50.83256912231445,34.62837600708008,32.995849609375
0,300357,-39.75345230102539,41.93716812133789,39.67327117919922,3.1249706745147705
0,300360,-21.457813262939453,19.850767135620117,50.474727630615234,-6.762638568878174
0,300362,46.03101348876953,-12.887232780456543,12.93760871887207,16.236858367919922
0,300363,76.65538787841797,-45.80394744873047,-75.11425018310547,-0.4330698549747467
0,300366,25.008689880371094,-7.838845252990723,-39.78335189819336,-37.47964096069336
0,300367,-27.926218032836914,-47.52024459838867,-20.375240325927734,-34.25358200073242
0,300370,-21.318899154663086,43.21314239501953,58.107601165771484,6.808221817016602
0,300371,20.462234497070312,62.75617218017578,58.823143005371094,23.69880485534668
0,300374,13.036600112915039,-69.8749771118164,-94.8637466430664,22.800527572631836
0,300375,-18.43042755126953,-31.303789138793945,-27.504701614379883,17.47389793395996
0,300378,-47.48706817626953,53.2015495300293,70.87849426269531,-10.373672485351562
0,300449,21.836896896362305,24.00730323791504,25.301502227783203,-6.411660194396973
0,300449,66.46818542480469,-47.81650161743164,-25.50994110107422,16.76457405090332
0,300449,-49.0706672668457,-15.649599075317383,-19.20997428894043,-14.82518196105957
0,300449,-38.39799499511719,22.499109268188477,9.225202560424805,-23.002588272094727
0,300450,6.981282711029053,24.938922882080078,20.809621810913086,30.470741271972656
0,300450,-0.1535283625125885,18.330263137817383,8.010910034179688,11.765048027038574
0,300450,24.113842010498047,-3.811495065689087,2.890305519104004,-28.06835174560547
0,300450,-4.459155559539795,-3.0403354167938232,-0.402584433555603,-12.528173446655273
0,300450,10.001808166503906,-15.28841495513916,-30.81755828857422,-11.548375129699707
0,300451,16.60481834411621,-31.179380416870117,-24.011686325073242,19.71912384033203
0,300451,-20.510839462280273,-8.036895751953125,1.9660640954971313,22.556396484375
0,300451,-0.7728123664855957,8.71580696105957,-0.7936261892318726,-26.936052322387695
0,300451,9.164590835571289,11.097579002380371,-18.459186553955078,-5.1956610679626465
0,300451,-22.164825439453125,6.576709747314453,-3.2468056678771973,27.78436851501465
0,300451,-26.540245056152344,-1.5053621530532837,31.44940757751465,10.033336639404297
0,300452,3.7393224239349365,20.217416763305664,19.103668212890625,-15.479884147644043
0,300452,7.871145725250244,-8.280744552612305,-17.603328704833984,-4.456419944763184
0,300452,6.620054721832275,-3.8784964084625244,11.428144454956055,24.056800842285156
0,300452,20.5422420501709,27.07440757751465,24.229196548461914,-8.029458999633789
0,300452,2.3355205059051514,-19.273962020874023,-25.562856674194336,-24.33038902282715
0,300452,-16.19119644165039,-16.724271774291992,-15.548617362976074,-8.37268352508545
0,300453,0.14513076841831207,-4.215217590332031,15.443205833435059,-12.968148231506348
0,300453,-1.4675321578979492,-1.6256295442581177,1.1990492343902588,16.1856632232666
0,300453,-11.383743286132812,11.009475708007812,1.761039137840271,1.6893224716186523
0,300453,-3.395261287689209,-4.42683744430542,13.248994827270508,-18.69219207763672
0,300453,1.2363307476043701,5.45009183883667,8.211669921875,10.261691093444824
0,300453,12.646754264831543,14.452642440795898,-3.54761004447937,3.19478178024292
0,300454,5.183834075927734,-23.45710563659668,-4.460373878479004,8.677949905395508
0,300454,5.496242523193359,-22.00897979736328,7.410869121551514,12.66653823852539
0,300454,17.76573371887207,26.65620994567871,-17.499351501464844,-9.942049980163574
0,300454,-13.652449607849121,4.986723899841309,-25.860597610473633,14.60173225402832
0,300454,-16.390106201171875,-5.868452548980713,8.692255020141602,20.61249542236328
0,300455,-4.725976943969727,7.92204475402832,4.877116680145264,-17.673181533813477
0,300455,-20.498388290405273,-18.944692611694336,-9.20555305480957,-7.60991907119751
0,300455,1.421154499053955,0.48759129643440247,16.950035095214844,18.226680755615234
0,300455,15.633548736572266,35.02231979370117,9.14509105682373,3.3859713077545166
0,300456,-8.386754989624023,14.362170219421387,-0.552326500415802,-22.861982345581055
0,300456,0.038937848061323166,-3.1509344577789307,31.95318603515625,-16.624162673950195
0,300457,9.08884048461914,-0.7903019785881042,-10.031416893005371,5.127974033355713
0,300458,-11.058345794677734,38.40595245361328,32.62320327758789,-2.1601884365081787
0,300459,-5.130296230316162,46.36722946166992,77.5074234008789,-7.913069248199463
0,300462,35.33523941040039,-43.79894256591797,-50.30563735961914,37.16254806518555
0,300463,44.234718322753906,-71.80120086669922,-72.54337310791016,20.31632423400879
0,300466,17.344951629638672,-42.711936950683594,-47.169578552246094,-81.13286590576172
0,300467,0.7671799063682556,-9.056891441345215,-19.965791702270508,-22.40192413330078
0,300470,-16.730098724365234,59.018131256103516,62.14472198486328,74.59723663330078
0,300471,7.680204391479492,5.337911128997803,14.532255172729492,16.844392776489258
0,300474,-17.71849250793457,-73.57085418701172,-82.58963775634766,-15.050161361694336
0,300475,-64.00613403320312,-11.116378784179688,-48.12921905517578,-17.187602996826172
0,300478,-50.1641960144043,117.72908020019531,131.91090393066406,-24.624860763549805
0,300479,-18.180248260498047,81.23760223388672,132.57269287109375,14.217151641845703
0,300482,77.05599975585938,-96.22100830078125,-115.17750549316406,39.010528564453125
0,300483,57.23257827758789,-65.01993560791016,-95.13455200195312,-0.9032760262489319
0,300486,-14.06247615814209,-0.29558923840522766,14.307449340820312,-23.027616500854492
0,300488,2.176853895187378,14.221993446350098,-5.226635932922363,-6.7644147872924805
0,300489,-26.651975631713867,69.12190246582031,70.47943878173828,7.12449836730957
0,300574,-18.894515991210938,-29.614036560058594,-12.141222953796387,-7.843853950500488
0,300574,26.439144134521484,-101.97918701171875,-98.35604858398438,-7.506381988525391
0,300574,12.176069259643555,8.32745361328125,9.838849067687988,20.348852157592773
0,300574,2.336482524871826,29.696731567382812,19.84572982788086,-6.972760200500488
0,300575,11.37232780456543,-9.917159080505371,-9.621670722961426,-14.138030052185059
0,300575,-21.617773056030273,24.04335594177246,-1.6277029514312744,-2.4660210609436035
0,300575,-42.65191650390625,24.52730941772461,31.304088592529297,-5.335816383361816
0,300575,-9.80140495300293,18.49317741394043,42.524452209472656,4.257736682891846
0,300575,-8.547113418579102,16.859481811523438,20.27515983581543,19.403289794921875
0,300575,2.7159743309020996,9.451774597167969,29.143156051635742,14.854133605957031
0,300576,31.026212692260742,15.634116172790527,-3.126939058303833,-5.1233367919921875
0,300576,7.590048313140869,-20.72724723815918,-31.475534439086914,-0.13797086477279663
0,300576,3.135775566101074,-34.81396484375,-13.723454475402832,4.562135219573975
0,300576,8.327473640441895,6.500708103179932,0.6158331036567688,-2.4815404415130615
0,300576,-5.142665863037109,7.199444770812988,-3.831559896469116,-5.863248348236084
0,300576,-11.016576766967773,-5.292916297912598,-5.103660583496094,-19.39089012145996
0,300577,-18.41313934326172,6.87393856048584,7.978254318237305,9.875725746154785
0,300577,0.8751010298728943,12.732502937316895,3.416599750518799,26.1354923248291
0,300577,-1.5121246576309204,7.622191905975342,17.76601219177246,-10.601804733276367
0,300577,-7.034729957580566,9.451691627502441,36.62054443359375,-14.242496490478516
0,300577,21.152164459228516,-3.871171236038208,-3.1207668781280518,5.498147010803223
0,300577,9.889599800109863,-19.279890060424805,-14.85062026977539,18.31418800354004
0,300578,2.975632667541504,2.140681266784668,-10.676222801208496,-32.38214111328125
0,300578,12.605999946594238,0.5979017019271851,-29.68924903869629,-12.800745964050293
0,300578,-0.9532010555267334,-27.4848575592041,9.589201927185059,39.40740203857422
0,300578,-16.965606689453125,-0.8375203609466553,13.065275192260742,-23.287918090820312
0,300578,-2.1802167892456055,33.583797454833984,-10.085585594177246,-9.693936347961426
0,300579,8.459653854370117,6.725654125213623,5.639233112335205,15.26709270477295
0,300579,-23.682416915893555,-17.738664627075195,16.540353775024414,-16.04677391052246
0,300579,-2.871060371398926,-6.557943820953369,-1.500438928604126,10.478888511657715
0,300579,27.89167594909668,5.492528438568115,-39.854984283447266,13.388073921203613
0,300579,-2.001735210418701,8.054211616516113,-17.025691986083984,-7.2291579246521
0,300579,3.787645101547241,2.9755971431732178,9.496822357177734,-0.14698895812034607
0,300580,11.389150619506836,-24.67172622680664,-8.819963455200195,-2.844421863555908
0,300580,1.1209760904312134,-22.431604385375977,-16.11452865600586,12.0992431640625
0,300580,1.5827600955963135,13.88861083984375,10.19884204864502,15.014324188232422
0,300580,-6.2850446701049805,1.646823525428772,4.961514949798584,-7.686886787414551
0,300580,-3.796769618988037,-1.9523597955703735,-3.974545955657959,0.9457434415817261
0,300580,2.764296293258667,9.684410095214844,10.171775817871094,-11.638509750366211
0,300581,6.986990451812744,-21.49422264099121,-15.823484420776367,-13.526779174804688
0,300581,-4.9845805168151855,-12.205415725708008,-2.7532799243927,19.81741714477539
0,300581,-0.670317530632019,31.0433406829834,22.36470603942871,-7.881839275360107
0,300582,69.40374755859375,28.737367630004883,-3.9374144077301025,-50.88873291015625
0,300582,36.607444763183594,-0.815119206905365,1.2930647134780884,-0.7816794514656067
0,300583,-58.941993713378906,-11.062650680541992,13.194138526916504,14.435259819030762
0,300583,-16.536996841430664,-11.284845352172852,-22.33809471130371,-18.999588012695312
0,300584,1.0793410539627075,-22.74901008605957,-45.966392517089844,13.385558128356934
0,300585,-32.74136734008789,-34.48430252075195,-12.999408721923828,54.30582046508789
0,300588,-3.9284698963165283,39.34571838378906,79.64876556396484,72.09783935546875
0,300589,37.411251068115234,69.97584533691406,41.603187561035156,-32.14280700683594
0,300592,-15.018657684326172,-99.95345306396484,-111.00765228271484,-98.32302856445312
0,300593,-59.098915100097656,-90.66338348388672,-58.041648864746094,2.6229474544525146
0,300596,-23.73909568786621,94.19859313964844,86.58126831054688,47.47220230102539
0,300597,-30.904972076416016,82.14092254638672,109.3165512084961,31.97389030456543
0,300600,-0.4550115466117859,14.599437713623047,50.9121208190918,-8.139425277709961
0,300601,48.0432243347168,-36.2119026184082,-54.72046661376953,-31.632959365844727
0,300604,57.13592529296875,-62.542476654052734,-104.1570053100586,-22.135448455810547
0,300605,41.87254333496094,12.139327049255371,-18.735933303833008,23.249347686767578
0,300608,-8.676231384277344,51.182151794433594,73.99234008789062,25.725126266479492
0,300609,-40.27405548095703,12.498214721679688,29.592206954956055,-40.704402923583984
0,300612,-3.0036933422088623,-34.34536361694336,-57.02316665649414,2.8433117866516113
0,300613,22.00064468383789,-31.68784523010254,-64.02214813232422,12.15465259552002
0,300616,-42.58828353881836,11.530158042907715,24.35785675048828,-5.546118259429932
0,300618,-55.611087799072266,44.83412551879883,102.47029113769531,19.855493545532227
0,300713,74.80337524414062,6.1351542472839355,-32.048072814941406,-8.060007095336914
0,300714,91.92545318603516,-29.648181915283203,-95.62747955322266,-11.96656322479248
0,300714,-64.10790252685547,-0.22435565292835236,50.188941955566406,-4.81921911239624
0,300714,-58.671791076660156,-13.996084213256836,27.3812198638916,-8.906550407409668
0,300714,1.0962947607040405,17.347745895385742,-13.433416366577148,1.2915633916854858
0,300714,-1.3753702640533447,35.713748931884766,35.17951202392578,22.315488815307617
0,300714,25.173851013183594,-27.059274673461914,-12.128677368164062,17.85466766357422
0,300715,14.479907035827637,-25.893898010253906,-15.75627613067627,-12.680219650268555
0,300715,-6.438820838928223,-7.760895729064941,-2.6213912963867188,-5.730473518371582
0,300715,-12.510488510131836,-9.824300765991211,-36.3912239074707,12.241480827331543
0,300715,-12.375943183898926,1.7930618524551392,5.708657264709473,-0.0297979898750782
0,300715,4.122881889343262,-2.748495578765869,20.906673431396484,-23.130277633666992
0,300715,-7.481669902801514,3.1195731163024902,-17.082191467285156,-5.983819484710693
0,300716,-34.02339553833008,30.699913024902344,14.262763023376465,15.438118934631348
0,300716,-3.867994546890259,11.449427604675293,53.4152946472168,3.233363389968872
0,300716,28.427932739257812,-0.5959912538528442,10.518884658813477,-13.240304946899414
0,300716,23.731517791748047,9.628396987915039,-26.55725860595703,-20.30326271057129
0,300716,7.958104610443115,2.6442408561706543,-0.1705440878868103,23.219379425048828
0,300716,-5.970568656921387,-3.3055167198181152,20.09243392944336,16.21723747253418
0,300717,-6.5854411125183105,-4.081724166870117,6.8289313316345215,-11.89706039428711
0,300717,-5.826623439788818,-7.250056266784668,-4.918867111206055,13.668868064880371
0,300717,2.116919755935669,-9.156774520874023,6.619597911834717,-0.6209802031517029
0,300717,-0.8702126741409302,29.506290435791016,0.13885580003261566,-12.300331115722656
0,300717,-3.2918283939361572,26.08570098876953,-2.2100512981414795,-13.051003456115723
0,300718,2.1659390926361084,-8.994898796081543,2.1737632751464844,-7.037034511566162
0,300718,4.37858772277832,2.3273909091949463,-7.736056327819824,8.495194435119629
0,300718,10.514395713806152,-10.511369705200195,-8.668325424194336,-0.2877694368362427
0,300718,-5.641451835632324,-21.911731719970703,-0.5971542596817017,6.042847633361816
0,300718,6.492525100708008,-4.630192756652832,-2.2173256874084473,7.036883354187012
0,300718,20.489133834838867,5.074421405792236,-29.333513259887695,-10.041658401489258
0,300719,-14.743505477905273,-11.903227806091309,-18.69959259033203,7.086752414703369
0,300719,-29.00943374633789,-25.565044403076172,6.315361022949219,17.84006690979004
0,300719,-1.31631600856781,18.423221588134766,10.401772499084473,-5.563863277435303
0,300719,18.014331817626953,7.87835168838501,-1.1565805673599243,-13.936668395996094
0,300719,3.2757484912872314,-26.615169525146484,-21.0556583404541,2.794722557067871
0,300719,-4.328558921813965,20.2894229888916,11.215677261352539,15.665878295898438
0,300720,7.860197067260742,26.867250442504883,3.9446802139282227,-3.7724926471710205
0,300720,0.61297208070755,-21.989961624145508,-9.01852798461914,-5.1403703689575195
0,300720,-0.571212112903595,-26.519216537475586,14.566122055053711,0.32177767157554626
0,300720,12.76884651184082,9.193427085876465,0.8012733459472656,-12.296004295349121
0,300720,-10.164661407470703,5.496901512145996,0.0015468550845980644,15.13584041595459
0,300720,-3.278183937072754,-7.671415328979492,-1.9649813175201416,-7.482921123504639
0,300721,14.663626670837402,2.903780460357666,-8.786319732666016,-32.63579559326172
0,300721,-5.321256160736084,-1.4218896627426147,-22.438274383544922,15.17831039428711
0,300721,6.918531894683838,-4.516199111938477,12.427200317382812,7.991565704345703
0,300721,22.600852966308594,8.060369491577148,40.10755920410156,-5.973890781402588
0,300721,-1.596182107925415,18.642683029174805,-23.44489860534668,-7.183168411254883
0,300721,-8.697375297546387,-4.042248725891113,-12.145828247070312,-5.074442386627197
0,300723,15.61059284210205,-15.377644538879395,4.408913612365723,28.296236038208008
0,300723,2.1727161407470703,-1.73722243309021,-13.895519256591797,15.379104614257812
0,300723,-12.773693084716797,-4.276479721069336,6.695047855377197,-11.583553314208984
0,300723,2.780885696411133,-7.157830715179443,2.496368169784546,-3.6335883140563965
0,300725,-8.580245971679688,-19.926069259643555,-8.198393821716309,25.683849334716797
0,300726,-1.3751535415649414,-19.240978240966797,-50.002037048339844,2.012277126312256
0,300727,25.350250244140625,36.763824462890625,15.341507911682129,-15.247336387634277
0,300730,-16.15790557861328,20.196081161499023,67.7209701538086,-18.600759506225586
0,300731,-32.27790451049805,-47.91080093383789,-53.82044982910156,-34.71467971801758
0,300734,-12.350171089172363,-7.4607977867126465,-27.18507194519043,52.1095085144043
0,300735,-23.86065101623535,32.3182487487793,67.0460205078125,57.605289459228516
0,300738,-41.79209899902344,77.44721984863281,92.123046875,-78.70269775390625
0,300739,-30.878108978271484,88.46138763427734,32.927215576171875,-77.3240737915039
0,300742,76.81413269042969,-68.2950668334961,-52.6965446472168,85.86138153076172
0,300743,87.05217742919922,-120.73921203613281,-51.08163833618164,55.023929595947266
0,300746,-30.75233268737793,-4.678626537322998,-52.309486389160156,-59.62101364135742
0,300747,-31.905529022216797,104.03662109375,44.405174255371094,-36.50680923461914
0,300750,4.179529190063477,16.879928588867188,42.05617141723633,39.216556549072266
0,300751,-4.352773189544678,-127.51204681396484,-86.609130859375,73.86827087402344
0,300754,32.704856872558594,12.763107299804688,-39.07477951049805,-86.73357391357422
0,300755,5.076239585876465,58.003257751464844,26.64684295654297,-93.12721252441406
0,300758,-84.1872787475586,35.676361083984375,103.61321258544922,119.3046875
0,300759,-21.513736724853516,55.80205535888672,81.7359390258789,74.96371459960938
0,300866,108.47239685058594,-127.46247100830078,-141.95309448242188,-98.6272201538086
0,300866,58.80899429321289,-74.79146575927734,-84.5684585571289,-36.97995376586914
0,300866,-68.18663024902344,99.14163970947266,91.92369842529297,43.440155029296875
0,300866,-44.343257904052734,7.481393337249756,26.365070343017578,10.414895057678223
0,300866,20.608991622924805,-26.507450103759766,-3.974586248397827,11.458478927612305
0,300867,14.456928253173828,30.3101863861084,13.79039478302002,-1.4229202270507812
0,300867,9.661436080932617,8.494088172912598,-28.35557746887207,-5.077140808105469
0,300867,15.74121379852295,-12.461142539978027,-30.029014587402344,12.754585266113281
0,300867,-9.370562553405762,-0.15823930501937866,-3.683397054672241,1.2480380535125732
0,300867,-15.103398323059082,-3.3166468143463135,-16.598552703857422,8.646212577819824
0,300867,-25.486309051513672,-10.613433837890625,0.02928566187620163,18.844436645507812
0,300868,-31.6567440032959,14.050467491149902,42.73283004760742,-18.09795570373535
0,300868,5.276235103607178,35.15850067138672,32.09193801879883,-30.423486709594727
0,300868,-4.386194229125977,19.632678985595703,11.553319931030273,3.500596761703491
0,300868,-8.833311080932617,-16.788129806518555,2.8964152336120605,-7.018363952636719
0,300868,32.11894607543945,-36.7545166015625,-23.5546932220459,-29.88550567626953
0,300868,35.17485046386719,-23.991239547729492,-23.97861099243164,9.647409439086914
0,300869,4.241163730621338,5.051019191741943,10.325634002685547,7.611279010772705
0,300869,-3.2962918281555176,9.207033157348633,-8.65478229522705,-13.517022132873535
0,300869,14.085893630981445,5.239975929260254,-10.635932922363281,-3.9518892765045166
0,300869,7.5772705078125,13.598228454589844,24.84836769104004,-12.895825386047363
0,300869,-13.664682388305664,5.070417881011963,-2.544940233230591,12.180058479309082
0,300870,-17.216943740844727,-17.962417602539062,-9.87331485748291,8.961909294128418
0,300870,-22.019329071044922,-1.767330527305603,3.6079866886138916,1.2954720258712769
0,300870,-5.743750095367432,24.3926944732666,3.970482110977173,30.055757522583008
0,300870,20.555301666259766,-16.23563575744629,-11.871163368225098,6.845149517059326
0,300870,24.692607879638672,-13.312121391296387,-19.541133880615234,-21.380125045776367
0,300870,-3.4053940773010254,17.62023162841797,3.781541585922241,1.298776388168335
0,300871,-30.46194839477539,-10.240030288696289,-12.957184791564941,18.24557113647461
0,300871,-1.4963915348052979,-16.380029678344727,-9.922059059143066,4.921188831329346
0,300871,10.365628242492676,4.6762800216674805,3.5798287391662598,-11.373666763305664
0,300871,-27.37462615966797,12.037164688110352,0.49101051688194275,-7.253966331481934
0,300871,-20.08012580871582,-14.063135147094727,8.979009628295898,13.448183059692383
0,300871,17.613821029663086,-20.703479766845703,7.653468132019043,-5.825829029083252
0,300872,11.877248764038086,22.13100814819336,10.421549797058105,-2.5194740295410156
0,300872,-1.3982319831848145,-3.3281543254852295,8.587841033935547,17.534915924072266
0,300872,5.982758045196533,-29.724323272705078,6.135176181793213,-9.705718040466309
0,300872,8.336133003234863,14.790505409240723,-12.003134727478027,-26.566511154174805
0,300872,-6.0508270263671875,9.540592193603516,-25.05817222595215,-11.255477905273438
0,300872,-5.8852996826171875,-18.150230407714844,7.402439594268799,0.64255291223526
0,300873,16.186426162719727,6.821537971496582,23.171031951904297,3.0853168964385986
0,300873,9.794986724853516,30.633699417114258,3.785269260406494,12.43640422821045
0,300873,-18.48944091796875,4.796739101409912,-4.114396572113037,-12.786675453186035
0,300873,-18.279600143432617,-9.891765594482422,-2.3933489322662354,-5.586936950683594
0,300873,-1.8301986455917358,12.091727256774902,12.359803199768066,27.359792709350586
0,300873,-4.395830154418945,0.7105954885482788,2.0583996772766113,-5.56123161315918
0,300874,1.7734695672988892,-14.674205780029297,-14.505745887756348,-4.6306304931640625
0,300874,16.739559173583984,1.722536563873291,-6.358155727386475,29.945682525634766
0,300874,5.04419469833374,-5.688581466674805,-4.909139633178711,28.62257194519043
0,300874,3.8492791652679443,-9.234169006347656,10.186395645141602,-5.459829330444336
0,300874,3.966614007949829,-3.8743317127227783,4.480382919311523,-23.73130989074707
0,300874,-8.360481262207031,14.14954662322998,-4.553653717041016,-3.201023817062378
0,300875,9.117706298828125,18.060806274414062,6.1108527183532715,-11.387548446655273
0,300876,-4.5683488845825195,17.05806541442871,7.351716041564941,-39.955013275146484
0,300876,-22.11067771911621,41.926170349121094,13.5284423828125,-25.659006118774414
0,300876,11.395124435424805,-9.222850799560547,5.849738597869873,26.366395950317383
0,300876,4.703617095947266,-38.368736267089844,3.2463948726654053,24.90264129638672
0,300877,-12.787683486938477,1.3745697736740112,10.9745454788208,-25.24260711669922
0,300878,-27.095550537109375,21.063745498657227,41.61395263671875,-23.264404296875
0,300879,-18.053569793701172,32.792667388916016,63.636234283447266,19.0938663482666
0,300882,98.14415740966797,-9.984842300415039,-27.942638397216797,44.98140335083008
0,300883,89.04547882080078,-76.2124252319336,-133.47557067871094,15.520451545715332
0,300886,-42.95500183105469,-73.92988586425781,-97.29828643798828,-8.612933158874512
0,300887,-44.45845031738281,28.910945892333984,73.54369354248047,5.958118915557861
0,300890,-10.209541320800781,61.84248352050781,75.56700134277344,-11.176576614379883
0,300891,24.40506935119629,-22.45962905883789,-88.52619171142578,-20.437458038330078
0,300894,-6.868704795837402,-9.51046085357666,-43.68202590942383,-44.573177337646484
0,300895,-80.12983703613281,-1.418508768081665,54.51803207397461,17.452884674072266
0,300898,-34.08267593383789,52.34128952026367,90.43364715576172,88.07476806640625
0,300899,12.362543106079102,104.54965209960938,65.40413665771484,-35.69404983520508
0,300902,47.486270904541016,-73.00579071044922,-90.12225341796875,-31.45946502685547
0,300903,46.22372817993164,-126.5456771850586,-110.90381622314453,69.20044708251953
0,300906,-4.200465202331543,38.042015075683594,36.38092803955078,-51.66107940673828
0,300907,-6.600419521331787,69.9377670288086,111.3735122680664,-56.24003601074219
0,300910,1.6286715269088745,-36.090328216552734,-66.22996520996094,73.9833755493164
0,300911,-0.005429156124591827,-62.4697151184082,-118.91026306152344,13.668736457824707
0,300914,-20.492395401000977,-14.781479835510254,76.01654052734375,-11.894709587097168
0,300916,-30.86414909362793,16.464712142944336,66.390869140625,6.239257335662842
0,300917,-3.0585811138153076,54.111385345458984,8.583805084228516,-15.434203147888184
0,301034,32.04804992675781,-17.982601165771484,-84.3216552734375,-10.243494033813477
0,301035,5.293909549713135,-62.24941635131836,-80.53434753417969,-21.43896484375
0,301035,-37.03461456298828,61.87455749511719,106.05842590332031,-7.68524169921875
0,301035,-23.129837036132812,55.5330696105957,67.48528289794922,9.606935501098633
0,301035,8.530817985534668,1.641421914100647,8.982133865356445,4.7157721519470215
0,301035,15.32616901397705,17.9096736907959,33.12933349609375,10.957030296325684
0,301035,8.763257026672363,2.667924404144287,-20.835554122924805,7.898709297180176
0,301036,28.386661529541016,-15.576051712036133,-46.49919509887695,-6.668741703033447
0,301036,31.19142723083496,-17.174528121948242,-15.48331356048584,0.4093744158744812
0,301036,7.425353050231934,-9.077113151550293,6.069592475891113,-0.3182341754436493
0,301036,-12.979171752929688,-4.156394004821777,-4.797922611236572,-13.734758377075195
0,301036,-30.011096954345703,2.7891042232513428,-0.9520903825759888,-7.518270492553711
0,301036,-35.91001510620117,12.989368438720703,21.302003860473633,19.857440948486328
0,301037,-13.641565322875977,25.670963287353516,36.74435806274414,6.697207927703857
0,301037,-2.4767580032348633,-0.3044576048851013,30.14795684814453,-0.006974626332521439
0,301037,-2.0147714614868164,-8.395943641662598,5.160586833953857,28.057748794555664
0,301037,32.796260833740234,2.3499317169189453,-33.51860427856445,-8.107539176940918
0,301037,30.834552764892578,-24.836963653564453,-47.385677337646484,-17.84514617919922
0,301037,-2.8610897064208984,-5.433823108673096,-0.2084227055311203,10.911855697631836
0,301038,-2.870622158050537,10.866862297058105,20.84903907775879,-12.763813972473145
0,301038,-6.731411933898926,-13.126733779907227,-5.529335975646973,-13.774007797241211
0,301038,-6.432919502258301,-14.284131050109863,-13.39950942993164,8.439939498901367
0,301038,-12.303061485290527,9.572516441345215,-0.02080000936985016,2.4564883708953857
0,301038,-10.462562561035156,20.814952850341797,17.031827926635742,1.622826337814331
0,301039,15.2254056930542,-16.55657386779785,0.6214780211448669,4.982997894287109
0,301039,11.699304580688477,-3.88535213470459,-17.998695373535156,10.17273998260498
0,301039,17.426280975341797,18.188125610351562,-2.991722822189331,-1.9773982763290405
0,301039,7.591319561004639,-36.964839935302734,-21.116849899291992,-16.365942001342773
0,301039,-22.123233795166016,-26.30513572692871,-21.826568603515625,-5.378456115722656
0,301039,2.953373432159424,22.31229019165039,17.445030212402344,10.640690803527832
0,301040,19.246349334716797,5.541843414306641,8.736419677734375,-3.237898349761963
0,301040,-3.6153564453125,-5.901121139526367,-25.745906829833984,-22.392175674438477
0,301040,-14.065262794494629,-12.735299110412598,-0.07271484285593033,5.391445159912109
0,301040,-15.683619499206543,-6.986948490142822,39.25497817993164,25.242443084716797
0,301040,-1.9407880306243896,9.7482328414917,-11.58188247680664,10.201521873474121
0,301040,26.356801986694336,-1.1562304496765137,-25.920982360839844,-24.68708038330078
0,301041,18.75389289855957,-11.362499237060547,18.345195770263672,-22.01578712463379
0,301041,-15.095168113708496,3.457954168319702,-0.7669885158538818,24.781890869140625
0,301041,6.157088279724121,31.448993682861328,-4.753978252410889,19.794469833374023
0,301041,15.826286315917969,-1.620715618133545,0.9668447375297546,-18.65142250061035
0,301041,-15.51017951965332,-23.685606002807617,-8.768129348754883,-18.10069465637207
0,301041,-21.530147552490234,16.36821937561035,11.860618591308594,13.841206550598145
0,301042,-10.029899597167969,26.87751007080078,14.093141555786133,26.433591842651367
0,301042,19.085054397583008,19.289257049560547,0.5147727727890015,-8.804159164428711
0,301042,19.744718551635742,-12.802210807800293,1.1236770153045654,-20.481884002685547
0,301042,-6.218883991241455,-22.87505340576172,19.715368270874023,11.720536231994629
0,301042,-12.656789779663086,10.270570755004883,9.13210678100586,11.422429084777832
0,301042,-6.687951564788818,9.928854942321777,-21.03074073791504,-1.5698412656784058
0,301043,1.7797679901123047,-7.955808162689209,-0.20131997764110565,-14.400856971740723
0,301043,22.901636123657227,-12.739775657653809,14.817323684692383,-7.7947587966918945
0,301043,16.28281021118164,6.383523464202881,-16.56142234802246,15.693965911865234
0,301043,-18.976451873779297,2.893045425415039,-9.187787055969238,-1.142419457435608
0,301043,-6.154308319091797,-28.154294967651367,3.911461591720581,-4.65786075592041
0,301044,11.646738052368164,10.579646110534668,-15.572301864624023,0.5197980403900146
0,301044,-11.622064590454102,36.770748138427734,8.180773735046387,-2.12738037109375
0,301044,-15.037191390991211,-24.15489959716797,13.824553489685059,3.151449680328369
0,301044,3.93044376373291,-20.400415420532227,-16.637271881103516,-7.412465572357178
0,301044,-2.2568209171295166,5.483855724334717,-20.789173126220703,6.42875337600708
0,301046,-12.491178512573242,-14.680673599243164,-9.981759071350098,26.637174606323242
0,301046,4.597477912902832,-3.1432487964630127,-1.784161925315857,-9.436517715454102
0,301046,4.669642448425293,13.587747573852539,3.151883363723755,-30.901744842529297
0,301046,-16.136428833007812,-3.990939140319824,13.215160369873047,10.447827339172363
0,301046,-8.385354995727539,-6.4348859786987305,18.070449829101562,25.220855712890625
0,301046,15.427872657775879,25.622276306152344,-1.5803927183151245,-15.531373023986816
0,301048,1.6297986507415771,29.234012603759766,22.198387145996094,-29.369333267211914
0,301049,-13.726293563842773,0.5079432129859924,14.760418891906738,1.4567080736160278
0,301052,-13.233421325683594,-64.71903991699219,-69.3843002319336,-2.2657430171966553
0,301053,-31.97955894470215,-27.431663513183594,-17.130735397338867,-10.325389862060547
0,301056,8.121984481811523,79.15859985351562,59.88679122924805,14.439569473266602
0,301057,-0.6068959832191467,74.87286376953125,71.309326171875,16.12990951538086
0,301060,-27.022043228149414,41.24818420410156,82.33271789550781,3.740851640701294
0,301061,63.06983947753906,-61.24691390991211,-51.08717727661133,-10.838969230651855
0,301064,68.8506851196289,-124.96849060058594,-155.6678466796875,2.049539089202881
0,301065,8.438267707824707,-9.263803482055664,-9.46407699584961,18.091102600097656
0,301068,-22.851184844970703,65.15968322753906,99.46924591064453,-3.986697196960449
0,301069,-33.81377410888672,18.059417724609375,1.335906744003296,5.752750396728516
0,301072,-0.1635276973247528,-47.577537536621094,-98.09171295166016,2.663389205932617
0,301073,8.724871635437012,-23.736881256103516,-53.04197311401367,-22.661483764648438
0,301076,0.9304028153419495,67.45010375976562,86.14630126953125,-16.886640548706055
0,301077,-35.66855239868164,44.701202392578125,99.11152648925781,9.595966339111328
0,301080,-49.58217239379883,-12.278496742248535,18.850780487060547,20.99574851989746
0,301081,25.77535057067871,-42.919986724853516,-53.40312576293945,0.1550196260213852
0,301084,66.3938217163086,-73.09049224853516,-94.25108337402344,-8.192469596862793
0,301085,39.0844841003418,2.7745869159698486,-17.27423095703125,0.7989566326141357
0,301088,-26.520334243774414,96.13323974609375,86.81838989257812,-0.8731100559234619
0,301089,-38.81582260131836,28.953622817993164,41.697383880615234,-21.42536735534668
0,301218,-54.221038818359375,-7.240495681762695,11.924712181091309,6.887744426727295
0,301219,-27.68503189086914,21.17502212524414,48.0268440246582,42.7198486328125
0,301219,81.24795532226562,-52.95486831665039,-62.1630744934082,-1.6652692556381226
0,301219,24.013723373413086,-33.510440826416016,-71.22640228271484,-20.27791404724121
0,301219,-28.302833557128906,26.49651336669922,27.999719619750977,1.2393131256103516
0,301219,-10.554143905639648,9.177742004394531,9.169349670410156,-1.1714533567428589
0,301219,-28.268577575683594,7.96406888961792,-23.05098533630371,-10.59178352355957
0,301220,2.944758653640747,-8.405055046081543,20.294843673706055,3.0849907398223877
0,301220,29.917123794555664,-21.88089370727539,28.278650283813477,23.23900604248047
0,301220,33.41413116455078,3.5109174251556396,-30.508041381835938,-19.315752029418945
0,301220,13.938982009887695,-11.555399894714355,-29.8271541595459,-10.330392837524414
0,301220,-0.32005253434181213,-26.77695083618164,0.3170394003391266,26.068052291870117
0,301220,29.176179885864258,5.48143196105957,-19.143680572509766,-10.80556869506836
0,301221,15.419342041015625,3.253959894180298,-17.509872436523438,-13.094770431518555
0,301221,-17.874347686767578,3.33829402923584,0.7311520576477051,-5.31149959564209
0,301221,-23.06723976135254,10.209107398986816,-7.660484313964844,4.788660526275635
0,301221,-36.58828353881836,-2.54955792427063,36.54866409301758,16.522804260253906
0,301221,-7.183172702789307,29.52111053466797,33.47024917602539,-10.741203308105469
0,301222,8.805181503295898,13.600515365600586,-21.964859008789062,0.5206356644630432
0,301222,-11.443534851074219,-35.934444427490234,9.199039459228516,14.041757583618164
0,301222,10.513221740722656,-2.4513094425201416,25.351022720336914,0.2826736569404602
0,301222,26.8870792388916,18.7371883392334,-3.298705577850342,-11.222474098205566
0,301222,6.851860046386719,-6.164248466491699,-28.461803436279297,-18.38113784790039
0,301222,-6.132203578948975,-20.91901206970215,-13.476985931396484,10.464387893676758
0,301223,10.312026023864746,-15.125962257385254,17.748577117919922,14.737299919128418
0,301223,3.845855474472046,21.5070743560791,-2.895578622817993,-15.54377555847168
0,301223,-29.880882263183594,8.422174453735352,6.551198482513428,-2.6848092079162598
0,301223,-16.570785522460938,-18.090496063232422,17.157306671142578,17.152067184448242
0,301223,15.24923038482666,19.584821701049805,-10.653071403503418,0.39222827553749084
0,301223,2.7598183155059814,11.002666473388672,-17.33921241760254,-3.9300785064697266
0,301224,2.7814056873321533,-24.2970027923584,-9.729698181152344,1.5978538990020752
0,301224,14.788393020629883,-20.68938446044922,12.035194396972656,1.0078401565551758
0,301224,-14.457730293273926,1.6528512239456177,11.0606689453125,-0.2906397879123688
0,301224,-8.974225997924805,7.300293445587158,-23.966800689697266,-7.446241855621338
0,301224,0.6159312725067139,12.581012725830078,-7.641765117645264,1.7663131952285767
0,301224,-9.61114501953125,14.248291015625,13.880279541015625,-4.845650672912598
0,301225,-1.4511743783950806,-4.364051818847656,-0.39166775345802307,-9.659629821777344
0,301225,-13.910134315490723,9.978047370910645,3.191972017288208,16.605987548828125
0,301225,-7.690239429473877,16.681884765625,-5.440339088439941,-11.520323753356934
0,301225,14.695579528808594,-11.664725303649902,-4.242534637451172,-8.887834548950195
0,301225,11.217690467834473,-23.10942268371582,14.325325012207031,18.137805938720703
0,301225,-0.04872739687561989,0.8442717790603638,-5.371999740600586,-7.8177924156188965
0,301226,11.396463394165039,19.51546287536621,-12.463522911071777,4.809202194213867
0,301226,1.512331485748291,-21.0421085357666,15.908409118652344,12.2327299118042
0,301226,-2.0545654296875,-12.568799018859863,11.556450843811035,-2.935713291168213
0,301226,4.496345520019531,39.3790283203125,5.352737903594971,1.5504969358444214
0,301226,-17.157302856445312,-0.20037196576595306,18.83285903930664,6.068908214569092
0,301226,-2.393094062805176,1.145819902420044,4.1951398849487305,-10.738056182861328
0,301227,2.779423713684082,21.354909896850586,3.200106382369995,-19.12920570373535
0,301227,1.1286709308624268,-17.47069549560547,11.450187683105469,20.77035903930664
0,301227,7.312856674194336,7.798683166503906,-3.6451938152313232,14.314315795898438
0,301227,-12.630693435668945,16.72320556640625,-25.876880645751953,-22.54989242553711
0,301227,-0.5196934342384338,-29.30364418029785,-11.78007984161377,-18.173418045043945
0,301228,12.029592514038086,-5.730796813964844,5.166913986206055,-14.538392066955566
0,301228,-10.885215759277344,11.181084632873535,-16.818328857421875,18.111543655395508
0,301228,-10.232872009277344,-16.94727897644043,1.4136853218078613,1.870049238204956
0,301228,3.4731950759887695,-13.069245338439941,14.74759578704834,-19.504465103149414
0,301228,-2.203690528869629,-2.6885008811950684,-0.05698736757040024,22.965368270874023
0,301228,3.072549819946289,2.640305995941162,7.450071811676025,10.81847095489502
0,301229,19.316896438598633,6.055673599243164,-10.555170059204102,-2.752596378326416
0,301229,2.9816503524780273,-8.7413330078125,-9.568062782287598,-2.376060962677002
0,301229,-4.309810638427734,-12.575672149658203,18.200809478759766,15.809540748596191
0,301229,-2.546837091445923,25.349349975585938,-13.189087867736816,22.01130485534668
0,301229,-7.658073902130127,3.3180739879608154,-18.04364013671875,-23.262990951538086
0,301230,6.543771743774414,-57.23908615112305,-31.004255294799805,-22.050378799438477
0,301231,-9.303323745727539,-16.974483489990234,-35.84912109375,-1.5967459678649902
0,301231,2.2071471214294434,59.764522552490234,26.041349411010742,12.651871681213379
0,301231,29.00762367248535,8.413675308227539,6.369137763977051,22.484455108642578
0,301231,-12.14095401763916,-25.545015335083008,-7.928407669067383,-17.423234939575195
0,301231,-27.744125366210938,24.364425659179688,22.138154983520508,-29.342376708984375
0,301233,6.736090660095215,-7.862855911254883,19.577890396118164,22.6731014251709
0,301234,17.465818405151367,25.390941619873047,26.235734939575195,41.5197639465332
0,301235,-26.02349281311035,69.00261688232422,67.4168930053711,5.719908714294434
0,301238,-57.789520263671875,31.822486877441406,67.10672760009766,-18.116592407226562
0,301239,-17.969030380249023,-1.4509328603744507,-18.82456398010254,6.592831134796143
0,301242,69.13228607177734,-63.96133804321289,-68.76020812988281,-16.037405014038086
0,301243,88.91608428955078,-91.76681518554688,-59.40669631958008,-34.72700500488281
0,301246,1.7682803869247437,-15.886283874511719,-13.272246360778809,-5.769525051116943
0,301247,-48.54208755493164,95.71124267578125,61.654296875,34.75044631958008
0,301250,-16.420183181762695,0.6342824101448059,-18.334352493286133,22.160953521728516
0,301251,22.739646911621094,-100.57512664794922,-99.72444152832031,-52.47040939331055
0,301254,1.9553109407424927,0.5593326091766357,7.7150726318359375,-3.493272066116333
0,301255,-24.544090270996094,38.66997146606445,37.130496978759766,28.39767074584961
0,301258,-36.803897857666016,72.11763000488281,72.28458404541016,-4.092017650604248
0,301259,-31.50617790222168,41.56907653808594,66.63015747070312,7.617530345916748
0,301262,63.76005554199219,-67.712890625,-90.73433685302734,-20.309173583984375
0,301263,63.888912200927734,-67.20670318603516,-77.80828094482422,-7.366483211517334
0,301266,-24.48455810546875,12.281779289245605,34.9360466003418,30.927696228027344
0,301267,-25.117094039916992,78.2400131225586,74.2485580444336,-17.790925979614258
0,301270,-17.731876373291016,-26.120649337768555,-31.82550621032715,-12.542745590209961
0,301271,5.806600570678711,-79.21987915039062,-107.7313232421875,23.418672561645508
0,301274,-4.2706804275512695,22.39963722229004,21.78752326965332,-4.009193420410156
0,301412,10.967391967773438,5.941856861114502,43.022945404052734,-11.517877578735352
0,301412,51.77560806274414,-27.28620147705078,-18.263553619384766,13.790685653686523
0,301412,-10.977020263671875,17.085914611816406,-0.42905470728874207,5.012430667877197
0,301412,-38.989017486572266,12.819332122802734,10.776718139648438,-4.648756980895996
0,301413,-35.265254974365234,18.084901809692383,18.7946834564209,23.62667465209961
0,301413,-7.434542655944824,40.08298873901367,28.569963455200195,20.1533260345459
0,301413,27.176776885986328,-2.1018331050872803,-0.9510418772697449,-21.71664047241211
0,301413,0.3490445613861084,-17.883777618408203,-13.891179084777832,-25.624664306640625
0,301413,-1.3629121780395508,9.565088272094727,13.662607192993164,9.548952102661133
0,301413,25.345643997192383,0.004796167835593224,-6.452713489532471,-7.980299949645996
0,301414,13.847708702087402,-35.6781120300293,-32.01860427856445,-26.160757064819336
0,301414,-25.7767391204834,-11.25957202911377,-1.5290582180023193,-3.049816608428955
0,301414,-12.141936302185059,17.624107360839844,3.163092613220215,2.473355770111084
0,301414,-0.9071334600448608,-6.5094804763793945,-16.67230987548828,-4.187439441680908
0,301414,-19.301673889160156,16.753158569335938,10.650078773498535,-0.8276640176773071
0,301414,-7.865335464477539,34.65531921386719,41.4101448059082,24.080646514892578
0,301415,-20.08209228515625,-0.21183434128761292,39.04300308227539,23.20642852783203
0,301415,-2.872812271118164,-24.92399024963379,-4.538847923278809,-4.746285915374756
0,301415,35.712249755859375,-0.8138322830200195,-25.240915298461914,-9.060724258422852
0,301415,5.154335021972656,17.884721755981445,8.682587623596191,7.966436862945557
0,301415,6.761022567749023,-15.562444686889648,9.403647422790527,22.000844955444336
0,301415,34.4068489074707,-4.854719638824463,-4.241500377655029,-12.694849014282227
0,301416,-13.542547225952148,7.919397830963135,-12.188407897949219,-22.649295806884766
0,301416,-32.23523712158203,-8.186211585998535,1.0915290117263794,24.026798248291016
0,301416,13.950586318969727,13.597360610961914,25.75396156311035,4.4845991134643555
0,301416,11.222968101501465,4.371304512023926,-1.5059417486190796,-29.462669372558594
0,301416,-5.651024341583252,-5.413327693939209,-8.89475154876709,3.4626128673553467
0,301417,-7.668855667114258,32.570430755615234,13.362006187438965,4.483515739440918
0,301417,-11.803750038146973,7.579017162322998,-2.093782901763916,-20.194843292236328
0,301417,11.037102699279785,-26.619163513183594,-14.63527774810791,-4.103029251098633
0,301417,10.50794792175293,-1.9440144300460815,-16.80240821838379,10.937459945678711
0,301417,-2.816434144973755,-3.8506932258605957,-20.061763763427734,5.489272117614746
0,301417,-6.6866326332092285,1.832383632659912,4.637946128845215,3.1412417888641357
0,301418,1.780268907546997,-2.7402830123901367,10.725245475769043,-3.8533082008361816
0,301418,-8.290565490722656,-29.16209602355957,-4.346923351287842,-10.181707382202148
0,301418,-7.259478569030762,4.531888484954834,-6.641172409057617,-5.298280239105225
0,301418,21.54419708251953,19.282503128051758,-20.19391441345215,-3.513723611831665
0,301418,-5.23443603515625,-11.360848426818848,-1.6777498722076416,8.571374893188477
0,301418,-1.8412593603134155,-20.87590217590332,18.759429931640625,8.84915542602539
0,301419,24.88286018371582,-5.227365493774414,-3.69391131401062,7.863099098205566
0,301419,9.564024925231934,11.995887756347656,3.8478012084960938,16.419628143310547
0,301419,-4.053321838378906,1.0771549940109253,2.655280113220215,-0.48862168192863464
0,301419,-3.296257734298706,-3.6187856197357178,2.5723586082458496,15.207611083984375
0,301419,9.410508155822754,9.98311996459961,26.80183982849121,28.109167098999023
0,301419,8.473695755004883,24.92195701599121,-16.18790054321289,-4.777779579162598
0,301420,-3.160679578781128,1.6129425764083862,-18.329008102416992,-15.645663261413574
0,301420,1.7757867574691772,-34.037353515625,6.360688209533691,-5.876840114593506
0,301420,-1.917694091796875,-6.750678062438965,-13.942248344421387,-5.6483073234558105
0,301420,-9.071935653686523,14.475804328918457,-1.1830378770828247,-15.764415740966797
0,301420,1.1081262826919556,-8.507747650146484,-10.489163398742676,-7.582048416137695
0,301420,-0.6642525792121887,-24.48049545288086,-7.482907295227051,-13.59659194946289
0,301421,-16.772462844848633,-8.133091926574707,4.451089859008789,-22.926666259765625
0,301421,-3.1282944679260254,19.264177322387695,-12.780905723571777,-22.20463752746582
0,301421,-3.7428596019744873,-7.927859306335449,-0.11136548966169357,-14.287439346313477
0,301421,-24.50154685974121,-20.56150245666504,14.426121711730957,13.315003395080566
0,301421,-10.53359317779541,8.25245189666748,-6.675728797912598,4.780570983886719
0,301421,6.411191940307617,9.582147598266602,-6.54486083984375,2.288958787918091
0,301422,3.5229365825653076,12.17670726776123,27.85382080078125,10.266448974609375
0,301422,-8.535531997680664,9.90703010559082,6.005764007568359,-12.84602165222168
0,301422,14.696917533874512,-18.279186248779297,-33.0888671875,-13.227887153625488
0,301422,16.715343475341797,-11.7383394241333,0.12331511080265045,27.901620864868164
0,301422,-2.7142577171325684,43.977447509765625,25.341064453125,34.20695877075195
0,301422,21.254600524902344,18.099111557006836,1.7810451984405518,-12.22495174407959
0,301423,6.399888515472412,-37.07675552368164,11.883393287658691,-2.5079829692840576
0,301423,-21.987279891967773,-3.1861283779144287,11.280543327331543,22.41895294189453
0,301423,2.9718942642211914,16.96038246154785,-5.206987380981445,13.496061325073242
0,301423,28.708921432495117,2.5567786693573,4.87984037399292,3.90858793258667
0,301423,-1.726064920425415,10.90693187713623,-0.6988498568534851,-12.849932670593262
0,301423,-13.473596572875977,-0.601011335849762,-4.638073921203613,9.599566459655762
0,301425,32.72813415527344,-6.820590019226074,-14.754919052124023,18.05260467529297
0,301425,14.405210494995117,-7.1294355392456055,-10.858780860900879,4.45102071762085
0,301425,-42.775978088378906,-10.645377159118652,17.814720153808594,1.3343157768249512
0,301425,-13.407811164855957,13.808748245239258,5.853417873382568,-10.681634902954102
0,301425,18.049287796020508,8.381994247436523,-24.132375717163086,-9.194511413574219
0,301426,-8.347240447998047,-6.370940208435059,2.678511142730713,-4.633705139160156
0,301427,-25.4102783203125,27.70749282836914,49.58295822143555,-4.6225714683532715
0,301427,-16.29228973388672,17.974733352661133,14.975860595703125,5.712273597717285
0,301430,33.69427490234375,-56.77915573120117,-47.62183380126953,5.87559700012207
0,301431,12.554466247558594,-45.79978942871094,-53.38863754272461,-0.7895412445068359
0,301434,-28.429492950439453,53.13066864013672,6.09023904800415,-27.19207000732422
0,301435,-34.44729232788086,45.64754104614258,55.438255310058594,-40.340179443359375
0,301438,-70.85359954833984,17.757362365722656,82.35289764404297,24.8343448638916
0,301439,6.226696014404297,44.87257766723633,45.64834976196289,38.642452239990234
0,301442,104.04920959472656,-79.73452758789062,-123.15927124023438,-12.799345970153809
0,301443,59.00389862060547,-109.76565551757812,-99.25433349609375,-30.49028205871582
0,301446,-13.245418548583984,20.751359939575195,40.97175979614258,-17.880901336669922
0,301447,-17.35993003845215,69.67244720458984,53.94345474243164,17.99395179748535
0,301450,-1.091989278793335,-6.0513458251953125,2.0895836353302,39.81911087036133
0,301451,0.2173028141260147,-79.51922607421875,-91.90144348144531,-15.319360733032227
0,301454,-18.306928634643555,17.625675201416016,10.233148574829102,-31.449880599975586
0,301455,-27.53769874572754,53.69029235839844,78.39724731445312,24.970293045043945
0,301458,-33.10523986816406,52.994407653808594,63.81783676147461,11.096446990966797
0,301459,-11.116520881652832,47.476016998291016,45.46879577636719,1.9013687372207642
0,301462,43.55754852294922,-83.43246459960938,-117.36359405517578,5.002965450286865
0,301463,38.442665100097656,-66.09392547607422,-72.81088256835938,-3.0887045860290527
0,301466,36.2236442565918,56.33894729614258,33.10418701171875,-7.436023712158203
0,301467,-3.9695308208465576,55.54638671875,59.78977584838867,-16.991085052490234
0,301470,-54.355342864990234,-44.557579040527344,19.950176239013672,9.929344177246094
0,301471,9.978612899780273,-76.42150115966797,-96.58995819091797,12.661016464233398
0,301621,-55.11463165283203,50.33345031738281,27.580293655395508,-73.79830932617188
0,301621,-82.09901428222656,47.03800964355469,90.32730865478516,-69.8740005493164
0,301621,104.44840240478516,-59.0790901184082,-68.05255126953125,48.087215423583984
0,301621,67.033935546875,-22.8150691986084,-57.6272087097168,39.93714141845703
0,301621,-62.399627685546875,27.403520584106445,38.60455322265625,0.7855134010314941
0,301621,-20.171049118041992,24.604602813720703,47.54380798339844,14.604440689086914
0,301622,20.608623504638672,6.6648664474487305,6.1522111892700195,10.138653755187988
0,301622,-5.968583583831787,10.244559288024902,-6.274637222290039,19.95000648498535
0,301622,-4.288669109344482,15.602155685424805,22.93134117126465,26.565610885620117
0,301622,48.026493072509766,-20.793766021728516,-14.788209915161133,15.31460189819336
0,301622,53.950775146484375,-15.81801986694336,-24.062944412231445,19.360702514648438
0,301622,25.517271041870117,17.203998565673828,0.35440951585769653,23.664024353027344
0,301623,9.929557800292969,-9.885653495788574,-36.275150299072266,-15.425192832946777
0,301623,-5.310424327850342,-21.69278335571289,-24.86128807067871,-28.542367935180664
0,301623,-34.07636642456055,8.57119083404541,10.920431137084961,6.85764217376709
0,301623,-45.99348068237305,1.4135311841964722,9.670853614807129,-10.242687225341797
0,301623,-19.519657135009766,-1.3284151554107666,23.371294021606445,-12.813956260681152
0,301623,10.033346176147461,4.242339611053467,24.390966415405273,1.999514102935791
0,301624,1.6827597618103027,2.821305990219116,14.51889419555664,-15.231649398803711
0,301624,-6.410278797149658,-8.9168701171875,-5.178650856018066,-1.018103003501892
0,301624,10.836125373840332,-7.469141006469727,-28.757156372070312,5.914501667022705
0,301624,9.291964530944824,13.743830680847168,-16.32217788696289,-3.1412010192871094
0,301624,-2.1889536380767822,-14.456012725830078,-1.8847609758377075,-6.528367042541504
0,301624,-14.879682540893555,-8.457751274108887,6.440959453582764,4.35776948928833
0,301625,-24.555522918701172,20.47646713256836,11.050355911254883,-2.519685745239258
0,301625,-0.4939563572406769,0.7435935735702515,-0.23248517513275146,-26.615324020385742
0,301625,0.4117045998573303,-22.901996612548828,1.7648669481277466,-0.24313300848007202
0,301625,-13.503700256347656,10.741104125976562,11.243103981018066,5.342629909515381
0,301625,21.195213317871094,38.078712463378906,-17.062545776367188,-8.008734703063965
0,301625,5.997587203979492,-13.493486404418945,-20.020076751708984,-1.1174743175506592
0,301626,-14.764328956604004,-26.393014907836914,30.531387329101562,19.2677001953125
0,301626,17.503995895385742,15.58800983428955,40.62818145751953,21.24143409729004
0,301626,10.851553916931152,20.289661407470703,-4.703561305999756,-4.11724328994751
0,301626,-15.38097858428955,-7.919311046600342,-35.198516845703125,1.4207656383514404
0,301626,-17.594465255737305,-1.9215627908706665,-0.57807856798172,-9.03305721282959
0,301627,-1.583221197128296,7.328831195831299,18.30601692199707,-11.971372604370117
0,301627,7.2531538009643555,-0.758983850479126,1.8642644882202148,2.06805419921875
0,301627,10.89962387084961,0.8841208219528198,4.924642562866211,-11.711519241333008
0,301627,-4.655320644378662,-11.50805950164795,-4.014564037322998,12.575339317321777
0,301627,-8.264899253845215,-9.142657279968262,-6.837862014770508,5.515389442443848
0,301627,21.339927673339844,-8.945380210876465,-16.611352920532227,-40.825862884521484
0,301628,5.961437702178955,-2.9752447605133057,-22.19182014465332,2.4530773162841797
0,301628,-5.652079105377197,16.821367263793945,11.039203643798828,11.073216438293457
0,301628,4.22086238861084,4.8557610511779785,-4.320353984832764,-8.077018737792969
0,301628,-8.598295211791992,7.703343391418457,1.2050479650497437,21.58184814453125
0,301628,8.22898006439209,5.915252208709717,30.516511917114258,9.526310920715332
0,301628,15.815576553344727,-0.19654254615306854,-14.066669464111328,-25.87352180480957
0,301629,-14.438404083251953,-20.707637786865234,-17.170570373535156,-4.8618292808532715
0,301629,-13.152956008911133,-20.163114547729492,0.8487528562545776,47.350982666015625
0,301629,6.822238922119141,25.178239822387695,-8.855018615722656,4.294193744659424
0,301629,3.461397171020508,0.005715498700737953,6.039914608001709,-11.49956226348877
0,301629,2.931378126144409,-10.895115852355957,11.366031646728516,26.211027145385742
0,301629,4.032334327697754,1.4545966386795044,-18.217683792114258,-16.560304641723633
0,301630,-19.853193283081055,-29.231992721557617,-13.854095458984375,-13.483880996704102
0,301630,-7.264524459838867,-12.516337394714355,20.526473999023438,31.07662582397461
0,301630,7.833117961883545,13.878686904907227,12.264298439025879,4.637167930603027
0,301630,-10.258016586303711,4.8567399978637695,-0.9514105916023254,-28.236352920532227
0,301630,-14.102967262268066,12.970674514770508,-1.181756854057312,-2.8873450756073
0,301630,-9.175549507141113,4.155651092529297,-5.698611259460449,-3.5132129192352295
0,301631,17.56178092956543,-16.584054946899414,-5.015865802764893,-19.853410720825195
0,301631,14.957854270935059,3.5769715309143066,17.48954963684082,18.80164909362793
0,301631,0.6365640759468079,21.267892837524414,3.548238754272461,7.125838279724121
0,301631,9.878024101257324,4.105147361755371,-29.085535049438477,-20.919795989990234
0,301631,-1.911508321762085,-0.1016853079199791,10.425396919250488,6.343164443969727
0,301631,-3.486827850341797,11.35500717163086,24.980913162231445,11.116645812988281
0,301632,19.635141372680664,9.236562728881836,-12.721675872802734,-11.77860164642334
0,301632,6.432823181152344,-10.864446640014648,-6.8403401374816895,1.6823259592056274
0,301632,-15.492828369140625,11.766236305236816,9.503117561340332,11.269291877746582
0,301632,7.683378219604492,22.280513763427734,5.3789448738098145,-9.710550308227539
0,301632,-3.4674489498138428,-15.499079704284668,16.04216194152832,-3.21341609954834
0,301632,-21.88090705871582,2.5882174968719482,3.6441314220428467,-3.244356155395508
0,301633,19.587491989135742,-8.241204261779785,-15.541899681091309,-8.129596710205078
0,301633,8.402587890625,-22.80227279663086,-3.1128993034362793,-3.736955404281616
0,301633,-25.55778694152832,-11.213875770568848,11.209867477416992,14.06197452545166
0,301634,-12.651413917541504,13.932435035705566,23.295644760131836,-9.813957214355469
0,301634,-9.486344337463379,26.233551025390625,-4.184834003448486,-40.54180908203125
0,301635,5.5635294914245605,-25.556903839111328,-27.35898780822754,18.35691261291504
0,301635,0.8560342788696289,-2.639120578765869,4.874130725860596,17.837688446044922
0,301635,-14.238042831420898,27.097450256347656,11.334726333618164,2.2773709297180176
0,301635,14.353042602539062,2.1823618412017822,10.903356552124023,14.648226737976074
0,301635,4.274271011352539,-0.8282203078269958,6.967486381530762,-22.66533088684082
0,301637,-31.6543025970459,9.272126197814941,15.261184692382812,8.449660301208496
0,301638,-12.701827049255371,8.970985412597656,38.04586410522461,37.54973602294922
0,301639,22.672500610351562,-39.353668212890625,-33.62763595581055,16.15593147277832
0,301642,81.33782196044922,-29.155670166015625,-78.49681091308594,-8.508037567138672
0,301643,65.81365966796875,-3.1531169414520264,-39.028038024902344,-29.854188919067383
0,301646,-43.35720443725586,-4.746731281280518,1.484820008277893,10.572572708129883
0,301647,-55.72395324707031,15.494616508483887,48.51167297363281,17.975025177001953
0,301650,5.899263381958008,-48.49679183959961,-22.691770553588867,-13.807701110839844
0,301651,21.467866897583008,-34.39143371582031,-75.52523040771484,-3.730900287628174
0,301654,-15.40736198425293,72.60218048095703,41.39500045776367,8.748456954956055
0,301655,-28.92508888244629,48.67496109008789,73.42964935302734,-0.881914496421814
0,301658,-44.71412658691406,10.877681732177734,52.96061706542969,-19.035093307495117
0,301659,-4.683938503265381,26.11390495300293,20.05263328552246,-18.51857566833496
0,301662,65.81221008300781,-54.51105499267578,-121.1624526977539,11.561539649963379
0,301663,45.50586700439453,-59.791263580322266,-62.51533508300781,6.9963178634643555
0,301666,-13.855575561523438,47.788246154785156,129.2638397216797,-16.692665100097656
0,301667,-42.336151123046875,37.10541534423828,48.251609802246094,4.703057289123535
0,301670,2.6168625354766846,-37.15190124511719,-86.01132202148438,9.879461288452148
0,301671,23.900209426879883,-32.982784271240234,-49.945152282714844,-9.959102630615234
0,301674,-16.699846267700195,11.260564804077148,11.803318977355957,3.8208441734313965
0,301675,-40.86668014526367,26.908584594726562,28.867746353149414,9.243805885314941
0,301678,-22.747814178466797,50.35811996459961,66.71412658691406,-21.765419006347656
0,301679,8.87466049194336,-20.7852725982666,19.728166580200195,-6.2061944007873535
0,301682,83.79972839355469,-32.76697540283203,-56.608642578125,34.10323715209961
0,301840,-0.30590933561325073,38.89854431152344,1.1996381282806396,3.052875280380249
0,301840,-120.66923522949219,-20.103853225708008,13.137469291687012,-21.784299850463867
0,301841,12.545483589172363,-8.783568382263184,15.366182327270508,18.137868881225586
0,301841,61.76964569091797,29.3383731842041,12.847859382629395,14.50335693359375
0,301841,22.273235321044922,-6.104083061218262,-33.52970886230469,-12.669496536254883
0,301841,28.471275329589844,-29.78445053100586,-28.51206398010254,3.4340083599090576
0,301841,-1.9923405647277832,-35.2106819152832,-10.364200592041016,7.9660162925720215
0,301841,4.068964958190918,-10.254302978515625,-22.250883102416992,-11.395706176757812
0,301842,-1.4128695726394653,-18.36111831665039,-27.646114349365234,3.950129747390747
0,301842,-28.30754852294922,19.02322769165039,18.082813262939453,2.893451452255249
0,301842,-2.395108222961426,48.0821418762207,30.658370971679688,-24.77370834350586
0,301842,-2.0529184341430664,-9.559286117553711,8.324410438537598,11.837779998779297
0,301842,-14.22036361694336,-8.492305755615234,2.338850975036621,21.114973068237305
0,301842,-6.454014778137207,0.9442901015281677,-16.97562599182129,-11.12454891204834
0,301843,15.55124568939209,-0.8662804365158081,-15.200312614440918,-23.337099075317383
0,301843,24.0157413482666,1.4455946683883667,12.107829093933105,-4.924899578094482
0,301843,-14.087970733642578,-6.185527324676514,0.5098431706428528,21.16337776184082
0,301843,10.235391616821289,-7.300509929656982,-18.852508544921875,-8.981280326843262
0,301843,24.790607452392578,0.8903644680976868,1.403644323348999,-4.573355197906494
0,301843,-34.404991149902344,25.025300979614258,27.150972366333008,30.424041748046875
0,301844,-13.897407531738281,27.044158935546875,27.728511810302734,-1.9609594345092773
0,301844,11.172648429870605,7.292353630065918,16.763673782348633,-15.284092903137207
0,301844,-6.1495819091796875,-1.2830462455749512,20.264259338378906,3.6367156505584717
0,301844,10.15268325805664,-8.852131843566895,3.8785276412963867,-18.11948585510254
0,301844,2.8637959957122803,-15.008667945861816,-15.549479484558105,-6.346139907836914
0,301845,-6.9840569496154785,5.300204277038574,-6.442132949829102,12.083959579467773
0,301845,4.649888038635254,-12.168717384338379,5.3162713050842285,-10.67383861541748
0,301845,12.508423805236816,-22.980945587158203,-0.8758594393730164,-3.1474452018737793
0,301845,-15.273409843444824,1.5707179307937622,-29.968711853027344,12.662137031555176
0,301845,-31.170021057128906,8.648886680603027,6.511316299438477,7.857622146606445
0,301845,6.703347206115723,19.366474151611328,37.5916862487793,-15.424585342407227
0,301846,6.317317962646484,20.325483322143555,-15.159486770629883,-10.12537956237793
0,301846,-12.566543579101562,16.127849578857422,-18.065887451171875,8.101984977722168
0,301846,-12.099712371826172,-23.26686668395996,7.82131814956665,7.395601749420166
0,301846,2.6943631172180176,-13.391068458557129,2.2992727756500244,20.12525177001953
0,301846,30.5519962310791,34.58449172973633,-15.101972579956055,-5.431809902191162
0,301846,2.459672212600708,-26.833345413208008,-14.410836219787598,0.7958600521087646
0,301847,-23.850643157958984,-28.215978622436523,5.0718793869018555,10.57070541381836
0,301847,4.509777545928955,21.252025604248047,-20.5620059967041,-24.080720901489258
0,301847,-0.8624483942985535,-21.68994140625,-13.331432342529297,-6.689467430114746
0,301847,-13.211938858032227,-20.628210067749023,15.548809051513672,6.017746925354004
0,301847,7.563432693481445,7.795907497406006,-5.841874599456787,9.308956146240234
0,301847,6.960669040679932,3.045368194580078,9.36166000366211,2.023071765899658
0,301848,11.240411758422852,31.33221435546875,3.8173882961273193,-11.190649032592773
0,301848,10.465535163879395,-5.681005477905273,-15.646347045898438,6.816159248352051
0,301848,-10.200002670288086,-32.314117431640625,9.487984657287598,-4.504400253295898
0,301848,7.894766330718994,2.9147684574127197,6.623041152954102,-21.947124481201172
0,301848,11.062451362609863,-17.07203483581543,-11.030591011047363,18.91360855102539
0,301848,-13.845181465148926,16.879438400268555,-8.047324180603027,26.65736198425293
0,301849,5.799248695373535,36.55229949951172,21.141847610473633,-15.089951515197754
0,301849,9.180201530456543,-18.872364044189453,-1.0989127159118652,-21.187856674194336
0,301849,-9.883938789367676,-19.196487426757812,-35.962799072265625,-10.206847190856934
0,301849,4.194141387939453,11.518030166625977,17.75821304321289,19.45893096923828
0,301849,1.8429834842681885,5.763873100280762,29.39862060546875,30.694015502929688
0,301850,-1.7353978157043457,-5.172475814819336,-2.129603147506714,2.3552024364471436
0,301850,3.6040172576904297,7.886379241943359,1.5743920803070068,-16.29959487915039
0,301850,-8.498291969299316,2.9428200721740723,-1.403883934020996,-5.598254680633545
0,301850,-9.412345886230469,0.9691836833953857,7.686607360839844,8.21561050415039
0,301850,1.2588979005813599,2.641305923461914,-10.22010612487793,6.040744304656982
0,301850,-6.452054977416992,5.91758918762207,-9.468530654907227,2.701514959335327
0,301851,-2.241001844406128,9.917045593261719,23.19294548034668,-18.56610107421875
0,301851,18.866310119628906,-17.913124084472656,-7.804065704345703,10.178762435913086
0,301851,6.757482051849365,2.0832653045654297,1.1190414428710938,19.262123107910156
0,301851,-11.84994888305664,13.72840690612793,-2.9128875732421875,-27.186845779418945
0,301851,-13.647509574890137,-26.10646629333496,-13.337404251098633,-7.7350077629089355
0,301851,-7.0376152992248535,1.0566648244857788,15.545281410217285,-1.89574134349823
0,301852,-5.6505937576293945,36.281227111816406,-11.29285717010498,-6.410615921020508
0,301852,-6.382475852966309,-15.143716812133789,-3.1844193935394287,-4.041113376617432
0,301852,9.683618545532227,-23.88113021850586,1.0816972255706787,-1.921160340309143
0,301852,-5.730990409851074,2.7609329223632812,1.1578679084777832,19.286893844604492
0,301852,-9.330547332763672,-4.167811870574951,9.30466365814209,-5.5835185050964355
0,301852,25.789552688598633,-0.5414585471153259,-17.693880081176758,-16.751914978027344
0,301853,-8.504237174987793,-17.9518985748291,9.764639854431152,-3.199014663696289
0,301853,-20.88217544555664,15.862794876098633,17.749340057373047,-6.49835205078125
0,301853,29.904422760009766,34.91590881347656,-16.14650535583496,2.380462408065796
0,301853,3.2664895057678223,-29.628999710083008,-11.489501953125,11.354715347290039
0,301853,-11.736879348754883,0.46842414140701294,8.821248054504395,7.219237327575684
0,301853,23.912303924560547,33.983821868896484,21.098363876342773,-6.261473178863525
0,301854,7.128790378570557,-16.869571685791016,-1.3481676578521729,5.958432197570801
0,301855,-23.72599983215332,21.68014144897461,25.619243621826172,37.401947021484375
0,301855,-27.91556739807129,31.371749877929688,57.44175338745117,16.333215713500977
0,301855,7.794285774230957,-14.385285377502441,-28.88022804260254,-22.708171844482422
0,301855,29.693466186523438,-2.7661023139953613,-31.205778121948242,-13.225869178771973
0,301856,-10.199430465698242,-8.03812026977539,32.6963005065918,10.677207946777344
0,301856,-21.13254165649414,5.141803741455078,-12.331912994384766,14.151301383972168
0,301856,17.155542373657227,17.892520904541016,-15.776480674743652,-16.409406661987305
0,301856,18.131250381469727,-13.323664665222168,16.03026580810547,-25.40187644958496
0,301857,-13.568292617797852,-6.98583984375,-4.835051536560059,22.6164493560791
0,301860,17.604276657104492,-6.433363914489746,-25.11000633239746,7.943323612213135
0,301861,46.15931701660156,-45.361671447753906,-41.90965270996094,-33.06846618652344
0,301864,25.822864532470703,-39.883846282958984,-53.51645278930664,16.402265548706055
0,301865,4.282007694244385,-5.398348808288574,0.017754333093762398,15.905839920043945
0,301868,-43.067291259765625,33.27197265625,44.66857147216797,-27.987646102905273
0,301869,-7.8338494300842285,-6.975198745727539,-35.990909576416016,-10.40526008605957
0,301872,5.439691066741943,-37.51191711425781,-26.054704666137695,11.714437484741211
0,301874,-56.90193557739258,19.711021423339844,30.372549057006836,5.7671332359313965
0,301875,-30.226736068725586,12.677793502807617,-13.516494750976562,-25.837905883789062
0,301878,4.694374084472656,93.8171157836914,126.23682403564453,9.807780265808105
0,301879,4.936018466949463,105.314453125,134.5723876953125,19.076297760009766
0,301882,21.715545654296875,-125.552978515625,-164.1078338623047,-25.76584243774414
0,301883,42.82734298706055,-132.49093627929688,-117.76700592041016,16.3593692779541
0,301886,12.727120399475098,59.5395622253418,71.72390747070312,7.935210227966309
0,301887,-32.39409255981445,80.86046600341797,50.61882019042969,-12.08672046661377
0,301890,-11.140331268310547,-46.15631866455078,-31.88927459716797,10.534640312194824
0,301891,25.61073112487793,-65.91094970703125,-67.69596862792969,-0.8228667974472046
0,301894,-3.5735926628112793,39.9283561706543,18.103513717651367,10.119304656982422
0,301895,-32.7448844909668,37.37996292114258,46.18806457519531,21.38573455810547
0,301898,-31.612274169921875,38.464393615722656,56.738685607910156,-14.712620735168457
0,301899,-9.67485523223877,50.68270492553711,52.23574447631836,-22.51064682006836
0,301902,38.79610061645508,-77.52792358398438,-81.72055053710938,18.939250946044922
0,301903,41.53455352783203,-93.63774871826172,-90.25984191894531,-5.713767051696777
0,301906,-10.014824867248535,55.112430572509766,55.58022689819336,-28.27294158935547
1,304071,-46.05992889404297,66.08712768554688,48.76235580444336,-9.239006042480469
1,304074,-55.54494857788086,34.224239349365234,35.22795104980469,24.710025787353516
1,304075,14.154047966003418,32.560115814208984,56.4222412109375,23.791963577270508
1,304078,104.09855651855469,-95.54943084716797,-83.29527282714844,-7.5899434089660645
1,304079,61.16957473754883,-108.7904281616211,-137.8373565673828,-5.831265926361084
1,304082,5.590357303619385,1.8378092050552368,-19.65169906616211,-15.114225387573242
1,304083,-38.54694747924805,41.67528533935547,81.10009765625,-5.243898391723633
1,304086,-54.324947357177734,21.149967193603516,8.263138771057129,19.74250030517578
1,304096,-56.212921142578125,34.62274932861328,14.860111236572266,20.915584564208984
1,304096,-37.91402816772461,69.93080139160156,98.61259460449219,-10.41461181640625
1,304096,58.87866973876953,-14.39178466796875,-34.457218170166016,-22.724918365478516
1,304096,41.05821990966797,-36.47145462036133,-44.11064529418945,8.05186653137207
1,304096,1.1752378940582275,-0.0056647686287760735,32.56134796142578,11.414058685302734
1,304098,2.093536615371704,-39.67628479003906,-19.93079948425293,1.016910433769226
1,304099,24.4002628326416,-45.80702590942383,-73.4655532836914,2.5529558658599854
1,304102,37.72438430786133,9.84857177734375,-32.372711181640625,-25.10092544555664
1,304103,-43.23508834838867,51.01259994506836,69.21980285644531,-3.6668171882629395
1,304106,-20.475011825561523,-26.441617965698242,-10.877138137817383,13.82296085357666
1,304107,9.994332313537598,-52.5612907409668,-77.81934356689453,-10.064598083496094
1,304110,-50.291053771972656,32.35682678222656,31.68429183959961,8.108742713928223
1,304111,-27.070205688476562,25.706270217895508,61.2064208984375,-3.0765230655670166
1,304114,-1.1759135723114014,57.872074127197266,87.9731674194336,5.457969665527344
1,304115,-0.43858465552330017,63.19996643066406,43.7254524230957,8.352806091308594
1,304118,57.122230529785156,-71.10135650634766,-101.73562622070312,-22.229427337646484
1,304119,59.10441207885742,-73.4410171508789,-56.65798568725586,7.773777008056641
1,304143,-15.339970588684082,48.38833999633789,55.631629943847656,28.715360641479492
1,304143,-38.06934356689453,49.84901809692383,38.541465759277344,-10.301395416259766
1,304143,-3.729556083679199,-14.695847511291504,-23.316926956176758,-19.64239501953125
1,304143,25.10055160522461,-18.01003074645996,-26.889266967773438,-2.760869026184082
1,304143,3.22963285446167,-26.119808197021484,-21.658327102661133,-1.8274290561676025
1,304143,-1.8550001382827759,-23.82866096496582,-3.2025158405303955,3.27506685256958
1,304144,16.98277473449707,-12.796619415283203,-3.0438637733459473,-6.0491156578063965
1,304144,-11.36228084564209,-7.3416595458984375,-27.04806137084961,0.7421903014183044
1,304144,-30.269100189208984,20.40877914428711,19.289026260375977,9.306406021118164
1,304144,-23.699054718017578,6.227285385131836,15.60743522644043,-0.7972623109817505
1,304144,-18.0607852935791,3.039016008377075,-1.8688716888427734,2.6580381393432617
1,304146,-6.741394519805908,6.4372334480285645,-33.03666687011719,8.78504467010498
1,304146,24.30841636657715,-15.21904468536377,-34.00861358642578,11.1203031539917
1,304147,18.05673599243164,6.728216171264648,67.28045654296875,6.917941093444824
1,304150,-25.978960037231445,-5.454828262329102,24.64663314819336,-13.741382598876953
1,304151,-17.523733139038086,19.427427291870117,-32.213741302490234,-1.3358839750289917
1,304154,-15.322611808776855,82.66098022460938,93.11800384521484,12.775850296020508
1,304155,0.4075740575790405,22.731975555419922,72.3484115600586,-7.929464340209961
1,304158,73.2808837890625,-75.5389175415039,-123.98735809326172,-3.558413028717041
1,304159,58.19395446777344,-50.025856018066406,-84.19615936279297,-31.41282081604004
1,304162,-31.667236328125,13.703487396240234,38.147003173828125,-3.383179187774658
1,304163,-56.53675079345703,13.766189575195312,52.310203552246094,36.94961929321289
1,304166,17.364810943603516,-13.307822227478027,12.959997177124023,-5.318750858306885
1,304167,39.07203674316406,-47.6302490234375,-72.00720977783203,-19.324501037597656
1,304170,-27.726093292236328,6.465986728668213,-31.87653923034668,14.36277961730957
1,304206,8.023819923400879,35.7740364074707,31.96706199645996,6.771697044372559
1,304206,34.83744430541992,-13.254510879516602,-3.1540632247924805,-39.983436584472656
1,304206,-38.99934768676758,-11.771310806274414,-17.675617218017578,24.718006134033203
1,304207,-28.466163635253906,2.4794251918792725,7.0573506355285645,29.091909408569336
1,304207,-3.0176408290863037,3.154276132583618,14.571786880493164,-16.659618377685547
1,304207,-16.285425186157227,20.122543334960938,32.51153564453125,-9.400681495666504
1,304207,-14.117403984069824,19.029510498046875,20.67799186706543,-6.239815711975098
1,304207,0.8622671961784363,19.036819458007812,-15.518378257751465,19.618816375732422
1,304207,37.95826721191406,22.395570755004883,-4.043255805969238,0.34292954206466675
1,304208,27.307491302490234,-28.6157169342041,-5.248633861541748,-10.44314956665039
1,304208,-0.05513352155685425,-35.485511779785156,-12.636759757995605,2.6006009578704834
1,304208,-6.5180253982543945,7.400723934173584,-6.564126491546631,9.030139923095703
1,304208,-7.4333086013793945,13.767289161682129,-9.562517166137695,-1.3764400482177734
1,304208,1.842779517173767,1.3371028900146484,2.988004207611084,-13.016961097717285
1,304208,-11.505888938903809,-9.267756462097168,17.056533813476562,1.3602532148361206
1,304209,-7.823479175567627,17.18730354309082,30.330730438232422,4.6240458488464355
1,304209,9.04511547088623,25.083433151245117,27.46146011352539,-8.739178657531738
1,304209,-0.11059004813432693,-7.6457061767578125,-9.903162002563477,-15.855687141418457
1,304210,-7.139819622039795,17.257417678833008,17.108060836791992,13.109251022338867
1,304210,0.13953621685504913,17.513532638549805,21.69761085510254,0.6537247896194458
1,304212,-2.244420051574707,-15.451493263244629,-11.799761772155762,-1.4552202224731445
1,304213,-28.45050048828125,3.6409928798675537,27.432661056518555,24.740209579467773
1,304216,2.996894359588623,0.4479990601539612,9.112639427185059,-13.535100936889648
1,304217,47.89667892456055,-53.20954132080078,-58.70194625854492,-13.044790267944336
1,304220,47.14994812011719,-53.59811019897461,-84.3923568725586,18.814950942993164
1,304221,10.513927459716797,16.1733341217041,-31.729564666748047,8.904411315917969
1,304224,-53.318790435791016,56.98504638671875,82.20453643798828,-17.393146514892578
1,304225,-17.724966049194336,5.856377601623535,18.07023811340332,-0.3715074062347412
1,304228,12.463254928588867,-59.751686096191406,-111.19774627685547,6.487884998321533
1,304229,-21.87668800354004,-30.31611442565918,-20.47848892211914,-22.052337646484375
1,304232,-11.091054916381836,42.69225311279297,83.54493713378906,13.321721076965332
1,304233,-18.883190155029297,84.51476287841797,88.91094207763672,25.216829299926758
1,304236,7.918488502502441,5.273059844970703,10.371471405029297,-22.309566497802734
1,304237,28.355579376220703,-75.31488800048828,-57.11933135986328,-20.810546875
1,304287,15.498873710632324,-37.8686637878418,-67.89907836914062,-0.9836914539337158
1,304287,4.752996444702148,9.927005767822266,-47.20098114013672,-2.4773621559143066
1,304287,-25.6729793548584,23.77626609802246,60.61948776245117,23.067180633544922
1,304287,3.5990302562713623,13.404274940490723,71.8755111694336,11.298821449279785
1,304287,33.02634811401367,-7.251320838928223,-16.79996109008789,-20.166521072387695
1,304287,15.224908828735352,-25.015522003173828,-46.898921966552734,11.552433967590332
1,304288,-7.645863056182861,-13.041812896728516,-32.80003356933594,5.250311851501465
1,304288,1.6698766946792603,14.98017406463623,-3.835515260696411,-13.333977699279785
1,304288,0.1912839561700821,16.719545364379883,16.72001838684082,0.5921759605407715
1,304288,-31.819345474243164,-12.383153915405273,13.301420211791992,1.9228453636169434
1,304288,-31.550792694091797,9.05815601348877,37.88579559326172,1.3930630683898926
1,304288,-2.7952096462249756,48.08765411376953,44.25088882446289,0.02638842910528183
1,304289,0.9769365787506104,13.883685111999512,6.1378560066223145,13.423794746398926
1,304289,6.177908897399902,-17.991079330444336,-20.691753387451172,7.008492469787598
1,304289,12.080379486083984,-8.273067474365234,-16.939542770385742,-18.459684371948242
1,304289,-6.711360454559326,-19.10700798034668,-7.929361820220947,2.206376552581787
1,304289,15.22199821472168,-31.008092880249023,-33.675418853759766,12.162092208862305
1,304289,17.9047794342041,11.001290321350098,-15.690719604492188,-20.281280517578125
1,304290,-12.01110553741455,31.043540954589844,18.771848678588867,-1.2662800550460815
1,304290,0.316175252199173,0.552151620388031,21.056549072265625,14.767810821533203
1,304290,7.937719821929932,4.360146999359131,28.023212432861328,-10.463399887084961
1,304290,-17.772647857666016,6.349687576293945,9.277982711791992,15.278411865234375
1,304290,-19.858917236328125,3.1554274559020996,0.8185209631919861,8.984208106994629
1,304291,5.008692264556885,-0.11276828497648239,7.737231254577637,-17.54397964477539
1,304292,10.084630966186523,1.8572224378585815,26.39986228942871,12.103347778320312
1,304292,-5.4392852783203125,42.727935791015625,10.173151016235352,3.7203991413116455
1,304292,-5.525246620178223,-8.071675300598145,-31.2161865234375,-6.2143659591674805
1,304294,1.747128963470459,-27.326946258544922,-0.2552194595336914,-19.412992477416992
1,304295,-0.14451828598976135,13.959941864013672,1.5556836128234863,-25.612239837646484
1,304298,49.21371841430664,-56.46512985229492,-57.240028381347656,39.80607604980469
1,304299,57.40073776245117,-69.41166687011719,-46.83636474609375,23.419689178466797
1,304302,-24.088748931884766,17.560274124145508,-0.9648339748382568,-44.26968002319336
1,304303,-59.08036804199219,53.746604919433594,7.4244608879089355,-0.5908050537109375
1,304306,17.657512664794922,-21.620344161987305,3.3567817211151123,9.930534362792969
1,304307,57.05760955810547,-36.88018798828125,3.3962371349334717,-13.392253875732422
1,304310,-41.25776290893555,22.12175941467285,-35.28406524658203,16.014698028564453
1,304311,-75.25959014892578,7.702739238739014,-13.663276672363281,4.975156784057617
1,304314,-14.880985260009766,59.66616439819336,136.0404510498047,-0.8333041667938232
1,304315,11.186971664428711,59.45252990722656,70.8124008178711,-1.6364643573760986
1,304318,29.956680297851562,-49.85587692260742,-105.77192687988281,-6.011735916137695
1,304319,45.1224365234375,-55.048431396484375,-44.726417541503906,22.348466873168945
1,304322,-14.096874237060547,16.840694427490234,41.67485427856445,3.03757905960083
1,304383,-36.2435188293457,42.29432678222656,18.40302848815918,-18.192445755004883
1,304384,6.187850475311279,-7.4543890953063965,2.236044406890869,-1.8974082469940186
1,304384,27.743568420410156,-43.8029670715332,-15.52114200592041,-17.80434799194336
1,304384,32.69203186035156,-19.17171859741211,-45.6468505859375,6.087789058685303
1,304384,0.9250053763389587,5.326100826263428,-17.96512222290039,22.29808807373047
1,304384,-5.354259967803955,-11.018011093139648,12.4363431930542,-13.84426498413086
1,304384,-5.716767311096191,-10.186923027038574,-4.216987133026123,0.5992253422737122
1,304385,-32.894710540771484,14.435595512390137,-1.1216453313827515,11.66825008392334
1,304385,-27.91038703918457,10.995216369628906,29.644010543823242,-16.752220153808594
1,304385,-8.539410591125488,16.13593864440918,14.606599807739258,-5.15924596786499
1,304385,3.9688377380371094,13.147452354431152,2.898214817047119,18.698518753051758
1,304385,2.069521188735962,-11.77051067352295,19.179384231567383,-7.053848743438721
1,304386,7.7388410568237305,-6.007211208343506,-18.888708114624023,-9.76244068145752
1,304386,20.336259841918945,-0.7201876640319824,-26.00558853149414,20.12824821472168
1,304386,16.911209106445312,-4.845420837402344,11.035861015319824,-6.576263427734375
1,304386,0.9223868250846863,-7.698963165283203,-2.0095930099487305,-20.484960556030273
1,304386,-17.61435890197754,2.4701552391052246,-5.0032758712768555,28.50627326965332
1,304386,-16.189924240112305,16.0297908782959,16.628280639648438,11.007540702819824
1,304387,-3.0908384323120117,10.950339317321777,0.3732260465621948,-32.64986801147461
1,304387,3.3678507804870605,3.7179501056671143,-20.667360305786133,-6.394789218902588
1,304387,-10.83091926574707,10.950064659118652,12.714468955993652,15.735350608825684
1,304387,-2.9798696041107178,8.662320137023926,19.871957778930664,3.543424367904663
1,304387,23.96893310546875,-18.572053909301758,-34.88420867919922,-19.49941635131836
1,304387,21.30145835876465,-16.28450584411621,-17.863130569458008,-4.255473613739014
1,304388,6.217588424682617,-0.24635320901870728,20.148605346679688,16.36035919189453
1,304388,-8.763593673706055,-9.894892692565918,-2.0928916931152344,-4.061837673187256
1,304388,-22.777019500732422,-8.940020561218262,-4.677316665649414,-5.579034805297852
1,304388,-7.367153167724609,35.58461380004883,16.953283309936523,0.9256917834281921
1,304388,12.491657257080078,48.55488967895508,2.323253631591797,-15.129354476928711
1,304388,-20.831937789916992,-3.1597392559051514,-8.458517074584961,3.379340648651123
1,304389,-12.775758743286133,3.222559928894043,32.00404739379883,29.969043731689453
1,304390,1.555828332901001,99.18800354003906,50.71419906616211,2.067277669906616
1,304390,-20.846996307373047,39.88542938232422,-6.166833877563477,-19.34807586669922
1,304390,19.619163513183594,-95.1109390258789,-33.86019515991211,-3.4745006561279297
1,304392,27.796527862548828,11.580976486206055,61.03229904174805,16.602705001831055
1,304393,-27.182941436767578,-32.4279899597168,50.35576629638672,22.14815902709961
1,304396,-13.166403770446777,-274.5970458984375,-60.681884765625,31.194103240966797
1,304397,60.0509033203125,-124.81713104248047,-57.35476303100586,14.780465126037598
1,304400,91.10577392578125,79.76937866210938,-61.451412200927734,6.237983226776123
1,304401,43.15058135986328,45.29135513305664,-41.891746520996094,17.35527229309082
1,304404,-51.67819595336914,153.12281799316406,79.67021942138672,2.631652593612671
1,304405,-32.649391174316406,90.26537322998047,35.524147033691406,-44.49678039550781
1,304408,-19.300230026245117,-122.63710021972656,-85.43937683105469,-73.27776336669922
1,304409,-63.244136810302734,-18.161043167114258,-46.64408874511719,-4.835301876068115
1,304412,-29.250633239746094,151.0285186767578,72.47718811035156,-34.43187713623047
1,304413,-45.54154968261719,125.81346130371094,119.65583801269531,-46.08373260498047
1,304416,10.773054122924805,-33.03446960449219,-24.149606704711914,78.8711929321289
1,304417,83.09741973876953,-69.74968719482422,-77.18551635742188,12.680770874023438
1,304420,13.651409149169922,44.38224792480469,-22.24057388305664,-63.1353874206543
1,304421,-21.05903434753418,-10.701821327209473,12.179652214050293,32.2147216796875
1,304496,-54.611854553222656,-91.84201049804688,95.65345001220703,29.893863677978516
1,304496,-43.252925872802734,-33.57069396972656,25.655517578125,-10.060039520263672
1,304496,75.08015441894531,-26.7738094329834,-94.80311584472656,39.69202423095703
1,304496,69.07733917236328,8.306777000427246,-37.7319221496582,25.373273849487305
1,304497,8.711019515991211,28.3950138092041,11.871840476989746,-9.345325469970703
1,304497,0.20891335606575012,12.338202476501465,-5.304856300354004,2.6968884468078613
1,304497,-29.182706832885742,10.17530345916748,-4.172760486602783,-13.127001762390137
1,304497,-19.95782470703125,-7.165124416351318,2.6538872718811035,-19.6192569732666
1,304497,-14.298992156982422,4.7033514976501465,21.092134475708008,-10.830571174621582
1,304497,-7.641097068786621,-24.565364837646484,12.409669876098633,-3.7384066581726074
1,304498,11.547189712524414,-40.78391647338867,-5.370594024658203,7.361826419830322
1,304498,16.53800392150879,-32.002620697021484,-18.5181884765625,4.561452388763428
1,304498,30.73295783996582,-27.95103645324707,-28.354990005493164,0.8830735087394714
1,304498,16.647998809814453,-8.692513465881348,-17.604549407958984,5.595496654510498
1,304498,-1.817220687866211,11.92074203491211,-5.832283020019531,12.70724105834961
1,304498,-14.27116870880127,42.66401672363281,11.831633567810059,9.463626861572266
1,304499,-22.28830909729004,29.914249420166016,23.964426040649414,2.119152545928955
1,304499,-2.8994507789611816,8.166382789611816,22.935291290283203,-8.601034164428711
1,304499,1.163534164428711,27.234628677368164,25.621414184570312,-15.440752029418945
1,304499,-19.15144157409668,12.164521217346191,4.8630452156066895,-0.06965847313404083
1,304499,-7.302164077758789,-28.261362075805664,-10.037680625915527,15.13902473449707
1,304500,25.62744140625,-19.555818557739258,11.417132377624512,15.804747581481934
1,304500,17.37624740600586,-7.5225043296813965,5.670039176940918,-2.6611149311065674
1,304500,8.07939624786377,-18.125492095947266,-16.08395004272461,-25.589387893676758
1,304500,5.4373908042907715,9.71361255645752,-26.426681518554688,-1.7457841634750366
1,304500,-9.072720527648926,18.81802749633789,-4.140452861785889,28.143970489501953
1,304500,-11.584404945373535,6.728383541107178,14.139005661010742,-21.368663787841797
1,304501,-5.976263999938965,23.876605987548828,-2.895742893218994,-13.828717231750488
1,304501,-1.5725975036621094,-1.272017002105713,3.992830514907837,24.57682228088379
1,304501,-25.093931198120117,-2.125837802886963,15.641979217529297,-9.860943794250488
1,304501,-12.291773796081543,17.937339782714844,-6.0647711753845215,-20.893693923950195
1,304501,17.24626350402832,-16.510652542114258,5.732295513153076,-13.25564193725586
1,304501,2.677393913269043,-15.686982154846191,10.45470905303955,21.46498680114746
1,304502,-3.0983738899230957,20.460859298706055,-10.844769477844238,26.5395450592041
1,304502,1.1673645973205566,23.689189910888672,15.51656436920166,-10.171152114868164
1,304502,9.80473804473877,-7.778145790100098,-2.673828601837158,-15.116918563842773
1,304502,-5.21279239654541,0.2711367905139923,-6.982390403747559,-1.2013912200927734
1,304503,-27.39616584777832,18.300745010375977,1.823155403137207,-8.171426773071289
1,304503,6.7503581047058105,13.822004318237305,-22.7215633392334,-12.266828536987305
1,304504,13.112144470214844,2.5229690074920654,7.089901447296143,12.601818084716797
1,304504,-8.323165893554688,-29.555965423583984,4.0398478507995605,-9.781999588012695
1,304505,19.961490631103516,-19.13670539855957,-40.083282470703125,-27.077049255371094
1,304508,8.137246131896973,-25.750469207763672,-52.82478713989258,9.103740692138672
1,304509,-30.803226470947266,-22.77225685119629,11.65600872039795,15.271576881408691
1,304512,-42.92860412597656,51.612091064453125,140.67222595214844,56.300689697265625
1,304513,-31.823286056518555,73.72570037841797,79.66748046875,36.23884963989258
1,304516,39.27848434448242,-54.11689376831055,-110.21420288085938,-47.6445198059082
1,304517,71.90909576416016,-126.91222381591797,-91.2322006225586,-22.491127014160156
1,304520,61.20457077026367,1.6552479267120361,-1.7067406177520752,10.624312400817871
1,304521,7.514525413513184,87.36962127685547,28.828449249267578,-16.88912582397461
1,304524,-69.49028778076172,73.18246459960938,39.083656311035156,-35.088314056396484
1,304525,-24.391130447387695,-66.64262390136719,-35.82600784301758,11.697211265563965
1,304528,-1.1088945865631104,-139.94973754882812,-47.82087707519531,35.850894927978516
1,304529,-8.815321922302246,47.233985900878906,64.75090789794922,16.22062110900879
1,304532,-24.05685043334961,157.4730682373047,91.02809143066406,-27.397096633911133
1,304533,-33.35253143310547,66.13045501708984,17.979114532470703,-29.026626586914062
1,304536,80.13286590576172,-19.387996673583984,-62.10345458984375,6.0981669425964355
1,304537,70.51880645751953,-77.41532897949219,-65.9767074584961,18.082263946533203
1,304539,-32.2065315246582,-124.80266571044922,20.51952362060547,24.52234649658203
1,304627,-72.90116882324219,148.08555603027344,5.4387688636779785,-46.79669952392578
1,304627,-48.53532409667969,230.0150909423828,-21.543148040771484,-38.454132080078125
1,304627,46.08338165283203,-125.96583557128906,25.102928161621094,54.55074691772461
1,304627,59.40116882324219,-128.90164184570312,-18.219682693481445,5.99196720123291
1,304628,13.525440216064453,-26.978927612304688,-43.32679748535156,-32.63173294067383
1,304628,-5.323725700378418,-50.629371643066406,-23.703561782836914,9.002326965332031
1,304628,-10.682174682617188,-20.363910675048828,-19.299531936645508,1.0208005905151367
1,304628,-19.138153076171875,-15.004950523376465,39.41059875488281,0.7798096537590027
1,304628,-25.803651809692383,22.53031349182129,50.53779220581055,-1.9129635095596313
1,304628,-22.26538848876953,13.637414932250977,7.507357597351074,-0.0006649112328886986
1,304629,-12.383277893066406,-16.943790435791016,18.003324508666992,28.39146614074707
1,304629,1.7298684120178223,5.651958465576172,28.407743453979492,11.089262008666992
1,304629,27.409198760986328,27.446069717407227,2.9608819484710693,-8.200751304626465
1,304629,34.13081741333008,26.618667602539062,-13.921304702758789,-20.67296600341797
1,304629,11.077168464660645,3.801511526107788,-14.49996280670166,1.3470538854599
1,304629,-14.95132064819336,6.7407145500183105,-2.505197048187256,19.879356384277344
1,304630,-0.3982245624065399,22.279733657836914,-8.373363494873047,-5.847418308258057
1,304630,12.540066719055176,-6.7548933029174805,-13.843947410583496,14.244909286499023
1,304630,-28.162918090820312,-13.12950325012207,11.846037864685059,15.312882423400879
1,304630,-12.758211135864258,-1.7455776929855347,16.720468521118164,-5.090208530426025
1,304630,14.453042984008789,-39.9845085144043,12.961359977722168,-5.049554824829102
1,304631,-6.46912145614624,-30.242650985717773,2.9260849952697754,-4.190171718597412
1,304631,6.292079448699951,17.82777976989746,-4.874439716339111,30.176433563232422
1,304631,23.856201171875,-0.2371961772441864,-7.212410926818848,21.381771087646484
1,304631,8.736723899841309,-23.720129013061523,-16.55669403076172,-14.592860221862793
1,304631,-1.1334823369979858,6.685708045959473,-5.189781188964844,-23.98430061340332
1,304631,-18.379579544067383,29.904438018798828,2.571871757507324,-15.818194389343262
1,304632,-15.640380859375,7.057092189788818,1.8228696584701538,15.570064544677734
1,304632,-2.6915695667266846,-15.975163459777832,7.917963027954102,-2.2975821495056152
1,304632,-14.405256271362305,1.9208468198776245,17.36142921447754,-11.72733211517334
1,304632,5.446746349334717,10.653697967529297,7.069689750671387,15.327207565307617
1,304632,18.447954177856445,2.120809316635132,-13.869028091430664,-1.2950472831726074
1,304632,-4.636190891265869,3.3622829914093018,-8.822159767150879,-20.937198638916016
1,304633,-5.28022575378418,-13.814240455627441,-8.934703826904297,10.372989654541016
1,304633,6.386255741119385,-3.5008323192596436,-23.61379623413086,22.776142120361328
1,304633,5.8379011154174805,10.715291023254395,-0.7707619667053223,-19.539653778076172
1,304633,23.743087768554688,-1.4676120281219482,-8.670534133911133,-29.403682708740234
1,304633,6.614648342132568,-4.642307758331299,-7.361538410186768,29.92415428161621
1,304633,-27.396703720092773,20.788564682006836,47.300697326660156,34.93706130981445
1,304634,12.813441276550293,24.087411880493164,9.384721755981445,-15.206393241882324
1,304634,21.929119110107422,-31.31574249267578,-30.482149124145508,9.850327491760254
1,304634,-14.480720520019531,-13.979785919189453,16.671558380126953,21.225507736206055
1,304634,11.64366340637207,32.04780197143555,8.86144733428955,-14.53304672241211
1,304634,14.499112129211426,-3.2075319290161133,-15.996692657470703,-12.340951919555664
1,304636,2.1698105335235596,-41.31879425048828,-12.565450668334961,0.12152650952339172
1,304636,9.827465057373047,-19.334436416625977,-27.034963607788086,1.3567596673965454
1,304636,-26.300365447998047,41.99007034301758,23.62550163269043,-1.304598093032837
1,304636,-12.365910530090332,34.12181091308594,7.911067962646484,-7.292373180389404
1,304637,32.64567184448242,-50.80259704589844,-75.93013000488281,12.111283302307129
1,304640,87.94454956054688,17.178354263305664,-29.69097137451172,66.30520629882812
1,304641,40.65138626098633,106.47793579101562,81.6388168334961,-1.281821846961975
1,304644,-133.0448760986328,30.268417358398438,56.884315490722656,-192.68865966796875
1,304645,-106.85298919677734,-30.26093864440918,-74.94683837890625,-113.30113983154297
1,304648,-30.954252243041992,34.84381103515625,-34.739158630371094,46.80332565307617
1,304649,-2.8126907348632812,25.915130615234375,60.452735900878906,11.95608139038086
1,304652,26.355440139770508,-94.5064697265625,85.39700317382812,59.69818115234375
1,304654,-14.57648754119873,-25.182369232177734,49.65414810180664,52.13405227661133
1,304655,6.683910369873047,1.2863397598266602,-70.98927307128906,4.597336292266846
1,304658,71.79082489013672,1.2509757280349731,-75.14022827148438,15.34094524383545
1,304659,61.322509765625,19.999099731445312,-9.372001647949219,1.7662080526351929
1,304662,-18.060562133789062,-92.78764343261719,58.70215606689453,57.43742370605469
1,304663,-39.555721282958984,-40.128570556640625,35.472259521484375,35.26095962524414
1,304666,-19.437650680541992,289.8455810546875,-82.93034362792969,-98.55565643310547
1,304667,-1.8974697589874268,5.210355281829834,-56.43488693237305,-66.27025604248047
1,304670,18.31778335571289,-550.244140625,33.54352951049805,62.622947692871094
1,304671,21.331134796142578,-61.37803268432617,61.59580612182617,52.36932373046875
1,304769,37.00341033935547,352.77734375,-8.38132095336914,46.05047607421875
1,304770,-0.7379382848739624,105.87940216064453,-35.059146881103516,12.907546043395996
1,304770,-65.28446197509766,-69.9623794555664,18.123750686645508,-74.91749572753906
1,304770,-27.03515625,-45.68301010131836,18.13489532470703,-50.32052993774414
1,304770,9.703597068786621,9.8037109375,1.8281769752502441,8.912962913513184
1,304770,13.698627471923828,-9.02316951751709,7.1437506675720215,36.52077865600586
1,304770,24.738130569458008,15.134361267089844,28.33506202697754,23.209714889526367
1,304771,16.59627342224121,42.583675384521484,-12.33927059173584,10.81494140625
1,304771,6.431290626525879,45.987022399902344,-21.707550048828125,-2.9379687309265137
1,304771,-9.120601654052734,26.76658058166504,25.356761932373047,-35.412879943847656
1,304771,-36.84309387207031,-2.624997615814209,9.497060775756836,-21.606088638305664
1,304771,-42.995948791503906,11.140517234802246,-0.7374762296676636,-21.075836181640625
1,304772,-10.69577407836914,2.6634600162506104,8.60555362701416,-34.630924224853516
1,304772,-4.800323963165283,-39.76506805419922,-7.110074043273926,-0.010500680655241013
1,304772,-8.659223556518555,-48.67506790161133,-2.5802762508392334,32.19774627685547
1,304772,35.83007049560547,-7.382137775421143,12.040088653564453,39.90138626098633
1,304772,47.316856384277344,26.836977005004883,2.9781055450439453,26.81484603881836
1,304772,4.206241607666016,13.024532318115234,-21.2141056060791,-4.3458967208862305
1,304773,2.4063549041748047,5.565460681915283,-27.681324005126953,-6.274651527404785
1,304773,15.415921211242676,15.948391914367676,3.7141683101654053,-5.96319580078125
1,304773,3.0479698181152344,1.3534667491912842,-5.239831924438477,-21.320432662963867
1,304773,-15.260379791259766,-18.19603157043457,-20.2161865234375,-16.6813907623291
1,304773,-18.737958908081055,-16.11473274230957,3.201037645339966,-11.241961479187012
1,304773,-0.8082943558692932,-32.47514724731445,6.687126159667969,2.2612366676330566
1,304774,-1.3464105129241943,-36.80534362792969,7.7131757736206055,18.37384605407715
1,304774,-8.276840209960938,12.203388214111328,10.279891014099121,30.932994842529297
1,304774,28.71278190612793,27.20620346069336,4.642383575439453,39.37771224975586
1,304774,22.744590759277344,-2.3439455032348633,-9.974254608154297,-5.188443660736084
1,304774,-14.318689346313477,3.841791868209839,-20.99709129333496,-34.441017150878906
1,304774,-13.552409172058105,12.419685363769531,5.368298530578613,-0.19936373829841614
1,304775,-3.8170313835144043,23.076904296875,7.988654613494873,-11.259490966796875
1,304775,10.254009246826172,2.2877583503723145,-20.415990829467773,-26.566776275634766
1,304775,-10.040595054626465,-28.541080474853516,-11.408388137817383,-3.098064661026001
1,304775,-12.270834922790527,-20.97173500061035,6.167830944061279,-5.100289821624756
1,304775,-2.301136016845703,-14.461936950683594,13.95427417755127,23.97110939025879
1,304775,1.163805603981018,-14.533613204956055,9.564040184020996,35.063499450683594
1,304776,26.914295196533203,-5.622161865234375,-11.56629753112793,-11.224691390991211
1,304776,-1.4219416379928589,31.05074691772461,-16.531368255615234,-8.490524291992188
1,304776,-16.50360679626465,19.395490646362305,-0.8072687387466431,3.635845899581909
1,304776,27.986454010009766,-7.018451690673828,-11.42171859741211,-25.503368377685547
1,304776,0.03685281425714493,9.005661010742188,-1.4434491395950317,-15.986079216003418
1,304777,-30.348337173461914,8.371101379394531,28.78876495361328,20.34678840637207
1,304777,1.279004454612732,4.980709552764893,7.2509765625,3.2310941219329834
1,304777,-4.650943279266357,22.288169860839844,2.86275053024292,-15.354076385498047
1,304777,-9.285591125488281,33.73347091674805,2.106595277786255,6.074798107147217
1,304777,9.403565406799316,7.354774475097656,-13.5816650390625,18.201353073120117
1,304777,8.860671043395996,-31.589712142944336,4.179654121398926,-7.936262130737305
1,304778,10.329813003540039,-21.064390182495117,9.018531799316406,-22.706499099731445
1,304778,-1.2956113815307617,13.257298469543457,5.835039138793945,11.907316207885742
1,304779,32.73595428466797,-41.75177001953125,-11.117117881774902,-6.867823600769043
1,304779,47.744117736816406,-56.616519927978516,-17.413787841796875,-35.163116455078125
1,304779,-45.967769622802734,4.0789361000061035,5.410090446472168,11.717880249023438
1,304779,-35.448219299316406,-19.728551864624023,8.120779991149902,17.521709442138672
1,304780,20.36042022705078,2.7421112060546875,10.680849075317383,2.6987359523773193
1,304781,-5.660206317901611,-27.49835968017578,3.914663076400757,11.806660652160645
1,304784,-7.781601428985596,-48.54010772705078,12.73495101928711,22.717580795288086
1,304785,13.151453971862793,79.76303100585938,-8.467506408691406,26.54767608642578
1,304788,-13.220525741577148,77.13977813720703,-45.69794845581055,-14.280423164367676
1,304789,-34.95634460449219,-0.5838516354560852,28.660945892333984,4.780954837799072
1,304792,-52.27476501464844,-5.4754791259765625,114.61678314208984,53.620201110839844
1,304793,-36.207828521728516,47.54696273803711,62.338802337646484,-9.227701187133789
1,304796,42.674503326416016,80.94991302490234,-102.36859130859375,-67.6771011352539
1,304797,49.00800704956055,8.3256196975708,-91.55003356933594,-11.393444061279297
1,304800,54.771488189697266,-139.58006286621094,-3.3770010471343994,52.57201385498047
1,304801,26.645465850830078,-87.18051147460938,-11.828802108764648,-41.35380172729492
1,304804,-39.66167068481445,95.83905029296875,38.67750549316406,-59.24764633178711
1,304805,-9.105917930603027,26.237674713134766,5.156467437744141,42.22842025756836
1,304808,-31.452259063720703,-89.37171173095703,-74.10883331298828,-14.970968246459961
1,304809,-19.97970962524414,8.257433891296387,-2.4812934398651123,-6.079461574554443
1,304812,5.450273513793945,137.910888671875,132.5814971923828,56.74289321899414
1,304813,-49.50505828857422,46.849910736083984,65.87530517578125,-5.268420696258545
1,304816,37.18701934814453,-104.33788299560547,-75.5246810913086,-54.81884765625
1,304817,79.11125946044922,-62.38530731201172,-91.88865661621094,-16.171295166015625
1,304928,3.520538330078125,64.7110824584961,-43.1961555480957,34.99635696411133
1,304928,-39.0962028503418,50.930763244628906,53.09378433227539,14.057063102722168
1,304928,-26.97201156616211,-18.23184585571289,63.669654846191406,-2.7529189586639404
1,304929,27.45445442199707,-6.560603618621826,-1.3728212118148804,-6.01820182800293
1,304929,24.15229034423828,-32.35255432128906,-42.49387741088867,-7.866678237915039
1,304929,-3.5266623497009277,-56.30078125,-27.162128448486328,11.61014461517334
1,304929,3.3968822956085205,-14.713401794433594,-3.5904338359832764,-13.910665512084961
1,304929,-4.454071521759033,-5.389907360076904,-5.083349227905273,-1.7120836973190308
1,304929,-29.89960479736328,8.23410701751709,27.085155487060547,45.76863479614258
1,304930,-29.07611656188965,35.70563888549805,42.23127365112305,1.8013763427734375
1,304930,-11.541465759277344,2.949603319168091,16.373126983642578,-19.79912567138672
1,304930,-4.503042221069336,-18.72191047668457,-2.7608132362365723,-2.5090341567993164
1,304930,-9.92475414276123,9.197510719299316,5.450243949890137,8.067458152770996
1,304930,14.75729751586914,20.557783126831055,6.529576301574707,14.827645301818848
1,304931,33.77424240112305,-8.735353469848633,-21.264192581176758,-4.116096019744873
1,304931,4.233733177185059,-4.5909037590026855,-13.953388214111328,-8.386672973632812
1,304931,11.747862815856934,13.725696563720703,2.6818203926086426,-3.3416237831115723
1,304931,19.778926849365234,-2.9182684421539307,-2.6013894081115723,0.9391223192214966
1,304931,-20.085708618164062,-1.795857548713684,18.997909545898438,10.056560516357422
1,304931,-18.348163604736328,14.036599159240723,35.0926628112793,12.707033157348633
1,304932,-4.437005996704102,10.641114234924316,-3.4862091541290283,-7.563388347625732
1,304932,-9.246427536010742,-9.225362777709961,-13.36778736114502,-9.37786865234375
1,304932,16.15807342529297,-13.4441556930542,20.825603485107422,6.621273517608643
1,304932,20.663551330566406,12.81851863861084,-0.6576990485191345,-11.013579368591309
1,304932,3.7261040210723877,3.508523941040039,-29.502368927001953,-5.457345008850098
1,304932,12.66874885559082,-41.670196533203125,-26.165584564208984,13.21665096282959
1,304933,-12.131439208984375,-27.75448989868164,-19.139127731323242,-8.096149444580078
1,304933,-16.13699722290039,8.422310829162598,-10.77972412109375,-7.021185874938965
1,304933,22.93095588684082,15.584769248962402,-8.465582847595215,14.676200866699219
1,304933,7.001648902893066,10.27896785736084,11.491294860839844,3.7537741661071777
1,304933,-19.768972396850586,9.078961372375488,5.630781650543213,-29.2150821685791
1,304933,-8.078072547912598,6.85867166519165,-0.12610302865505219,-13.83045768737793
1,304934,-2.4326698780059814,4.011945724487305,22.506607055664062,17.585960388183594
1,304934,-7.147995471954346,28.016748428344727,4.835690498352051,7.90384578704834
1,304934,10.88663387298584,8.74243450164795,-7.186751365661621,-5.31485652923584
1,304934,15.176533699035645,-17.673686981201172,3.693427562713623,-15.891058921813965
1,304934,-0.1082756444811821,-12.676252365112305,-18.955636978149414,-4.294556140899658
1,304934,4.089104652404785,-5.120619297027588,-15.41995620727539,10.626922607421875
1,304935,0.38381505012512207,10.10472583770752,24.64533805847168,8.707301139831543
1,304935,-3.0117342472076416,-20.631742477416992,-0.7389565110206604,2.066452741622925
1,304935,7.965213775634766,-20.49507713317871,-34.275543212890625,-10.227762222290039
1,304935,-9.7753324508667,4.6726484298706055,17.25535011291504,5.549495220184326
1,304935,-2.8714780807495117,0.3901039659976959,30.00326919555664,10.626440048217773
1,304935,2.2958476543426514,-21.29814338684082,-30.171010971069336,-1.3733758926391602
1,304936,-7.13617467880249,-20.664947509765625,-9.603838920593262,13.28921127319336
1,304936,31.238847732543945,27.52560043334961,21.481056213378906,-4.212584495544434
1,304936,10.570697784423828,11.810528755187988,1.7442573308944702,-22.48580551147461
1,304936,-30.47235107421875,-17.70090103149414,-7.396371841430664,8.075213432312012
1,304936,-14.756901741027832,4.554544448852539,-2.243669033050537,-1.9695042371749878
1,304936,-6.252135753631592,15.31956672668457,11.650323867797852,-11.414734840393066
1,304937,-17.55546760559082,3.1353890895843506,-4.676387786865234,24.326156616210938
1,304937,-5.545302391052246,-17.115083694458008,-17.51416015625,2.907449245452881
1,304937,23.36145782470703,-0.5385911464691162,2.776609420776367,-26.449161529541016
1,304937,17.500751495361328,23.491352081298828,3.013795852661133,-0.8716275095939636
1,304937,-2.8310041427612305,3.3211467266082764,-1.7326194047927856,20.171363830566406
1,304939,3.663057327270508,13.313321113586426,-18.408344268798828,-22.768247604370117
1,304939,5.663097858428955,13.778308868408203,-27.937402725219727,-28.253164291381836
1,304939,-13.138575553894043,-21.58039093017578,18.61102294921875,27.9425106048584
1,304939,-6.951389312744141,-6.411568641662598,36.624237060546875,-4.7251105308532715
1,304939,5.602133274078369,15.462421417236328,7.294111251831055,-10.071364402770996
1,304941,18.41246795654297,2.9890692234039307,-1.396445870399475,47.61418151855469
1,304942,-8.831094741821289,-5.6886091232299805,-12.253561973571777,-3.833158016204834
1,304943,-43.30430603027344,-21.04518699645996,-36.49505615234375,-31.08642578125
1,304946,35.76054382324219,-19.38566780090332,11.793594360351562,60.887847900390625
1,304947,14.504395484924316,37.49868392944336,52.11871337890625,44.885162353515625
1,304950,-90.62989807128906,15.126072883605957,20.07731056213379,-92.43095397949219
1,304951,-24.8875675201416,14.452009201049805,40.35652160644531,-59.978851318359375
1,304954,19.886898040771484,63.2109489440918,58.79411315917969,73.58224487304688
1,304955,13.370827674865723,-24.209186553955078,-29.02486228942871,19.928625106811523
1,304958,101.47289276123047,-86.9420394897461,-134.2716522216797,3.8875176906585693
1,304959,54.713401794433594,-24.083269119262695,-126.92005157470703,4.0335798263549805
1,304962,-50.95309066772461,59.54007339477539,111.3898696899414,-94.2201919555664
1,304964,-17.335145950317383,-12.393488883972168,151.42198181152344,-32.23754119873047
1,304965,-15.045916557312012,-89.60337829589844,-93.622802734375,43.703304290771484
1,304968,3.3969194889068604,5.852023601531982,-74.85294342041016,60.7917366027832
1,304969,14.582271575927734,10.636527061462402,14.307662010192871,41.70051956176758
1,304972,-60.50957107543945,152.6962432861328,65.91058349609375,-55.965789794921875
1,304973,-31.18228530883789,185.59097290039062,100.51554870605469,-15.798788070678711
1,304976,42.04345703125,-238.5614013671875,-38.34446716308594,66.55615997314453
1,304977,5.42983865737915,-213.25982666015625,-93.95906829833984,-7.5351386070251465
1,304980,15.018421173095703,149.74859619140625,-0.17637328803539276,-43.2901725769043
1,305101,35.39803695678711,152.7318572998047,16.167253494262695,-23.695158004760742
1,305102,-21.641252517700195,-8.942895889282227,12.88606071472168,-17.671890258789062
1,305102,-18.114852905273438,-90.10616302490234,19.6873779296875,22.312135696411133
1,305102,31.270545959472656,-61.01487350463867,-36.97692108154297,25.01433563232422
1,305102,20.016162872314453,-14.072662353515625,-37.07802200317383,4.769083023071289
1,305102,-3.6782357692718506,-5.907574653625488,4.405308723449707,-11.26986026763916
1,305102,5.7607221603393555,-3.118286609649658,-3.9964659214019775,-7.6354851722717285
1,305103,-20.248512268066406,9.693279266357422,-0.3631143569946289,6.4040679931640625
1,305103,-33.74517059326172,12.639449119567871,28.862442016601562,-3.4201624393463135
1,305103,-2.801523447036743,16.43459701538086,24.247657775878906,13.397871971130371
1,305103,3.1797306537628174,20.970895767211914,13.377492904663086,20.909008026123047
1,305103,-3.9432551860809326,18.714963912963867,6.772852897644043,-11.736039161682129
1,305103,12.372547149658203,-30.327430725097656,-21.729766845703125,-11.840550422668457
1,305104,10.386584281921387,-24.399682998657227,-28.542728424072266,0.8623157739639282
1,305104,0.43822726607322693,13.965845108032227,-34.97658157348633,-9.195127487182617
