Aktueller Finger,timestamp_ms,sensor_0,sensor_1,sensor_2,sensor_3
0,983798,33.72823715209961,82.22586822509766,93.0675277709961,134.17274475097656
0,983799,-9.08449649810791,18.73939323425293,-24.877338409423828,-19.336301803588867
0,983801,-33.691925048828125,-54.70131301879883,-51.538841247558594,-120.95531463623047
0,983803,-19.29775619506836,-1.1149872541427612,48.828338623046875,35.18289566040039
0,983805,-11.336280822753906,-4.436423301696777,-8.437106132507324,76.81900024414062
0,983807,20.631776809692383,-3.820168972015381,-11.715102195739746,-34.18525695800781
0,983809,15.846343994140625,34.974853515625,19.30585479736328,-16.281024932861328
0,983811,-3.732980728149414,-2.44946551322937,-29.22346305847168,-7.876645565032959
0,983813,10.959676742553711,-28.447526931762695,5.759869575500488,-9.25809097290039
0,983815,-2.013397693634033,0.788833737373352,28.539600372314453,47.96662139892578
0,983817,-5.630685329437256,-30.526960372924805,-41.588829040527344,24.762784957885742
0,983819,20.774864196777344,-43.10548400878906,-15.061168670654297,-10.611443519592285
0,983821,-7.9246826171875,61.535884857177734,49.84006118774414,-26.486881256103516
0,983823,-7.9685797691345215,54.103580474853516,-19.03188133239746,-25.514074325561523
0,983825,-0.741661012172699,-27.603431701660156,-18.604530334472656,14.967641830444336
0,983827,-17.289865493774414,3.1053707599639893,19.87211036682129,3.3716564178466797
0,983829,6.864972114562988,14.771673202514648,6.534570693969727,-3.3127424716949463
0,983831,-7.956926345825195,-55.70625686645508,13.16893196105957,37.547157287597656
0,983833,3.2095818519592285,-21.622276306152344,-12.00828742980957,-24.54486083984375
0,983835,36.21495056152344,79.16629028320312,-5.792263984680176,-38.40754318237305
0,983837,-4.454855918884277,5.7535505294799805,6.928483963012695,9.66262149810791
0,983839,-36.8116455078125,-60.41965866088867,-20.39164161682129,-1.4864230155944824
0,983841,-8.411471366882324,-7.194747447967529,7.672277450561523,2.1290318965911865
0,983843,33.23760223388672,16.47330093383789,22.724027633666992,-7.143059730529785
0,983845,22.06968879699707,-10.894275665283203,-26.73169708251953,20.95966148376465
0,983847,-23.913677215576172,-6.4694671630859375,10.379674911499023,32.348106384277344
0,983849,-31.921113967895508,53.4055061340332,9.784667015075684,-28.13218879699707
0,983851,20.477346420288086,10.329651832580566,-17.879852294921875,-8.37317943572998
0,983853,35.73557662963867,-28.359891891479492,11.3572416305542,28.66141700744629
0,983855,-14.200835227966309,30.104625701904297,4.6763153076171875,30.58135223388672
0,983857,-8.661513328552246,12.811649322509766,4.203072547912598,-28.3516788482666
0,983859,-1.3514655828475952,-39.94807815551758,9.048237800598145,-46.89775848388672
0,983861,-22.392894744873047,-56.47633361816406,-41.4302978515625,28.85778045654297
0,983863,10.873880386352539,3.2000982761383057,-16.691036224365234,4.9906744956970215
0,983865,8.148119926452637,51.31706237792969,38.640933990478516,-7.735350608825684
0,983867,-11.01374340057373,-15.021784782409668,-10.166657447814941,-1.1051051616668701
0,983869,19.710819244384766,5.063149929046631,4.3072052001953125,-9.192122459411621
0,983871,-13.803638458251953,36.64543533325195,24.341283798217773,-9.332615852355957
0,984126,-47.276771545410156,-28.811344146728516,-16.110143661499023,-0.3092319071292877
0,984129,175.96304321289062,150.2218017578125,131.00238037109375,156.1124267578125
0,984130,169.0026397705078,164.57257080078125,139.48350524902344,122.1235122680664
0,984133,-138.3355712890625,-165.08804321289062,-123.95030975341797,-91.03485870361328
0,984134,-84.54596710205078,-124.18473815917969,-83.27861785888672,-41.70555877685547
0,984137,28.181852340698242,62.76365661621094,51.01176452636719,2.21720290184021
0,987863,3.3830795288085938,4.059177398681641,-19.08266830444336,-49.58887481689453
0,987865,-30.33820343017578,-54.53410339355469,-61.96319580078125,-40.82036590576172
0,987867,-18.172527313232422,11.282966613769531,-15.044490814208984,-35.2561149597168
0,987869,-10.2581148147583,-13.405924797058105,-24.505029678344727,-22.52431297302246
0,987871,-62.59996032714844,-71.0813217163086,-16.245014190673828,5.167829513549805
0,987873,-38.80763244628906,-31.154769897460938,-20.520885467529297,8.137029647827148
0,987875,24.865440368652344,39.152950286865234,2.3897523880004883,-7.888743877410889
0,987877,-4.591027736663818,16.238126754760742,19.397340774536133,-28.25453758239746
0,987879,-63.88109588623047,-75.95608520507812,-65.62565612792969,-58.08128356933594
0,987881,33.813385009765625,8.517826080322266,9.417471885681152,1.9625502824783325
0,987883,55.23651885986328,55.6331901550293,61.38681411743164,55.34138870239258
0,987885,-22.698619842529297,-0.16575394570827484,7.963964939117432,25.038623809814453
0,987887,17.864620208740234,-3.3357882499694824,-16.647994995117188,9.155937194824219
0,987889,18.782751083374023,-19.560443878173828,-2.80957293510437,4.807138919830322
0,987891,-36.53694152832031,-29.238422393798828,6.664062023162842,-22.037086486816406
0,987893,10.626974105834961,31.974912643432617,13.37489128112793,0.7446500062942505
0,987895,7.292977809906006,38.998252868652344,-13.078302383422852,29.193824768066406
0,987897,-31.75313949584961,-16.821836471557617,-53.466426849365234,-47.74492645263672
0,987899,21.871734619140625,7.979188442230225,35.07829666137695,-43.38044357299805
0,987901,19.990602493286133,27.46282386779785,54.619415283203125,62.94026565551758
0,987903,14.514525413513184,22.211042404174805,-9.94481372833252,85.17384338378906
0,987905,-4.3063459396362305,-23.78923797607422,-0.6039252877235413,0.3758547902107239
0,987907,-31.34609031677246,-26.034786224365234,29.39957618713379,-34.457664489746094
0,987909,37.2298698425293,31.662588119506836,-21.21373748779297,-12.021430015563965
0,987911,26.501693725585938,8.098440170288086,-47.24147415161133,-16.5419979095459
0,987913,-49.43201446533203,-8.697585105895996,20.88224220275879,15.139358520507812
0,987915,-0.40940263867378235,-24.31084632873535,23.727630615234375,-5.17396879196167
0,987917,26.551414489746094,-19.09784507751465,-17.550302505493164,-41.12849044799805
0,987919,-28.421419143676758,11.36156177520752,-18.519649505615234,-5.921724319458008
0,987921,-2.979865074157715,-5.474117755889893,6.618717670440674,47.18803024291992
0,987923,28.99183464050293,21.06197166442871,32.59319305419922,45.943336486816406
0,987925,-3.3898868560791016,3.910661458969116,7.4486823081970215,-28.32080078125
0,987927,-9.57133674621582,-28.272172927856445,-12.257993698120117,-34.80854797363281
0,987929,27.716814041137695,39.01359558105469,6.875813961029053,-11.111392974853516
0,987931,-3.5890557765960693,7.822542667388916,-18.725061416625977,19.17131805419922
0,987933,-44.92695617675781,-91.87167358398438,-54.47077178955078,-30.65993881225586
0,987935,-8.163662910461426,-4.589940547943115,-14.175093650817871,-52.44659423828125
0,987937,26.586755752563477,98.777099609375,82.84260559082031,79.61918640136719
0,987939,7.5717549324035645,-19.761608123779297,11.630352973937988,17.422271728515625
0,987941,3.193793535232544,-45.7567253112793,-38.88068771362305,-16.322141647338867
0,987943,2.180464744567871,31.87700653076172,22.425086975097656,14.087035179138184
0,987945,-32.934391021728516,-9.885743141174316,-18.984128952026367,-23.483806610107422
0,987947,-19.121793746948242,-5.918143272399902,-10.353802680969238,12.789987564086914
0,987949,14.621542930603027,-7.710358619689941,-4.001930236816406,-7.174543857574463
0,987951,26.36264991760254,2.0463223457336426,-18.956573486328125,-2.8300626277923584
0,987953,10.451936721801758,7.583897590637207,-11.40562915802002,-24.2476806640625
0,987955,-29.013341903686523,3.299462080001831,60.2501220703125,45.34442901611328
0,987957,6.825568199157715,59.8486328125,66.14117431640625,54.6631965637207
0,987959,20.084211349487305,-15.094834327697754,-82.11056518554688,-89.96519470214844
0,987961,-17.51543426513672,-31.086223602294922,-29.787185668945312,7.098170280456543
0,987963,9.179878234863281,10.324522018432617,42.677955627441406,4.0156707763671875
0,987965,17.436182022094727,0.5162835717201233,10.109651565551758,-26.260639190673828
0,987967,8.194561004638672,-3.389051675796509,-9.998064041137695,43.75179672241211
0,987968,-24.123558044433594,-27.65875816345215,-35.71181869506836,-20.043230056762695
0,987971,-20.18166160583496,-15.102734565734863,31.132463455200195,12.057991027832031
0,987972,16.25600242614746,18.848363876342773,14.5960054397583,28.861501693725586
0,987975,74.20132446289062,108.22955322265625,44.19263458251953,29.476755142211914
0,987976,62.54888153076172,32.59904098510742,65.39139556884766,55.98343276977539
0,987979,-62.09486770629883,-101.00102233886719,-94.03032684326172,-56.075172424316406
0,987980,-21.146631240844727,4.230011940002441,-2.555103063583374,-38.38658905029297
0,987983,11.929740905761719,23.335351943969727,36.71641540527344,57.22008514404297
0,987984,-30.012386322021484,-29.42341423034668,-51.26591491699219,6.853574275970459
0,987987,15.833538055419922,46.687137603759766,38.029441833496094,-12.752534866333008
0,987988,0.719376802444458,26.96282386779785,-4.426232814788818,-15.791836738586426
0,987991,-43.19447708129883,-67.4991683959961,-34.562835693359375,-64.93832397460938
0,987992,-14.458780288696289,-38.15835189819336,11.646208763122559,-54.25190734863281
0,987995,-3.254692792892456,20.20246696472168,-11.473607063293457,33.71311569213867
0,987996,7.638237953186035,-43.66522216796875,-64.38525390625,17.304946899414062
0,987999,-4.447512626647949,-15.927351951599121,-10.303126335144043,-16.210636138916016
0,988000,-45.037803649902344,53.522727966308594,70.90596008300781,31.159101486206055
0,988003,16.24153709411621,-20.555572509765625,-9.592940330505371,-12.390462875366211
0,988004,27.745460510253906,-7.307258129119873,-19.521968841552734,-21.226255416870117
0,988007,-8.259570121765137,6.929612636566162,19.887191772460938,41.909706115722656
0,988008,34.95935821533203,11.610818862915039,24.427579879760742,57.5748291015625
0,988011,16.08561897277832,41.36942672729492,-4.604328155517578,-27.796405792236328
0,988012,-33.099735260009766,-26.20741844177246,-19.1016788482666,-74.72025299072266
0,988015,-17.578929901123047,-36.31930160522461,0.06840421259403229,-8.630356788635254
0,988016,-18.633337020874023,-0.6964091658592224,-19.54814910888672,16.27469253540039
0,988019,14.166909217834473,25.361366271972656,2.30126690864563,7.986123085021973
0,988020,40.71956253051758,30.852529525756836,18.49989128112793,40.77875518798828
0,988023,-9.1472806930542,-11.602408409118652,23.299530029296875,0.4040333926677704
0,988024,23.59422492980957,-43.70481491088867,17.82515525817871,-35.0153923034668
0,988027,5.7703166007995605,9.348090171813965,-64.3698959350586,22.598901748657227
0,988028,-39.92692565917969,33.45302963256836,-34.77299499511719,11.502740859985352
0,988031,0.1869421750307083,-8.425193786621094,88.42276763916016,-17.152057647705078
0,988032,-3.843209743499756,11.573186874389648,6.665520668029785,-13.44080638885498
0,988035,-3.522754192352295,-33.98619842529297,-65.55551147460938,11.636624336242676
0,988036,-13.73147964477539,-14.161965370178223,5.455759525299072,10.728277206420898
0,988039,-7.778657913208008,29.25852394104004,2.9614381790161133,-16.50189971923828
0,988040,21.768457412719727,-14.273218154907227,-9.209012985229492,-28.276901245117188
0,988043,16.952760696411133,34.87047576904297,44.33519744873047,13.96612548828125
0,988044,4.053534507751465,22.17471694946289,20.7360782623291,43.99320983886719
0,988047,-14.623750686645508,-49.020713806152344,-50.26803970336914,-1.6058275699615479
0,988048,-12.449957847595215,-4.807769775390625,-29.567354202270508,-50.92699432373047
0,988051,15.434070587158203,29.09882354736328,28.32380485534668,-9.365253448486328
0,988052,0.6287721395492554,-12.326440811157227,45.71571350097656,86.40889739990234
0,988055,-22.263662338256836,-30.19954490661621,-2.7148008346557617,22.200960159301758
0,988056,13.218143463134766,3.1130990982055664,-27.550445556640625,-57.48893356323242
0,988059,29.078601837158203,32.20294189453125,-23.165237426757812,-63.65542984008789
0,988060,-28.68668556213379,1.6477773189544678,-9.566267967224121,-7.2104949951171875
0,988063,-30.610363006591797,-9.328241348266602,13.008541107177734,21.883554458618164
0,988064,34.30269241333008,-7.244110584259033,15.553167343139648,17.51367950439453
0,988067,14.17695426940918,-12.399382591247559,20.74421501159668,75.54761505126953
0,988068,4.912109851837158,12.962553024291992,2.6556382179260254,-9.812806129455566
0,988071,11.99245834350586,-33.03908157348633,-35.040931701660156,-30.360952377319336
0,988072,-18.221826553344727,-1.3210941553115845,-6.672171592712402,-11.274869918823242
0,988075,-10.184403419494629,39.674983978271484,24.25181007385254,-53.422080993652344
0,988076,9.369817733764648,-11.095295906066895,-7.177149772644043,37.60539245605469
0,988079,11.709912300109863,45.448036193847656,7.471121311187744,21.842510223388672
0,988080,-25.27584457397461,-3.9814095497131348,8.990900993347168,-53.51744079589844
0,988083,-28.19036293029785,-60.8673210144043,-14.988251686096191,26.59377670288086
0,988086,32.513153076171875,21.948251724243164,-4.998237133026123,80.19953918457031
0,988086,15.526988983154297,39.87714767456055,17.22772216796875,24.06671905517578
0,988089,-23.54856300354004,-21.82631492614746,-17.921188354492188,-107.4931411743164
0,988090,11.526317596435547,-38.75187301635742,-2.7010715007781982,-68.8849868774414
0,988093,20.96739387512207,47.22728729248047,27.86011505126953,69.26651000976562
0,988094,-4.493447303771973,31.94760513305664,-5.124539375305176,47.94835662841797
0,988097,8.18269157409668,-31.975528717041016,45.143280029296875,43.418453216552734
0,988098,6.525295734405518,-26.43589973449707,-17.549785614013672,-45.47138595581055
0,988101,-41.39200210571289,-23.79210090637207,-86.75618743896484,-83.9111328125
0,988102,-3.0377590656280518,44.873046875,28.203393936157227,60.49430847167969
0,988105,20.775897979736328,20.945457458496094,20.112279891967773,8.932007789611816
0,988106,-16.47034454345703,-46.33457565307617,-33.249549865722656,-69.90935516357422
0,988109,10.34222412109375,5.179666042327881,33.21805191040039,12.765214920043945
0,988110,2.0368940830230713,11.980208396911621,29.043846130371094,51.57361602783203
0,988113,-18.445703506469727,-14.641414642333984,-40.74797439575195,23.514163970947266
0,988114,-7.96894645690918,-34.0600471496582,-21.467050552368164,-15.89883804321289
0,988117,16.328123092651367,23.929893493652344,59.036285400390625,-2.477357864379883
0,988118,14.903942108154297,49.1681022644043,5.510079860687256,9.108261108398438
0,988121,-20.70524024963379,-24.62338638305664,-44.203765869140625,-33.28862762451172
0,988122,1.227081537246704,-41.32009506225586,7.668534755706787,-44.984214782714844
0,988125,35.13133239746094,3.6959660053253174,-7.440288543701172,8.699542045593262
0,988126,-14.053467750549316,49.17860794067383,9.253620147705078,66.30816650390625
0,988129,-41.47309494018555,9.061996459960938,6.613108158111572,9.705435752868652
0,988130,23.52889633178711,-4.986815452575684,-16.04110336303711,-46.555789947509766
0,988133,6.0130486488342285,-10.168351173400879,18.30775260925293,29.010339736938477
0,988134,-27.731731414794922,-27.7439022064209,4.98432731628418,8.477169036865234
0,988137,3.5607926845550537,3.1964755058288574,-28.4964656829834,-34.11638259887695
0,988138,-5.997056484222412,-5.752147674560547,-27.51667594909668,17.40616798400879
0,988141,23.160812377929688,18.523738861083984,33.19800567626953,-0.24742214381694794
0,988142,53.943058013916016,27.169084548950195,54.63652801513672,-10.1532621383667
0,988145,-2.893796443939209,-20.580245971679688,-10.46648120880127,9.299487113952637
0,988146,-32.77650451660156,-13.376433372497559,-32.11173629760742,-0.26887571811676025
0,988149,-27.17191505432129,-19.642499923706055,-3.448936700820923,-1.478827953338623
0,988150,-8.587051391601562,12.53238296508789,-9.534149169921875,15.409615516662598
0,988153,20.71944808959961,48.20660400390625,3.986375093460083,-19.326112747192383
0,988154,31.73828125,-41.68224334716797,6.177702903747559,-37.17885971069336
0,988157,-5.630786895751953,-46.520355224609375,-0.8109501600265503,49.97175598144531
0,988158,-38.767852783203125,46.92093276977539,15.641610145568848,49.93441390991211
0,988161,-2.4260308742523193,44.72174072265625,-19.10348892211914,-36.1601448059082
0,988162,2.547328233718872,-19.287965774536133,3.0704262256622314,-25.17714500427246
0,988165,11.329916000366211,-29.859949111938477,11.886734008789062,27.899486541748047
0,988166,29.871187210083008,13.93977165222168,-14.496031761169434,-0.31392669677734375
0,988169,-5.630148887634277,-4.617687225341797,10.181036949157715,-46.62152862548828
0,988170,-27.60906410217285,-18.341754913330078,-1.5464787483215332,-21.952848434448242
0,988173,9.477665901184082,41.19123077392578,-6.942542552947998,47.0482063293457
0,988174,16.42844009399414,11.967365264892578,5.755186080932617,20.825153350830078
0,988177,-14.352557182312012,-40.918968200683594,13.878217697143555,-45.917484283447266
0,988178,-25.103429794311523,-48.16632843017578,-32.543495178222656,-16.37566375732422
0,988181,14.124409675598145,-2.337714672088623,-18.592538833618164,10.889880180358887
0,988182,55.82945251464844,77.14932250976562,68.07331085205078,32.48668670654297
0,988185,-17.31732177734375,6.942741394042969,-16.113388061523438,-0.17626582086086273
0,988187,-50.02473068237305,-25.02606964111328,-25.527629852294922,-24.54378890991211
0,988189,23.448719024658203,42.66102981567383,33.459259033203125,20.302576065063477
0,988191,2.2480127811431885,-16.170564651489258,-43.540138244628906,22.86776351928711
0,988193,-28.82196617126465,-31.07045555114746,1.4941562414169312,4.383516311645508
0,988195,27.683433532714844,-8.3977632522583,33.76710510253906,3.7853639125823975
0,988197,12.072480201721191,-9.482552528381348,-3.684504508972168,-8.317152976989746
0,988199,-30.21355438232422,9.02491569519043,-24.3067626953125,-34.01380157470703
0,988201,-4.499959468841553,-19.885278701782227,-41.744266510009766,-7.2499918937683105
0,988203,34.11381149291992,40.554866790771484,63.8148193359375,9.528726577758789
0,988205,-0.7840451002120972,46.52206802368164,31.774770736694336,-10.421305656433105
0,988207,-50.80851745605469,-49.520137786865234,-30.42865562438965,6.345851898193359
0,988209,36.39785385131836,2.2166502475738525,38.9443244934082,41.863643646240234
0,988211,39.31895446777344,30.518701553344727,-29.51801872253418,0.3466741740703583
0,988213,-62.48419189453125,-55.67497253417969,-49.75825119018555,-44.48664474487305
0,988215,-39.54417419433594,-51.430702209472656,-13.974074363708496,-24.664602279663086
0,988216,58.42961502075195,92.0726547241211,36.15993881225586,30.742420196533203
0,988219,69.22318267822266,51.084651947021484,69.02095031738281,9.620002746582031
0,988221,-82.29081726074219,-125.39692687988281,-78.94947052001953,-32.12336349487305
0,988223,-37.864437103271484,19.260221481323242,-21.49994468688965,19.980100631713867
0,988225,49.33293151855469,87.99764251708984,39.9235954284668,29.433643341064453
0,988227,-4.159455299377441,-40.989784240722656,-46.9514274597168,9.082887649536133
0,988229,0.7532368898391724,-31.7869815826416,30.1347713470459,-35.36948013305664
0,988231,-9.985280990600586,-0.1328800916671753,47.53834915161133,12.786728858947754
0,988233,34.34648132324219,44.780208587646484,-9.826449394226074,20.756603240966797
0,988235,16.32097053527832,9.008129119873047,-15.382774353027344,-68.822265625
0,988237,-34.23278045654297,-38.75060272216797,-37.69099807739258,-7.985001564025879
0,988239,7.923458099365234,3.0463316440582275,13.862550735473633,63.94818878173828
0,988241,4.429231643676758,-18.170455932617188,54.676673889160156,44.61611557006836
0,988243,-2.451385498046875,21.06998062133789,-18.85633087158203,-23.494131088256836
0,988245,14.12281608581543,16.182111740112305,-38.57234573364258,-25.39093017578125
0,988247,-31.712297439575195,-46.69249725341797,-29.076004028320312,7.07546329498291
0,988249,-22.778791427612305,-10.561836242675781,5.695175647735596,-61.99557113647461
0,988251,50.64841079711914,24.77913475036621,72.84220123291016,-0.17783792316913605
0,988253,11.091755867004395,45.886383056640625,37.13496017456055,78.71916961669922
0,988255,-27.10484504699707,5.4438371658325195,-59.769737243652344,0.5776057839393616
0,988257,-0.41560670733451843,-41.675048828125,-47.02703094482422,-16.385526657104492
0,988259,-24.241567611694336,-10.846588134765625,44.705352783203125,-26.51776885986328
0,988261,-2.6698288917541504,23.415117263793945,24.75444793701172,-20.565706253051758
0,988263,13.004251480102539,-1.1890407800674438,-30.96176528930664,13.187444686889648
0,988265,1.5261768102645874,-9.660171508789062,15.605446815490723,-14.861749649047852
0,988267,23.954425811767578,-1.0980809926986694,21.161596298217773,-21.880414962768555
0,988269,15.869032859802246,-2.4814722537994385,-19.976036071777344,42.622093200683594
0,988271,-11.239768028259277,-9.660005569458008,-53.26714324951172,59.5103645324707
0,988273,-23.853343963623047,17.578027725219727,9.410295486450195,-5.74030876159668
0,988275,22.271240234375,31.599252700805664,53.81793212890625,-46.73753356933594
0,988277,-3.9620044231414795,-38.770145416259766,-23.51789093017578,-18.513031005859375
0,988279,-40.50243377685547,-45.327606201171875,-1.7380125522613525,28.794130325317383
0,988281,-3.357572555541992,42.63693618774414,-13.098140716552734,26.931400299072266
0,988283,14.819875717163086,34.319881439208984,-27.310649871826172,-1.86166250705719
0,988285,14.659780502319336,-39.55434036254883,20.969989776611328,-23.81626319885254
0,988287,10.814247131347656,-7.625699520111084,7.740203380584717,-8.427188873291016
0,988289,-15.956049919128418,13.821574211120605,9.156208038330078,12.126853942871094
0,988291,-29.933883666992188,4.051751613616943,-18.105850219726562,-21.51392936706543
0,988293,30.6702880859375,-14.546341896057129,-42.972049713134766,-22.687225341796875
0,988295,17.827421188354492,-26.238670349121094,33.166542053222656,29.869983673095703
0,988297,0.3932288885116577,49.1934928894043,111.72587585449219,1.1685256958007812
0,988299,8.891461372375488,40.921165466308594,17.411165237426758,-29.508556365966797
0,988301,-43.54962921142578,-65.69361114501953,-124.52239227294922,-25.333045959472656
0,988303,-3.498239517211914,-20.52757453918457,-17.486652374267578,1.1574299335479736
0,988305,40.148521423339844,73.82088470458984,84.72249603271484,69.27399444580078
0,988307,-12.266036033630371,18.195148468017578,-6.9447245597839355,13.134193420410156
0,988309,-7.823187828063965,-40.190704345703125,-39.58732986450195,-17.26859474182129
0,988311,13.832858085632324,-33.903533935546875,-16.739042282104492,13.346207618713379
0,988313,-1.9432830810546875,-13.486664772033691,3.0434188842773438,15.514975547790527
0,988315,12.261601448059082,33.834293365478516,-8.997653007507324,8.347312927246094
0,988317,-3.6011884212493896,36.937171936035156,-16.564420700073242,-48.38921356201172
0,988319,-21.319616317749023,-27.471925735473633,0.8356457352638245,-8.003870010375977
0,988321,-14.466692924499512,-24.20098304748535,-7.1620612144470215,31.747072219848633
0,988323,45.88860321044922,44.15532684326172,108.56339263916016,-16.087650299072266
0,988325,95.75691986083984,71.78458404541016,138.57318115234375,66.8137435913086
0,988327,-73.93732452392578,-53.68061828613281,-113.41956329345703,49.248046875
0,988329,-118.08221435546875,-116.98231506347656,-157.2233428955078,-154.1416778564453
0,988331,35.32268142700195,43.81949996948242,35.99263000488281,-276.0757751464844
0,988333,14.424429893493652,17.812862396240234,30.487144470214844,16.154144287109375
0,988335,-1.0640746355056763,-8.715028762817383,7.9491167068481445,481.4808044433594
0,988337,7.303822994232178,40.05533218383789,19.88160514831543,130.50665283203125
0,988339,6.301855564117432,-24.45115089416504,-20.60797882080078,-280.36578369140625
0,988341,48.94407653808594,-14.337451934814453,-29.6187801361084,-66.96282958984375
0,988343,-28.930599212646484,1.828652024269104,2.6757962703704834,33.112640380859375
0,988345,-50.72518539428711,9.085517883300781,29.95200538635254,27.729900360107422
0,988347,23.72846794128418,-15.913056373596191,-20.55710792541504,24.71311378479004
0,988349,4.029221057891846,-2.4902141094207764,4.152864456176758,-134.69207763671875
0,988351,9.585824012756348,47.774436950683594,36.39143371582031,-42.8683967590332
0,988353,3.5521488189697266,-10.559359550476074,9.292569160461426,163.54257202148438
0,988355,-39.564537048339844,11.139036178588867,-21.535768508911133,-1.7929160594940186
0,988357,42.18550109863281,-19.045047760009766,-80.15969848632812,-67.34741973876953
0,988359,51.33546447753906,-17.05986785888672,42.99235153198242,13.895180702209473
0,988361,-45.64262771606445,58.38128662109375,81.4212417602539,-31.400775909423828
0,988364,-91.972412109375,-105.0372085571289,-96.14115905761719,-25.094009399414062
0,988365,46.17177200317383,-9.69658088684082,37.48719787597656,77.11654663085938
0,988366,119.63420104980469,138.02655029296875,129.94857788085938,71.19579315185547
0,988369,-86.3295669555664,-37.773433685302734,-107.15444946289062,-55.2689208984375
0,988370,-23.521146774291992,-61.732295989990234,-116.66867065429688,-50.13218307495117
0,988373,93.73866271972656,30.908571243286133,83.9645004272461,37.85969543457031
0,988374,1.5387847423553467,20.717947006225586,117.02891540527344,38.04689407348633
0,988377,-42.84461212158203,-2.121196746826172,-36.80195999145508,-11.036796569824219
0,988378,-48.36334228515625,-10.680591583251953,-116.7838134765625,-87.05084228515625
0,988381,15.46859359741211,-28.84377098083496,-8.85477066040039,-58.211734771728516
0,988382,40.89604568481445,13.526534080505371,43.88927459716797,60.706214904785156
0,988385,-45.93551254272461,5.343873500823975,-51.16026306152344,48.47746658325195
0,988386,-40.32264709472656,-60.8430290222168,-31.76637840270996,15.3975191116333
0,988389,75.7031478881836,47.54815673828125,192.5569610595703,17.172914505004883
0,988390,15.165983200073242,101.98457336425781,95.87474060058594,0.707699179649353
0,988393,-90.58882141113281,-92.43244171142578,-218.4120635986328,-69.09528350830078
0,988394,-47.05940628051758,-119.19459533691406,-120.88937377929688,-71.87474060058594
0,988397,57.80978012084961,94.8732681274414,121.15216064453125,38.422584533691406
0,988398,92.92375183105469,91.19905853271484,108.78025817871094,-17.53139877319336
0,988401,-9.997733116149902,-50.80378341674805,-73.84076690673828,112.66178894042969
0,988402,-28.5616397857666,-3.177992820739746,-38.414527893066406,235.5724639892578
0,988405,21.868196487426758,21.3126220703125,55.235435485839844,-200.17916870117188
0,988406,-36.37867736816406,-53.88294219970703,-43.233741760253906,-253.18624877929688
0,988409,-53.1817741394043,-50.012062072753906,-19.32009506225586,167.01840209960938
0,988410,31.63300132751465,44.51333236694336,34.290122985839844,149.4387664794922
0,988413,68.54913330078125,95.15093231201172,16.589773178100586,-91.76287841796875
0,988414,-10.389484405517578,20.730525970458984,6.7068047523498535,-88.71217346191406
0,988417,-25.729124069213867,-60.16032791137695,-1.3801603317260742,52.28856658935547
0,988418,2.84395432472229,-52.91444396972656,-0.13079173862934113,17.984373092651367
0,988421,-14.015315055847168,32.97692108154297,-23.761329650878906,-24.295644760131836
0,988422,-8.961074829101562,34.2262077331543,-1.4023892879486084,44.64230728149414
0,988425,-35.71616744995117,-55.6627311706543,18.181991577148438,-3.315687656402588
0,988426,7.940888404846191,15.764601707458496,-6.6569318771362305,-26.84282875061035
0,988429,82.38839721679688,17.27871322631836,-0.9851698279380798,-10.820117950439453
0,988430,25.377973556518555,-25.12826919555664,12.338601112365723,-49.22711181640625
0,988433,-62.80192947387695,65.39910888671875,6.266016483306885,62.30939865112305
0,988434,-33.14857482910156,-44.36529541015625,-20.500402450561523,48.82328414916992
0,988437,8.084817886352539,-90.57907104492188,-55.54981994628906,-108.09599304199219
0,988438,-30.47093391418457,34.53795623779297,18.941818237304688,-48.07667541503906
0,988441,-2.8036296367645264,14.854987144470215,60.60699462890625,39.188175201416016
0,988442,52.853023529052734,14.7398681640625,-19.802745819091797,15.1448974609375
0,988445,33.18049240112305,19.85875129699707,25.910324096679688,35.402462005615234
0,988446,2.958498954772949,-34.3730354309082,-20.572649002075195,141.5662384033203
0,988449,-28.530702590942383,7.488605976104736,-107.67796325683594,-74.04087829589844
0,988450,-68.54647064208984,12.432882308959961,1.9124038219451904,-237.7085723876953
0,988453,55.44706344604492,19.075241088867188,157.00294494628906,175.1004638671875
0,988454,122.56330871582031,72.1242904663086,154.02413940429688,199.07815551757812
0,988457,-85.93228912353516,-47.891212463378906,-158.0760040283203,-156.63998413085938
0,988458,-114.57642364501953,-85.40282440185547,-200.54965209960938,-137.8583221435547
0,988461,1.122412085533142,14.378697395324707,54.79502487182617,-23.248781204223633
0,988462,-103.17591857910156,-134.83767700195312,-122.02850341796875,-71.80317687988281
0,988465,-85.81914520263672,-135.19296264648438,-139.40298461914062,-157.05496215820312
0,988466,88.6109619140625,110.4120864868164,151.41285705566406,114.7171630859375
0,988469,46.51720428466797,19.890087127685547,52.48537063598633,311.5805969238281
0,988470,7.34999418258667,-24.373865127563477,7.856556415557861,26.945409774780273
0,988473,44.062339782714844,126.37242126464844,59.3841552734375,-247.3177032470703
0,988474,2.9159889221191406,24.175525665283203,-19.323076248168945,-137.62298583984375
0,988477,26.582311630249023,-26.013927459716797,52.593345642089844,211.27398681640625
0,988478,63.78193664550781,53.2530632019043,97.82158660888672,162.9789276123047
0,988481,15.719164848327637,21.397790908813477,-4.18276309967041,-58.043357849121094
0,988482,28.96340560913086,72.99893188476562,40.57841873168945,-31.932706832885742
0,988485,22.291555404663086,47.88336944580078,28.160457611083984,13.89234733581543
0,988486,13.132186889648438,-30.66852378845215,-25.279016494750977,-44.64536666870117
0,988489,-19.3873348236084,-0.8791497349739075,-23.462059020996094,-6.8230462074279785
0,988490,-103.0041732788086,-77.14231872558594,-131.23069763183594,95.14523315429688
0,988493,23.030986785888672,-20.28314971923828,66.66593933105469,-28.856332778930664
0,988494,65.99882507324219,59.653385162353516,130.69097900390625,-52.637935638427734
0,988497,-73.64277648925781,-83.21488952636719,-153.4027862548828,-16.077383041381836
0,988498,-28.89887046813965,-51.62822341918945,-119.9410171508789,-8.896268844604492
0,988501,53.4067268371582,78.11102294921875,96.88386535644531,150.22210693359375
0,988502,17.804126739501953,29.48384666442871,84.47601318359375,41.95165252685547
0,988505,-0.32004839181900024,-32.88169860839844,-39.54407501220703,-186.51393127441406
0,988506,13.816873550415039,39.14518356323242,87.49092102050781,-37.30720901489258
0,988509,-47.76298141479492,66.2905502319336,-12.49853229522705,51.74808883666992
0,988510,-30.254798889160156,-83.312744140625,-183.17405700683594,-38.04221725463867
0,988513,70.28163146972656,-45.90517807006836,37.70551681518555,124.7048568725586
0,988515,-77.02658081054688,10.815650939941406,-24.509323120117188,116.41468811035156
0,988517,-28.899906158447266,-19.3974552154541,69.2109603881836,-135.89784240722656
0,988519,127.81702423095703,50.03087615966797,174.95278930664062,-57.750343322753906
0,988521,-57.58698654174805,-29.711565017700195,-141.42347717285156,-27.30630874633789
0,988523,-58.13136291503906,-30.690961837768555,-83.12383270263672,-106.3563461303711
0,988525,89.95674133300781,51.361637115478516,67.2956314086914,324.42205810546875
0,988527,29.266809463500977,16.904388427734375,-7.864011287689209,203.12005615234375
0,988529,-15.774201393127441,50.89651107788086,28.976417541503906,-600.2940063476562
0,988531,-4.061130046844482,-2.025043249130249,22.008346557617188,-96.82769012451172
0,988534,-50.07204055786133,-86.64678192138672,-57.63385772705078,499.9034118652344
0,988534,-13.21141529083252,1.0736041069030762,-6.854769706726074,-97.3949203491211
0,988537,-6.437596321105957,1.2073290348052979,8.01964282989502,-188.0203399658203
0,988538,-1.983977198600769,-10.245750427246094,-1.3472365140914917,79.72913360595703
0,988541,40.170814514160156,0.17281034588813782,-3.4737703800201416,32.55493927001953
0,988542,-32.85325622558594,-54.89337158203125,6.730222225189209,-32.413822174072266
0,988545,32.687538146972656,93.27250671386719,85.23612976074219,-2.907315731048584
0,988546,42.434181213378906,94.90199279785156,-5.57744836807251,45.89554977416992
0,988549,-65.0119400024414,-124.22883605957031,-103.22623443603516,-61.99272537231445
0,988550,-1.9351040124893188,-55.57390594482422,1.2650789022445679,-5.210618495941162
0,988553,28.112703323364258,61.909400939941406,72.73705291748047,98.80328369140625
0,988554,-20.17453956604004,1.5824207067489624,-0.7198498249053955,-18.011445999145508
0,988557,-27.288738250732422,-4.678718566894531,-58.185882568359375,-53.94197082519531
0,988558,27.64820671081543,50.388877868652344,2.36698055267334,14.841540336608887
0,988561,37.83246994018555,17.852413177490234,22.280752182006836,27.19466209411621
0,988562,-13.149553298950195,-40.570762634277344,-15.213126182556152,-24.073749542236328
0,988565,-34.14380645751953,-13.654656410217285,9.952174186706543,-49.45058822631836
0,988566,15.185900688171387,-14.031126022338867,6.2361931800842285,84.7550048828125
0,988569,50.0048713684082,31.276077270507812,28.662649154663086,111.8619384765625
0,988570,-17.74422836303711,66.83216094970703,54.53253936767578,-2.0039219856262207
0,988573,-38.67995071411133,-109.29573059082031,-112.20851135253906,-169.59886169433594
0,988574,-11.854704856872559,-55.08530807495117,-80.91690826416016,-335.5635070800781
0,988577,32.830989837646484,124.38316345214844,95.96825408935547,192.48101806640625
0,988578,10.449012756347656,-37.752845764160156,7.63222074508667,426.9475402832031
0,988581,-65.070556640625,-102.55767822265625,-48.176937103271484,-243.630615234375
0,988582,16.166831970214844,56.66877746582031,46.89183807373047,-169.6836395263672
0,988585,40.66903305053711,48.449546813964844,48.4599723815918,180.5131072998047
0,988586,-18.277502059936523,-24.0325984954834,-38.88410186767578,6.432631969451904
0,988589,-53.59101486206055,-13.003764152526855,-67.23668670654297,-57.00338363647461
0,988590,14.610710144042969,51.61305618286133,26.33879852294922,24.509140014648438
0,988593,84.83040618896484,20.735820770263672,114.41545104980469,88.56871795654297
0,988594,-29.56255340576172,-46.068031311035156,9.083593368530273,12.271932601928711
0,988597,10.525155067443848,27.389881134033203,-115.5547103881836,-154.89698791503906
0,988598,21.017427444458008,-15.741990089416504,-50.45097351074219,-106.5827865600586
0,988601,-30.989171981811523,-9.801558494567871,151.55581665039062,154.75527954101562
0,988602,24.579425811767578,60.73161315917969,80.5338363647461,165.24363708496094
0,988605,-33.31352233886719,-48.999698638916016,-178.0631866455078,-54.95364761352539
0,988606,-33.93360900878906,-74.1205062866211,-90.00975036621094,-106.26139068603516
0,988609,15.821136474609375,3.0693016052246094,84.53754425048828,39.88459014892578
0,988610,-27.690425872802734,-13.52997875213623,22.356740951538086,64.67613220214844
0,988613,13.17680835723877,27.89073371887207,-9.13247299194336,-132.7509765625
0,988614,42.51579284667969,83.79011535644531,36.186100006103516,-106.38592529296875
0,988617,13.595382690429688,58.829322814941406,-1.8336139917373657,109.1184310913086
0,988618,37.04823684692383,48.4507942199707,44.226158142089844,120.6019287109375
0,988621,-34.389400482177734,-131.57821655273438,-42.25193786621094,-91.70563507080078
0,988622,-48.742530822753906,-125.54074096679688,-102.0464859008789,-157.98143005371094
0,988625,13.90746784210205,69.80033874511719,53.36466979980469,184.6876983642578
0,988626,25.180742263793945,36.54608917236328,61.09431457519531,123.63912200927734
0,988629,-15.119471549987793,-15.624225616455078,-19.926149368286133,-210.21578979492188
0,988630,-28.62914276123047,24.35330581665039,-42.72834396362305,-2.021681070327759
0,988633,16.05583953857422,48.949337005615234,13.045328140258789,55.38829803466797
0,988634,-11.6340970993042,-50.35286331176758,10.40065860748291,-62.82182312011719
0,988637,3.3876912593841553,-26.468820571899414,31.589588165283203,94.01969909667969
0,988638,26.54608154296875,51.1211051940918,33.7828369140625,75.53751373291016
0,988641,-21.93018913269043,-48.185089111328125,-82.75253295898438,-54.270145416259766
0,988642,3.173105239868164,-5.440291881561279,-4.327628135681152,-47.77062225341797
0,988645,26.88409423828125,90.59745025634766,96.52879333496094,-34.52914047241211
0,988646,-1.0104343891143799,3.63415265083313,-57.55564498901367,2.593421697616577
0,988649,35.843116760253906,-46.34694290161133,-14.526209831237793,-1.5752954483032227
0,988650,38.43935012817383,11.566244125366211,114.2212905883789,107.30134582519531
0,988653,-82.94002532958984,-59.34418869018555,-163.31483459472656,27.490550994873047
0,988654,-101.72618865966797,-75.84449768066406,-141.2054901123047,-225.87306213378906
0,988657,82.29298400878906,97.28285217285156,244.57054138183594,47.629695892333984
0,988658,75.01097869873047,50.87638473510742,73.58307647705078,145.78878784179688
0,988661,-105.0955581665039,-66.8332290649414,-183.23422241210938,-77.19377899169922
0,988662,-19.944656372070312,1.106334924697876,8.71706771850586,-14.780102729797363
0,988665,75.85264587402344,13.101451873779297,85.00076293945312,55.4504508972168
0,988666,8.821429252624512,14.315741539001465,12.927854537963867,-39.00724792480469
0,988669,-30.772287368774414,-1.930549144744873,-5.666712284088135,-13.166610717773438
0,988671,-25.32859230041504,-82.69022369384766,-35.7475471496582,112.00713348388672
0,988673,59.33518981933594,58.16120529174805,-7.3136725425720215,42.244998931884766
0,988675,14.845120429992676,114.89917755126953,-2.6304924488067627,-89.57807922363281
0,988677,-50.80472183227539,-61.80019760131836,-45.54549026489258,-193.96400451660156
0,988679,48.367923736572266,-14.903127670288086,36.036949157714844,11.707283973693848
0,988681,-1.1926017999649048,24.7674503326416,58.46978759765625,238.63192749023438
0,988683,-62.57439422607422,-56.75272750854492,-52.83186721801758,-54.780391693115234
0,988685,34.63267517089844,20.55484962463379,-3.2997875213623047,-150.81588745117188
0,988687,5.400947570800781,24.595989227294922,15.665787696838379,76.62347412109375
0,988689,-38.26919174194336,-40.2796630859375,-14.355488777160645,98.9859390258789
0,988691,4.199384689331055,-28.466188430786133,-0.1518164873123169,-22.076034545898438
0,988693,-4.0244221687316895,13.743191719055176,25.3843994140625,-78.91834259033203
0,988695,8.336411476135254,15.832944869995117,21.352388381958008,10.219108581542969
0,988697,36.4123649597168,-38.30940628051758,-39.72978973388672,58.45148468017578
0,988699,2.9815514087677,23.837421417236328,18.583593368530273,12.005722045898438
0,988701,-29.78981590270996,37.87176513671875,1.1789830923080444,-8.76963996887207
0,988703,-2.447836399078369,-7.27373743057251,-21.73836326599121,16.910869598388672
0,988706,7.479495525360107,-1.2325505018234253,-18.735692977905273,-57.03483581542969
0,988707,-4.554880619049072,-8.03187084197998,-41.472599029541016,-115.28888702392578
0,988708,9.444877624511719,24.695974349975586,69.6279067993164,14.327530860900879
0,988712,4.138976573944092,10.253240585327148,42.612430572509766,80.44081115722656
0,988713,-24.119874954223633,-32.408287048339844,-55.206443786621094,38.05312728881836
0,988715,29.22420310974121,-11.428459167480469,31.49374008178711,11.440330505371094
0,988717,37.56895446777344,-4.17795991897583,33.193885803222656,-2.4260504245758057
0,988719,-49.72611999511719,0.6959200501441956,-62.80214309692383,-24.768625259399414
0,988721,-31.535913467407227,15.683490753173828,-63.01664733886719,-20.274627685546875
0,988723,19.361526489257812,-3.284630537033081,66.58293914794922,79.02002716064453
0,988725,42.357948303222656,34.91287612915039,136.32345581054688,121.9946060180664
0,988727,-32.20402908325195,-3.0347676277160645,-138.0561981201172,-159.5828094482422
0,988729,-68.46961212158203,-80.45600891113281,-148.73764038085938,-298.9472351074219
0,988731,72.01815795898438,43.7630615234375,132.968017578125,130.5137481689453
0,988733,34.513099670410156,66.26398468017578,41.90235137939453,276.5170593261719
0,988735,-24.48008155822754,-77.01685333251953,-18.941307067871094,-25.310117721557617
0,988737,22.571516036987305,-26.528820037841797,51.97780227661133,-10.848970413208008
0,988739,-53.054264068603516,78.82001495361328,-18.03516387939453,-42.15080261230469
0,988741,-33.82799530029297,-16.032060623168945,-51.48921203613281,-147.69773864746094
0,988743,77.59785461425781,-33.127777099609375,-1.6201170682907104,36.03911590576172
0,988745,23.192766189575195,44.042903900146484,58.96504592895508,80.02186584472656
0,988747,-42.01875305175781,-39.00188446044922,0.1135588064789772,0.4406980872154236
0,988749,-11.034287452697754,-42.77850341796875,-66.97895812988281,-9.572060585021973
0,988751,0.9302059412002563,78.78272247314453,35.09571075439453,32.988616943359375
0,988753,-23.88152313232422,-22.183012008666992,-4.282704830169678,8.779170036315918
0,988755,-9.831157684326172,-73.6840591430664,-46.89332962036133,-91.9415054321289
0,988757,14.989017486572266,47.260494232177734,33.16736602783203,-42.68974685668945
0,988759,13.61146068572998,43.64448928833008,16.578250885009766,48.62291717529297
0,988761,45.613033294677734,22.231046676635742,9.45771312713623,44.821441650390625
0,988763,-27.756444931030273,-40.0888671875,-37.22315216064453,29.42707061767578
0,988765,-51.1915168762207,-49.57974624633789,8.415879249572754,63.09164047241211
0,988767,46.12578582763672,66.46611022949219,44.34933090209961,47.5123176574707
0,988769,11.082037925720215,25.95911979675293,-74.2857894897461,-167.47337341308594
0,988771,-19.15114402770996,-61.14234924316406,-21.55501365661621,-293.4355773925781
0,988773,31.957365036010742,-10.4722261428833,98.99107360839844,144.3101043701172
0,988775,-13.63683795928955,1.159912109375,2.426995277404785,379.3089599609375
0,988777,-13.546236991882324,-4.806827545166016,-10.074472427368164,-82.66554260253906
0,988779,31.261962890625,48.169639587402344,62.29045486450195,-159.73683166503906
0,988781,-52.50642013549805,8.755179405212402,-100.7130355834961,13.026776313781738
0,988783,-27.16376304626465,-42.95978546142578,-94.2230224609375,-67.90982818603516
0,988785,52.39200973510742,6.72694730758667,49.4887809753418,35.625431060791016
0,988787,18.995792388916016,30.389970779418945,70.04793548583984,67.19349670410156
0,988789,18.205270767211914,21.67180061340332,68.4668197631836,-6.606789588928223
0,988791,-19.83930015563965,-7.309852600097656,-51.47211837768555,4.230075836181641
0,988793,-35.113807678222656,-40.10072708129883,-90.81586456298828,-35.93430709838867
0,988795,1.8360475301742554,-4.256196022033691,23.414287567138672,35.863372802734375
0,988797,-16.628938674926758,3.829282760620117,27.43745231628418,87.87745666503906
0,988799,18.04534912109375,-0.7666640281677246,4.783095359802246,-88.53269958496094
0,988801,42.199981689453125,21.765295028686523,50.332279205322266,-113.20384979248047
0,988803,19.05331802368164,-15.08688735961914,-16.234712600708008,83.6502914428711
0,988805,-57.36277389526367,-31.34064483642578,-72.38267517089844,12.144462585449219
0,988807,-51.51963806152344,-6.664244174957275,21.99201202392578,10.88888931274414
0,988809,38.21625518798828,28.152057647705078,45.23843002319336,104.6313247680664
0,988811,19.438091278076172,-0.6294933557510376,-21.237159729003906,-82.67572021484375
0,988813,-7.653631210327148,-43.04853057861328,-33.433998107910156,-75.61660766601562
0,988815,5.097311973571777,39.82402801513672,18.74105453491211,25.66797637939453
0,988817,9.247238159179688,54.51525115966797,39.838417053222656,13.840662002563477
0,988819,-13.286935806274414,-26.159732818603516,-19.90387725830078,6.657161712646484
0,988821,21.435176849365234,-42.887596130371094,-19.7081241607666,-28.439165115356445
0,988823,15.656254768371582,9.902080535888672,19.7291202545166,31.46875
0,988825,-39.220237731933594,41.88045120239258,3.902881145477295,42.289058685302734
0,988827,1.8929826021194458,11.12994384765625,4.3182525634765625,10.300273895263672
0,988829,43.236454010009766,34.43556213378906,28.574752807617188,-37.79379653930664
0,988831,0.4616513252258301,-25.78507423400879,-14.379295349121094,-89.66670989990234
0,988833,-60.203243255615234,-101.64437866210938,-55.30534744262695,52.52402877807617
0,988835,-4.4116435050964355,20.06876564025879,-2.1079487800598145,12.953062057495117
0,988837,43.019535064697266,29.622556686401367,34.839447021484375,-79.96083068847656
0,988839,-16.63066864013672,11.523154258728027,-20.09308433532715,79.52047729492188
0,988841,-16.544008255004883,26.82608985900879,-40.7049446105957,44.94422149658203
0,988843,8.588089942932129,-61.2081184387207,27.835615158081055,-78.01656341552734
0,988845,-12.687106132507324,-32.146358489990234,24.432931900024414,-7.857316970825195
0,988847,13.365724563598633,47.883148193359375,3.729715347290039,4.401893615722656
0,988849,31.60657501220703,25.228126525878906,29.5345516204834,-2.297105073928833
0,988851,-27.527820587158203,-92.16016387939453,-71.06017303466797,87.4844741821289
0,988853,-55.415184020996094,18.672975540161133,-47.8016242980957,58.042171478271484
0,988855,37.41993713378906,125.98937225341797,107.64075469970703,-12.674607276916504
0,988857,52.76985168457031,-43.30649948120117,29.495803833007812,-76.55452728271484
0,988859,-7.647246360778809,-25.266414642333984,-33.858802795410156,-32.465118408203125
0,988861,-3.0344183444976807,8.51858139038086,3.987996816635132,73.38333892822266
0,988863,-32.17720031738281,2.4109137058258057,9.64435863494873,-17.2414493560791
0,988865,4.132176399230957,8.437444686889648,-32.750831604003906,-75.66493225097656
0,988867,21.5482234954834,-45.015899658203125,-37.052005767822266,-58.09569549560547
0,988869,-3.541717290878296,34.88676071166992,35.27581787109375,18.88779067993164
0,988871,12.969202995300293,28.19216537475586,33.34251403808594,84.79476928710938
0,988873,-3.9993607997894287,-53.537506103515625,-22.597095489501953,36.35751724243164
0,988875,2.7859013080596924,41.36358642578125,-41.37983703613281,-16.758560180664062
0,988877,-36.78977966308594,57.53582000732422,22.978092193603516,-37.62168502807617
0,988879,-5.5998334884643555,-55.772159576416016,28.5251522064209,-14.855464935302734
0,988881,36.741943359375,-38.8419189453125,-19.458019256591797,16.67847442626953
0,988883,-35.87101364135742,33.0616455078125,4.545889377593994,-21.378032684326172
0,988885,-4.924924373626709,-3.063894748687744,23.121423721313477,-66.44266510009766
0,988887,15.030479431152344,-51.850887298583984,-14.358436584472656,155.42156982421875
0,988889,-6.822249412536621,5.423041820526123,-56.443241119384766,233.63363647460938
0,988891,34.08127975463867,45.75597381591797,29.0357608795166,-68.16474914550781
0,988893,19.710947036743164,11.45656967163086,67.86967468261719,-217.0074005126953
0,988896,-47.790218353271484,-25.874086380004883,-41.26829528808594,-190.9386749267578
0,988897,12.005142211914062,-15.95966625213623,-21.533491134643555,20.422468185424805
0,988898,33.64274597167969,0.9206804633140564,27.26529312133789,184.0323486328125
0,988901,-69.2872085571289,-26.09809684753418,-31.17230224609375,23.018465042114258
0,988905,-4.485394477844238,26.197002410888672,-20.689355850219727,-99.03060913085938
0,988905,52.41447067260742,40.41731643676758,43.50716781616211,-18.224979400634766
0,988906,-19.176877975463867,-32.88690948486328,7.541579246520996,19.3765811920166
0,988909,7.960941791534424,8.247243881225586,-21.43559455871582,3.2826881408691406
0,988910,30.36043930053711,35.53517150878906,19.457592010498047,91.2990951538086
0,988913,-4.448382377624512,-22.883283615112305,10.4437837600708,42.0936164855957
0,988914,-19.695148468017578,-13.604727745056152,-19.787975311279297,-79.11380767822266
0,988917,-24.522319793701172,14.911030769348145,-16.6984920501709,64.78533172607422
0,988918,16.853389739990234,-31.47557258605957,43.719268798828125,8.012715339660645
0,988921,5.287693023681641,-18.101720809936523,-8.824498176574707,-159.1093292236328
0,988922,-16.835641860961914,21.968551635742188,-73.21694946289062,30.43977165222168
0,988925,18.795442581176758,18.098487854003906,23.139955520629883,93.90769958496094
0,988926,5.303567409515381,29.39173126220703,35.51359558105469,40.69438552856445
0,988929,-30.15013313293457,-34.77932357788086,-12.408868789672852,-82.60596466064453
0,988930,5.540961265563965,-26.861421585083008,-8.317367553710938,-130.00999450683594
0,988933,43.107444763183594,33.067630767822266,36.79349136352539,96.531494140625
0,988934,-30.17728614807129,-18.090496063232422,-5.146255970001221,83.5195541381836
0,988937,-41.04474639892578,0.2461986541748047,-56.33287811279297,-67.57544708251953
0,988938,18.20948600769043,37.22935485839844,11.829575538635254,-11.77087116241455
0,988941,13.966034889221191,-19.99471092224121,4.663514614105225,84.61766052246094
0,988942,51.9438362121582,-20.4623966217041,-2.9763379096984863,18.321372985839844
0,988945,11.162052154541016,28.78887176513672,41.62386703491211,-75.70140838623047
0,988946,-48.30674743652344,4.970205307006836,-1.5132768154144287,-38.73859786987305
0,988949,-5.771552562713623,-2.7719826698303223,-7.432856559753418,-3.985562324523926
0,988950,-13.859821319580078,12.975801467895508,9.655732154846191,16.218318939208984
0,988953,-12.826605796813965,-43.03661346435547,-23.38222885131836,30.206674575805664
0,988954,29.216503143310547,-25.727615356445312,-14.163683891296387,17.339941024780273
0,988957,8.309798240661621,36.62812805175781,4.20387601852417,0.050046954303979874
0,988958,-20.117300033569336,12.438743591308594,6.684953212738037,-4.069372177124023
0,988961,2.4267425537109375,0.42442449927330017,10.239790916442871,-13.88290786743164
0,988962,25.004274368286133,13.592869758605957,28.716312408447266,-9.267654418945312
0,988965,-20.44878387451172,11.228556632995605,5.224428653717041,34.98303985595703
0,988966,-24.869903564453125,-15.750699043273926,-45.708229064941406,-19.87470054626465
0,988969,39.71103286743164,-55.907135009765625,-14.294295310974121,-41.740394592285156
0,988970,-25.880813598632812,-34.691734313964844,27.281967163085938,16.939409255981445
0,988973,-26.958200454711914,39.96366882324219,-1.7752609252929688,105.85147857666016
0,988974,40.45243835449219,49.17765426635742,-4.1796183586120605,49.34431076049805
0,988977,-10.626066207885742,-12.516104698181152,-121.41716003417969,-310.5905456542969
0,988978,-25.703222274780273,10.546095848083496,-26.903976440429688,-152.49002075195312
0,988981,37.65894317626953,23.63091468811035,230.1317138671875,380.61981201171875
0,988982,33.37093734741211,-51.40966796875,11.425410270690918,147.92112731933594
0,988985,-37.53701400756836,-10.530436515808105,-97.89673614501953,-225.59828186035156
0,988986,-28.0843563079834,17.69982147216797,31.25391960144043,-20.767358779907227
0,988989,36.849124908447266,19.368865966796875,47.33516311645508,177.78836059570312
0,988990,19.590961456298828,43.21651077270508,-15.16447925567627,2.1207334995269775
0,988993,-7.177826404571533,-46.79595184326172,-74.20974731445312,-201.52520751953125
0,988994,-1.7604910135269165,-50.66278076171875,24.227357864379883,-27.260583877563477
0,988997,-6.271292209625244,17.766494750976562,30.755027770996094,127.317626953125
0,988998,4.865415573120117,21.430694580078125,-49.97385025024414,13.9253511428833
0,989001,-17.264545440673828,11.679555892944336,-16.04415512084961,-47.88345718383789
0,989002,-13.174210548400879,-24.307504653930664,7.343780040740967,-25.012418746948242
0,989005,19.171602249145508,-15.412097930908203,10.99252986907959,58.81063461303711
0,989006,0.07759299129247665,19.833730697631836,7.055019378662109,6.259912490844727
0,989009,-34.697242736816406,5.154902935028076,-9.029319763183594,-107.8827896118164
0,989010,-4.907614231109619,-9.9208402633667,21.721471786499023,34.773834228515625
0,989013,43.3785514831543,22.989503860473633,7.51447868347168,50.07197189331055
0,989014,0.9598463177680969,30.81191062927246,-7.16671085357666,-32.68484878540039
0,989017,-10.942876815795898,-7.453642845153809,11.275914192199707,46.69135665893555
0,989018,26.998228073120117,-26.327302932739258,5.074966907501221,13.002511024475098
0,989021,5.733029365539551,0.14310285449028015,-16.585006713867188,-16.564453125
0,989022,-33.02788543701172,31.75318717956543,-27.322404861450195,-0.9593088626861572
0,989025,-2.118145227432251,-17.387065887451172,2.2594494819641113,16.38900375366211
0,989026,22.248598098754883,-18.573728561401367,9.58197021484375,-4.001701354980469
0,989029,-20.03075408935547,8.845620155334473,-1.3164609670639038,-125.30433654785156
0,989030,-20.970417022705078,-21.790451049804688,-14.999573707580566,-3.5312373638153076
0,989033,1.210721731185913,12.50342082977295,-5.15589714050293,103.36732482910156
0,989034,9.921351432800293,4.574731349945068,37.56884765625,-2.0587573051452637
0,989037,-1.4734193086624146,-29.192548751831055,18.880748748779297,3.0640995502471924
0,989038,-11.350566864013672,20.259321212768555,-21.541133880615234,-1.456261396408081
0,989041,5.296733856201172,-6.117913722991943,-22.109989166259766,33.29545974731445
0,989042,11.538130760192871,-25.727558135986328,12.738710403442383,50.04648971557617
0,989045,0.9265698194503784,11.58871841430664,-3.0093131065368652,-120.25106811523438
0,989046,1.7448482513427734,19.44076156616211,-21.84357452392578,-132.24253845214844
0,989049,17.782617568969727,26.601295471191406,37.98603057861328,71.10459899902344
0,989050,11.723255157470703,-2.985328197479248,18.52528953552246,112.07088470458984
0,989053,-6.259191513061523,-16.470317840576172,-34.546424865722656,4.443536281585693
0,989054,-31.201427459716797,12.806482315063477,-16.05887222290039,22.240562438964844
0,989057,-8.366658210754395,-8.513449668884277,33.31245803833008,5.695438385009766
0,989058,35.04612731933594,-31.447471618652344,30.973834991455078,-5.574313640594482
0,989061,-26.0748291015625,13.790811538696289,-21.402067184448242,-5.1962127685546875
0,989062,-6.221528053283691,39.42991256713867,-36.21851348876953,-78.81942749023438
0,989065,39.99702453613281,-27.974895477294922,-17.50089454650879,-10.75346565246582
0,989066,-20.471765518188477,-38.50208282470703,29.351768493652344,9.942856788635254
0,989069,1.9669452905654907,45.334598541259766,12.061388969421387,-15.459502220153809
0,989070,14.584041595458984,7.932119846343994,-1.0034886598587036,37.19166564941406
0,989073,-7.546848297119141,-9.244400978088379,6.5221967697143555,25.16958999633789
0,989074,-1.6715338230133057,-2.0662155151367188,-44.88387680053711,-27.49503517150879
0,989077,-33.253196716308594,-47.37022018432617,1.6253037452697754,-16.04998207092285
0,989078,7.623594760894775,10.875232696533203,36.362205505371094,5.772162914276123
0,989081,33.0537109375,30.375144958496094,-5.618515491485596,13.376084327697754
0,989082,-17.529563903808594,20.539064407348633,-4.8932952880859375,19.861610412597656
0,989085,5.91430139541626,21.54294776916504,-13.796224594116211,69.0264663696289
0,989086,11.553699493408203,-9.163969993591309,10.235372543334961,27.449308395385742
0,989089,-8.47496223449707,-13.604191780090332,48.064918518066406,-108.04087829589844
0,989090,-9.43422794342041,-24.437702178955078,-20.317943572998047,-57.71745681762695
0,989093,1.447274088859558,-0.9588907957077026,-52.08625793457031,54.46682357788086
0,989094,-9.6306791305542,27.0177059173584,14.964324951171875,18.54698944091797
0,989097,-5.155246734619141,-12.94800090789795,42.62965393066406,-24.35009002685547
0,989099,33.60300827026367,-24.99152183532715,-14.151355743408203,19.33416748046875
0,989101,-4.739734172821045,14.75207805633545,-21.26527976989746,2.5244204998016357
0,989103,-11.380175590515137,-21.294189453125,28.85919761657715,-24.47421646118164
0,989105,-8.282510757446289,-6.622382164001465,-22.51191520690918,-55.63890075683594
0,989107,-27.229713439941406,37.32502746582031,-22.10554313659668,-6.2877421379089355
0,989110,5.281900882720947,-12.031610488891602,15.258776664733887,135.07347106933594
0,989111,30.497968673706055,52.27482223510742,5.541043758392334,122.3106918334961
0,989112,52.406253814697266,46.068294525146484,23.957401275634766,-83.2179946899414
0,989115,-19.935287475585938,-96.04429626464844,-17.32250213623047,-170.2396240234375
0,989116,-72.68099212646484,-54.093624114990234,-24.584936141967773,27.37063980102539
0,989119,31.310413360595703,43.617740631103516,28.758930206298828,119.68590545654297
0,989120,27.388343811035156,35.23642349243164,-5.885433197021484,-95.79966735839844
0,989123,-45.669376373291016,1.352475643157959,-12.451336860656738,-123.0831069946289
0,989124,-0.7576730251312256,-45.89342498779297,9.778380393981934,69.66899871826172
0,989127,24.434040069580078,-21.854595184326172,-3.3744285106658936,30.454029083251953
0,989128,-1.646378993988037,42.4754524230957,21.972007751464844,10.42493724822998
0,989131,0.5193753242492676,-2.580277681350708,-15.19169807434082,28.225263595581055
0,989132,4.383927822113037,-6.374403953552246,-48.34117126464844,-7.723566055297852
0,989135,1.0214864015579224,29.451696395874023,26.377687454223633,11.759782791137695
0,989136,-9.473907470703125,5.582452774047852,44.651161193847656,-8.168082237243652
0,989139,13.94560432434082,-7.418269157409668,4.570831298828125,35.12167739868164
0,989140,26.798877716064453,-17.311185836791992,-28.015121459960938,36.337894439697266
0,989143,-1.751896619796753,24.068668365478516,-15.260351181030273,-8.795830726623535
0,989144,-41.8692626953125,-12.673807144165039,22.437528610229492,-8.633883476257324
0,989147,-6.365938186645508,-43.946815490722656,-23.968090057373047,-68.18485260009766
0,989148,31.911380767822266,37.913734436035156,-16.081012725830078,-25.761507034301758
0,989151,-21.976665496826172,-11.362260818481445,35.345191955566406,48.00200653076172
0,989152,18.986228942871094,-38.510459899902344,22.10120964050293,28.033552169799805
0,989155,6.231085777282715,32.91585922241211,-2.7047533988952637,-55.649085998535156
0,989156,-38.881507873535156,29.23660659790039,-33.20700454711914,-51.5136833190918
0,989159,5.664632320404053,-1.5989017486572266,-4.25609827041626,70.09884643554688
0,989160,-0.9734708666801453,-19.207962036132812,27.262189865112305,27.13241195678711
0,989163,-1.3748267889022827,1.4365251064300537,0.08553807437419891,50.32954406738281
0,989164,19.450551986694336,17.161575317382812,-20.38673210144043,97.16471099853516
0,989167,-7.540317535400391,3.9217326641082764,10.72390365600586,-146.89669799804688
0,989168,-11.08543872833252,-3.7965505123138428,17.2999324798584,-161.9278106689453
0,989171,24.043184280395508,-22.033809661865234,-25.67864990234375,113.43901062011719
0,989172,1.7695493698120117,4.174898624420166,-1.7493127584457397,94.54660034179688
0,989175,-23.406980514526367,26.4507999420166,21.227731704711914,-40.24618148803711
0,989176,-13.54381275177002,-16.90229606628418,-18.573928833007812,-40.61825180053711
0,989179,39.356929779052734,-19.34014892578125,-20.35201644897461,-32.656124114990234
0,989180,34.40245056152344,8.555940628051758,38.95787048339844,-32.34437942504883
0,989183,-49.027122497558594,2.1141889095306396,2.7009215354919434,23.403427124023438
0,989184,-16.43356704711914,11.730140686035156,-24.773141860961914,109.75212097167969
0,989187,3.1620278358459473,4.157203674316406,4.9275431632995605,82.24957275390625
0,989188,-6.565359115600586,-30.889806747436523,-9.354662895202637,-63.97006607055664
0,989191,10.938762664794922,-15.632627487182617,13.066295623779297,-105.72650909423828
0,989192,-16.052806854248047,16.748088836669922,4.556651592254639,-15.761032104492188
0,989195,15.35184097290039,18.140655517578125,-2.1383368968963623,35.20087432861328
0,989196,13.243821144104004,10.284852027893066,-6.526529788970947,33.11187744140625
0,989199,19.535436630249023,-13.139385223388672,3.3049874305725098,0.6571841239929199
0,989200,38.67472839355469,1.8443056344985962,14.340368270874023,-19.816980361938477
0,989203,-46.320091247558594,28.126949310302734,-38.0126953125,-7.4727559089660645
0,989204,-45.44639205932617,-33.75984191894531,-1.2764931917190552,-16.650814056396484
0,989207,28.282508850097656,-18.351612091064453,39.86483383178711,-27.464387893676758
0,989208,22.48920440673828,44.556888580322266,0.9847995042800903,34.471168518066406
0,989211,-16.429452896118164,21.59928321838379,-9.564979553222656,44.48773193359375
0,989212,-2.7399208545684814,-31.624950408935547,2.7435123920440674,0.41933006048202515
0,989215,32.05910873413086,-32.22822952270508,-7.027824878692627,-35.778968811035156
0,989216,-8.90240478515625,14.355121612548828,-19.011911392211914,-39.55106735229492
0,989219,-65.26231384277344,-5.500973224639893,9.31401252746582,48.54497146606445
0,989220,-5.09962797164917,-17.305822372436523,-0.9573267102241516,60.962554931640625
0,989223,68.14048767089844,3.080886125564575,-13.67308235168457,-16.96018409729004
0,989224,2.9408118724823,49.519771575927734,24.886314392089844,-81.58875274658203
0,989227,-51.67409896850586,16.704938888549805,4.733309745788574,-29.150257110595703
0,989228,14.436945915222168,-24.265159606933594,-11.023369789123535,76.1253890991211
0,989231,47.67728042602539,2.8735952377319336,14.50980281829834,15.10205078125
0,989232,11.266751289367676,-17.632965087890625,-7.705358028411865,-15.918750762939453
0,989235,-55.22140884399414,-14.979132652282715,-25.388755798339844,8.293440818786621
0,989236,-34.15480422973633,-1.8790926933288574,15.572861671447754,-1.8477344512939453
0,989239,32.420963287353516,23.692447662353516,24.253250122070312,28.629941940307617
0,989240,2.750756025314331,11.809404373168945,-15.567418098449707,-25.480119705200195
0,989243,-1.693986415863037,-29.46946907043457,-15.360660552978516,-57.48772430419922
0,989244,4.6690521240234375,2.9517650604248047,16.589202880859375,2.223021984100342
0,989247,8.77495288848877,21.154462814331055,19.638729095458984,32.97831344604492
0,989248,-0.6583635210990906,-17.23486328125,-1.3202704191207886,-4.181199550628662
0,989251,-17.618125915527344,-21.751497268676758,-36.039371490478516,-22.345155715942383
0,989252,-0.43501782417297363,35.82326126098633,-19.48218536376953,58.939517974853516
0,989255,28.340845108032227,28.167003631591797,53.54938888549805,123.94168090820312
0,989256,21.980138778686523,-42.680110931396484,2.7529025077819824,-53.87346649169922
0,989259,-51.30057907104492,-14.50383472442627,-60.56304168701172,-185.14149475097656
0,989260,-10.254039764404297,5.665456295013428,19.809179306030273,15.89264965057373
0,989263,67.44886016845703,8.513784408569336,20.838899612426758,54.03154373168945
0,989264,-3.391463279724121,20.657135009765625,-5.28410530090332,-22.783601760864258
0,989267,-54.50950622558594,-8.630766868591309,0.9643288254737854,15.052903175354004
0,989268,-15.777907371520996,6.258752822875977,-33.19041442871094,-11.55979061126709
0,989271,64.98738098144531,32.61790084838867,71.26596069335938,45.807518005371094
0,989272,20.25181770324707,-34.70491027832031,26.595436096191406,54.098392486572266
0,989275,-69.77531433105469,-54.71005630493164,-96.54900360107422,-51.23664474487305
0,989276,25.12965965270996,41.849830627441406,8.182741165161133,-16.172338485717773
0,989279,1.0067943334579468,28.784957885742188,10.037984848022461,-4.801310062408447
0,989280,-36.339759826660156,-30.291149139404297,13.81253719329834,16.812698364257812
0,989283,31.634456634521484,-24.124122619628906,23.85540008544922,38.57681655883789
0,989284,20.9189453125,27.16994857788086,-27.749704360961914,-37.66609573364258
0,989287,-24.309507369995117,30.81868553161621,12.64852523803711,-29.236085891723633
0,989288,-48.207340240478516,-55.44759750366211,-2.5686721801757812,18.669296264648438
0,989291,21.096467971801758,-21.189786911010742,-10.323516845703125,-30.295482635498047
0,989292,17.184162139892578,43.81315612792969,12.061939239501953,-25.153959274291992
0,989295,-0.927001953125,8.102591514587402,-0.8101587891578674,78.20639038085938
0,989296,14.734298706054688,4.454893589019775,-2.162165403366089,56.2194938659668
0,989299,-35.538761138916016,-8.006929397583008,0.23722808063030243,-23.329885482788086
0,989300,17.135499954223633,-7.856257438659668,-14.106669425964355,-60.81672286987305
0,989303,35.161556243896484,15.958091735839844,-8.033967971801758,-3.613945484161377
0,989304,-10.028579711914062,-3.520888328552246,39.69807434082031,42.976470947265625
0,989307,6.861040115356445,-10.182615280151367,-21.5339298248291,-39.609535217285156
0,989309,-19.021038055419922,-23.526363372802734,-32.79775619506836,-12.307502746582031
0,989311,8.554021835327148,-2.1239376068115234,42.76176834106445,1.432020902633667
0,989313,8.23896312713623,13.664325714111328,0.5573395490646362,30.864534378051758
0,989315,-40.676937103271484,24.460771560668945,-18.637615203857422,21.585718154907227
0,989317,37.64409637451172,44.43409729003906,0.9808107614517212,-103.75978088378906
0,989319,5.375353813171387,-46.091068267822266,5.033923625946045,19.918102264404297
0,989321,-26.107471466064453,-26.71919059753418,25.159650802612305,37.27298355102539
0,989323,24.993940353393555,19.090639114379883,4.869387149810791,-4.179807662963867
0,989325,-6.416500568389893,-20.785837173461914,-49.12846755981445,50.42980194091797
0,989329,-2.293095350265503,29.707763671875,-5.072678089141846,-11.495831489562988
0,989329,-22.919601440429688,17.012786865234375,52.477874755859375,2.2834784984588623
0,989330,-6.6270670890808105,-26.278820037841797,-8.704038619995117,56.144527435302734
0,989333,27.165029525756836,3.51751446723938,-29.046463012695312,-5.8397908210754395
0,989334,-5.080842971801758,6.129847526550293,-3.0211527347564697,-110.91603088378906
0,989337,-24.087461471557617,3.6992523670196533,24.956462860107422,72.52326965332031
0,989338,-31.90975570678711,27.77800941467285,57.5583381652832,86.1584701538086
0,989341,163.2583465576172,105.45023345947266,50.9481315612793,-102.1466064453125
0,989342,45.576820373535156,-52.50970458984375,-96.87476348876953,-40.57246017456055
0,989345,-260.03662109375,-240.34378051757812,-198.55450439453125,-87.59400939941406
0,989346,91.2173080444336,82.77302551269531,104.58148193359375,-83.39968872070312
0,989349,105.8901596069336,127.25141143798828,153.62692260742188,124.998779296875
0,989350,-162.23260498046875,-124.33867645263672,-100.8931884765625,144.64747619628906
0,989353,-4.974925994873047,-34.86170959472656,-48.879417419433594,-109.10167694091797
0,989354,94.70915985107422,6.237252235412598,-83.46498107910156,-35.744232177734375
0,989357,27.504150390625,31.336088180541992,47.730979919433594,53.06743621826172
0,989358,-98.08230590820312,91.74847412109375,200.41416931152344,-85.26382446289062
0,989361,14.356180191040039,1.2982739210128784,-54.96065139770508,76.41322326660156
0,989362,66.1318130493164,-53.45328140258789,-46.58699417114258,130.01959228515625
0,989365,-50.79799270629883,8.4234037399292,57.04636001586914,36.74014663696289
0,989366,9.089792251586914,42.98225402832031,-9.209283828735352,-7.423000812530518
0,989369,9.642546653747559,-16.579519271850586,-26.069232940673828,-122.46607971191406
0,989370,-13.517549514770508,-30.21480941772461,15.79565143585205,-112.02531433105469
0,989373,11.71778392791748,11.625266075134277,13.363385200500488,38.35771560668945
0,989374,-9.297660827636719,9.042436599731445,-37.074302673339844,68.59083557128906
0,989377,7.113803863525391,6.732617378234863,-3.424029588699341,-25.979522705078125
0,989378,23.19322395324707,31.024520874023438,6.62045955657959,-39.54690933227539
0,989381,-19.904338836669922,12.686070442199707,-29.330766677856445,73.899658203125
0,989382,-27.7893123626709,-49.16544723510742,-24.24308967590332,82.5499496459961
0,989385,30.001279830932617,-49.815834045410156,4.314168453216553,-89.93843078613281
0,989386,31.735017776489258,54.258514404296875,37.15248107910156,-54.74009323120117
0,989389,-15.700286865234375,9.237781524658203,12.060494422912598,44.434898376464844
0,989390,-2.6282217502593994,-63.15306854248047,-40.64426040649414,20.32678985595703
0,989393,0.6772253513336182,47.0510368347168,55.545257568359375,2.283695936203003
0,989394,-42.29071807861328,21.07611083984375,27.331830978393555,-86.40621948242188
0,989397,32.687904357910156,-38.63111114501953,-79.67120361328125,3.2748184204101562
0,989398,90.80581665039062,24.68310546875,30.892589569091797,75.25211334228516
0,989401,-72.81803131103516,-20.424396514892578,35.55036163330078,-16.258464813232422
0,989402,-109.61351776123047,-56.482521057128906,-58.845726013183594,44.324127197265625
0,989405,84.9257583618164,55.863548278808594,-12.6209077835083,54.701725006103516
0,989406,46.49946594238281,24.48736000061035,39.80738067626953,-37.61153793334961
0,989409,-59.77450942993164,-34.47274398803711,-23.33772087097168,-27.250276565551758
0,989410,19.322038650512695,71.37216186523438,-25.143383026123047,-65.66535186767578
0,989413,-19.30237579345703,6.114030361175537,52.536922454833984,-48.41497039794922
0,989414,13.33186149597168,-67.47171020507812,26.82398223876953,56.319889068603516
0,989417,54.337894439697266,1.1502411365509033,-73.33256530761719,-13.812684059143066
0,989418,-31.442447662353516,-48.894691467285156,-31.78215789794922,-3.1060643196105957
0,989421,-21.096296310424805,-10.500528335571289,55.82304000854492,46.8911018371582
0,989422,-26.426137924194336,77.83361053466797,19.60912322998047,-47.16542053222656
0,989425,-7.650229454040527,-6.707942962646484,7.8347086906433105,-14.334193229675293
0,989426,20.195077896118164,-24.054216384887695,2.880952835083008,70.88359832763672
0,989429,25.445568084716797,19.151187896728516,-17.245882034301758,51.126399993896484
0,989430,12.946922302246094,3.9973840713500977,-22.36594009399414,-25.575027465820312
0,989433,-9.935770988464355,18.259502410888672,12.724648475646973,-11.082208633422852
0,989434,8.442747116088867,-10.886331558227539,14.434321403503418,21.408159255981445
0,989437,-14.560523986816406,-6.492488861083984,12.799559593200684,-49.43096923828125
0,989438,-29.508073806762695,14.818517684936523,19.899673461914062,-36.447696685791016
0,989441,2.774747371673584,-46.18013000488281,-41.82982635498047,8.130534172058105
0,989442,8.033509254455566,-10.745232582092285,-18.98052978515625,-4.2706708908081055
0,989445,-94.64299774169922,-73.49078369140625,-75.24897766113281,-44.214725494384766
0,989446,15.01008415222168,74.61846923828125,-5.849250316619873,88.88125610351562
0,989449,224.2869415283203,232.17079162597656,174.8347625732422,114.38227844238281
0,989450,-106.58529663085938,-176.3348388671875,-13.406476020812988,-79.36015319824219
0,989453,-120.51847076416016,-100.06871795654297,-60.151206970214844,-14.430841445922852
0,989454,155.7939910888672,131.00225830078125,24.8799991607666,-32.00706100463867
0,989457,-97.80187225341797,-98.4844741821289,-74.44279479980469,-107.47210693359375
0,989458,-27.10932731628418,22.271099090576172,9.738298416137695,54.028839111328125
0,989461,155.34707641601562,6.302926063537598,65.64920043945312,83.94007873535156
0,989462,-61.78693771362305,-49.88779067993164,-24.48543930053711,-18.74851417541504
0,989465,-25.76767349243164,186.65786743164062,22.45218276977539,-35.41828918457031
0,989466,63.88810729980469,-10.53072738647461,33.89876937866211,-9.245996475219727
0,989469,-64.26069641113281,-147.28924560546875,-65.58422088623047,-3.910810947418213
0,989470,6.229198932647705,37.91446304321289,-21.843706130981445,79.79293060302734
0,989473,91.33196258544922,45.65007019042969,34.05986785888672,50.758033752441406
0,989474,-41.62564468383789,-49.985870361328125,4.283607482910156,-98.11605834960938
0,989477,-119.873779296875,-1.529523253440857,8.333616256713867,-12.073769569396973
0,989478,-10.870917320251465,42.878662109375,-4.518483638763428,59.30518341064453
0,989481,64.60606384277344,-23.811019897460938,-9.375078201293945,12.301358222961426
0,989482,20.621675491333008,-7.380184650421143,-0.027230702340602875,-39.07135772705078
0,989485,-0.4347967505455017,-6.357919692993164,15.81700325012207,-36.65793228149414
0,989486,-14.62504768371582,-34.9979362487793,2.105780601501465,7.634209156036377
0,989489,-11.09835433959961,24.147239685058594,-19.246837615966797,-45.280757904052734
0,989490,-20.494897842407227,32.096038818359375,-27.969051361083984,-43.93416213989258
0,989493,-0.6124433875083923,-22.17072868347168,-4.922561168670654,61.21145248413086
0,989494,44.35047149658203,-20.128686904907227,31.035511016845703,79.76809692382812
0,989497,-13.792571067810059,12.873327255249023,2.9820075035095215,29.335847854614258
0,989498,-4.9917521476745605,37.75156021118164,-11.15124225616455,-22.15902328491211
0,989501,26.34400177001953,-9.6557035446167,-2.3529458045959473,-52.43497848510742
0,989502,-9.906346321105957,-7.3226189613342285,9.524409294128418,-4.4475226402282715
0,989505,-7.871662139892578,0.5505161285400391,2.1271800994873047,-31.963104248046875
0,989506,-19.432342529296875,-46.031333923339844,-0.2522604167461395,-10.027998924255371
0,989509,11.924681663513184,29.58525848388672,6.2823333740234375,51.16236877441406
0,989510,19.079343795776367,21.770109176635742,-7.286259651184082,7.774898529052734
0,989513,-27.900815963745117,-25.614057540893555,11.208734512329102,-2.3060243129730225
0,989514,5.255161762237549,22.54178810119629,-2.788529634475708,-20.350988388061523
0,989517,14.408148765563965,-13.365860939025879,-13.22591495513916,22.435789108276367
0,989518,-14.719914436340332,-37.437381744384766,4.737566947937012,-6.038765907287598
0,989521,10.266648292541504,21.546192169189453,-2.957425594329834,-28.63811683654785
0,989523,27.175416946411133,-14.7638578414917,-86.34008026123047,52.40267562866211
0,989525,-9.980788230895996,2.0388312339782715,2.7110588550567627,-6.023611545562744
0,989527,-12.926015853881836,42.943058013916016,164.73291015625,-8.150144577026367
0,989529,-0.10056816041469574,-19.647281646728516,-34.94740295410156,-27.580963134765625
0,989531,-4.873496055603027,22.118690490722656,-93.03539276123047,-36.56636047363281
0,989536,43.63224792480469,24.758663177490234,62.710418701171875,63.24910354614258
0,989536,-9.324530601501465,-19.340375900268555,23.644203186035156,25.245737075805664
0,989538,-62.27867126464844,-16.102916717529297,-61.99481201171875,-42.08142852783203
0,989539,23.156211853027344,13.081539154052734,15.15761947631836,8.560467720031738
0,989540,13.839008331298828,0.2913537323474884,69.18701171875,30.524560928344727
0,989543,-17.373844146728516,-15.888052940368652,-35.00395584106445,7.19286584854126
0,989544,16.222318649291992,22.753677368164062,-24.350080490112305,-28.554380416870117
0,989547,-11.469175338745117,-2.470841407775879,31.58607292175293,-58.45334243774414
0,989548,-21.046669006347656,-22.715045928955078,-14.247987747192383,39.916507720947266
0,989551,24.43897247314453,-40.4033088684082,-21.38100242614746,24.557994842529297
0,989552,22.938627243041992,-9.514909744262695,-16.257001876831055,-53.87676239013672
0,989555,-18.131929397583008,52.934200286865234,-6.728230953216553,-5.966482639312744
0,989556,-38.90721893310547,-13.527989387512207,13.447762489318848,35.69583511352539
0,989559,8.57687759399414,-10.564493179321289,-5.2497758865356445,155.72047424316406
0,989560,37.94123077392578,56.706295013427734,20.396724700927734,80.84874725341797
0,989563,-5.236068248748779,-21.44936180114746,31.156646728515625,-261.55780029296875
0,989564,-4.209610939025879,-43.31892776489258,-12.011512756347656,-149.65328979492188
0,989567,16.63279914855957,24.409482955932617,-33.73788070678711,145.8194122314453
0,989568,-15.952108383178711,16.089452743530273,-2.7311904430389404,23.62751007080078
0,989571,-36.88209915161133,-13.399709701538086,5.344879627227783,8.899040222167969
0,989572,40.62947082519531,19.882259368896484,-13.43525218963623,43.82375717163086
0,989575,49.52861785888672,11.70370101928711,38.51813507080078,-67.6032485961914
0,989576,-55.44719696044922,-42.277645111083984,21.250913619995117,-17.715551376342773
0,989579,-20.446897506713867,2.701714515686035,-36.188690185546875,-0.43396738171577454
0,989580,11.209827423095703,26.866167068481445,-12.900510787963867,12.580397605895996
0,989583,-2.3766679763793945,5.064422607421875,20.434795379638672,28.007360458374023
0,989584,44.38886642456055,-11.901098251342773,-13.482121467590332,-5.921015739440918
0,989587,-16.62322425842285,-28.361738204956055,-39.2808837890625,23.67522621154785
0,989588,-42.46342086791992,9.451385498046875,15.686670303344727,37.12682342529297
0,989591,31.28987693786621,-0.1712183803319931,22.707612991333008,-7.989529132843018
0,989592,-1.0797138214111328,-11.09797191619873,-2.9462976455688477,-37.31692123413086
0,989595,-14.543868064880371,17.952857971191406,-2.533836841583252,31.898836135864258
0,989596,14.66892147064209,-4.65415620803833,10.01949691772461,19.412660598754883
0,989599,-14.44188117980957,1.3428860902786255,21.42828941345215,-84.66761016845703
0,989600,8.185840606689453,11.57468318939209,-3.0338423252105713,-39.09982681274414
0,989603,38.56269836425781,18.683122634887695,-9.37286376953125,73.04612731933594
0,989604,-14.000825881958008,5.673726558685303,17.57296371459961,35.191593170166016
0,989607,-43.35567855834961,-45.51543426513672,-7.098740577697754,-48.39138412475586
0,989608,-4.6594414710998535,8.169891357421875,-9.136519432067871,-4.998464584350586
0,989611,13.390201568603516,15.24578857421875,9.039200782775879,20.407176971435547
0,989612,10.341070175170898,-21.159940719604492,-26.24920654296875,-15.50036907196045
0,989615,-3.5900323390960693,21.030109405517578,-2.0906882286071777,0.7263907194137573
0,989616,2.0585930347442627,6.8700642585754395,12.862476348876953,-12.82509994506836
0,989619,14.352514266967773,-28.567094802856445,-8.809653282165527,57.15483856201172
0,989620,-23.9040470123291,-14.004105567932129,7.247642517089844,29.004634857177734
0,989623,3.7438137531280518,20.774255752563477,6.5319013595581055,-106.69942474365234
0,989624,20.99097442626953,23.246599197387695,-9.026061058044434,33.28935623168945
0,989627,4.582284450531006,0.5393136143684387,-29.055124282836914,32.630706787109375
0,989628,7.023573875427246,-21.393775939941406,19.209186553955078,-50.81158447265625
0,989631,-44.99319839477539,-28.070531845092773,21.421695709228516,28.426799774169922
0,989632,-3.717144250869751,29.671749114990234,-22.69195556640625,-10.804337501525879
0,989635,35.20654296875,37.5113525390625,24.789640426635742,-10.928720474243164
0,989636,-21.861927032470703,-25.887269973754883,12.932151794433594,8.219563484191895
0,989639,-12.471850395202637,-23.257244110107422,-24.938135147094727,1.1734857559204102
0,989640,22.075374603271484,8.386834144592285,-10.981188774108887,20.110027313232422
0,989643,23.40127944946289,-0.4783609211444855,-0.4377304017543793,-23.96963882446289
0,989644,-7.129713535308838,-2.8730390071868896,9.112793922424316,-7.2234649658203125
0,989647,-20.78962516784668,7.226713180541992,25.460182189941406,41.34242630004883
0,989648,12.95766830444336,7.327044486999512,-7.707903861999512,17.898107528686523
0,989651,5.878823280334473,26.32284927368164,-22.899934768676758,-13.827632904052734
0,989652,23.987829208374023,1.1885406970977783,7.928684711456299,-33.12713623046875
0,989655,20.524486541748047,-31.953950881958008,-15.863479614257812,-7.8693952560424805
0,989656,-58.0775032043457,-4.298290252685547,8.440908432006836,8.472837448120117
0,989659,-5.23477029800415,2.6496264934539795,27.39021873474121,-6.6409101486206055
0,989660,27.71381187438965,-15.917566299438477,-21.482839584350586,-12.975650787353516
0,989663,-5.435710906982422,17.783018112182617,-8.844461441040039,31.84640884399414
0,989664,-22.457448959350586,1.4883159399032593,17.432600021362305,45.5472526550293
0,989667,-40.2033576965332,-34.21025848388672,1.7647533416748047,-35.46488952636719
0,989668,25.361780166625977,2.4049971103668213,1.057022213935852,14.30717945098877
0,989671,19.795652389526367,17.944116592407227,10.14466381072998,11.487696647644043
0,989672,-14.413522720336914,21.421466827392578,0.482667475938797,-64.61685180664062
0,989675,-9.697367668151855,-15.507413864135742,-10.110408782958984,0.2648482918739319
0,989676,13.968570709228516,11.691179275512695,-11.386210441589355,-3.889319896697998
0,989679,46.33744430541992,11.455249786376953,-2.883122205734253,-6.778624057769775
0,989680,-20.94046401977539,-25.40825080871582,-6.740511417388916,46.941680908203125
0,989683,-37.41971206665039,45.15918731689453,8.95228099822998,2.812150001525879
0,989684,43.28659439086914,6.478673458099365,7.242995262145996,-21.34183692932129
0,989687,-2.543318271636963,-54.07090377807617,-20.247617721557617,-4.2439188957214355
0,989688,-52.34236526489258,-16.48163414001465,-0.40242233872413635,26.858715057373047
0,989691,11.461234092712402,14.598546981811523,17.654401779174805,-27.560354232788086
0,989692,7.62663459777832,6.255120754241943,-3.7241790294647217,-52.89958190917969
0,989695,-20.446765899658203,-16.310869216918945,-30.168018341064453,120.05726623535156
0,989696,36.958805084228516,-2.5025150775909424,10.435186386108398,36.120140075683594
0,989699,47.856510162353516,44.051448822021484,15.2869234085083,-102.75543212890625
0,989700,-3.073622226715088,16.988689422607422,4.7320027351379395,-11.916729927062988
0,989703,-27.924657821655273,-46.3436279296875,36.00579833984375,81.77862548828125
0,989704,-26.464492797851562,-2.5054280757904053,-11.224335670471191,34.67767333984375
0,989707,11.985734939575195,20.095590591430664,-38.91225051879883,-145.4827117919922
0,989708,2.054992914199829,-6.506392002105713,-2.5058155059814453,-56.15290832519531
0,989711,0.08394171297550201,-17.723848342895508,15.73268985748291,93.37073516845703
0,989712,-4.141056537628174,11.709436416625977,5.838823318481445,19.31698989868164
0,989715,-8.930950164794922,14.925920486450195,14.551392555236816,-27.254274368286133
0,989716,35.929134368896484,-12.016009330749512,3.522170305252075,-34.61476135253906
0,989719,-13.239094734191895,35.27312469482422,-46.074222564697266,31.85588836669922
0,989720,-48.70171356201172,3.6055240631103516,1.492533564567566,70.41232299804688
0,989723,30.432828903198242,-41.620643615722656,43.00398635864258,-38.09575653076172
0,989724,14.684648513793945,-13.332538604736328,-1.502427577972412,-17.64572525024414
0,989727,-25.557945251464844,8.804088592529297,0.7043643593788147,41.7765998840332
0,989728,20.147855758666992,16.236515045166016,-8.999417304992676,-11.743107795715332
0,989731,8.978880882263184,15.676490783691406,-21.399080276489258,8.718785285949707
0,989732,3.125657796859741,-7.299079418182373,13.352005004882812,3.6026113033294678
0,989735,-9.339838027954102,-30.30974006652832,-5.549843788146973,-59.189823150634766
0,989736,-20.72275733947754,-10.083710670471191,-2.3663854598999023,-14.292550086975098
0,989739,12.146883964538574,18.712635040283203,22.98399543762207,26.834970474243164
0,989740,-1.1849620342254639,22.228912353515625,-1.7618826627731323,15.428609848022461
0,989743,5.352132320404053,-29.674518585205078,-17.37894630432129,41.864837646484375
0,989744,-12.035059928894043,-17.809797286987305,-31.96666717529297,-14.916135787963867
0,989747,-31.727275848388672,38.21030044555664,6.006249904632568,-67.48838806152344
0,989748,65.52912139892578,7.11819314956665,32.059444427490234,9.91553020477295
0,989751,27.26871681213379,-22.218318939208984,-5.841455459594727,43.213523864746094
0,989755,-63.65857696533203,12.806135177612305,-0.278923898935318,54.26951217651367
0,989755,-2.1156868934631348,-2.1053271293640137,6.055332183837891,12.966230392456055
0,989757,1.7890299558639526,-32.00880813598633,0.2942623198032379,-89.69962310791016
0,989759,-17.022003173828125,13.909454345703125,-2.6850080490112305,-54.3613395690918
0,989761,15.07393741607666,21.838958740234375,-2.6396758556365967,51.52367401123047
0,989763,20.891937255859375,14.556801795959473,11.832378387451172,44.516780853271484
0,989765,4.3314738273620605,7.5491814613342285,-5.128997802734375,-39.458953857421875
0,989767,-8.751362800598145,-35.872108459472656,-3.7581610679626465,-52.27555465698242
0,989769,14.424705505371094,10.161310195922852,8.775635719299316,29.775209426879883
0,989771,9.101099014282227,44.46267318725586,4.943235397338867,37.82316970825195
0,989773,-13.466691970825195,-37.2008171081543,-8.63597297668457,-1.212836503982544
0,989775,-0.7311643958091736,-27.761734008789062,-27.564844131469727,7.39075231552124
0,989777,-22.2360897064209,21.268253326416016,2.0489706993103027,-35.96603012084961
0,989779,-9.17367172241211,-23.82390594482422,14.806327819824219,-33.97185134887695
0,989781,19.513944625854492,-16.87602996826172,-0.6788827776908875,51.3487663269043
0,989783,-19.230833053588867,21.203086853027344,-18.33070182800293,19.488203048706055
0,989785,-21.43680191040039,3.8827006816864014,-3.7370433807373047,-14.134149551391602
0,989787,35.87338638305664,4.641282081604004,31.804729461669922,36.78235626220703
0,989789,31.033239364624023,15.883481979370117,4.685971260070801,-32.4023323059082
0,989791,-34.90200424194336,3.185305118560791,-8.772263526916504,-21.344207763671875
0,989793,7.648253917694092,7.764328479766846,19.00705909729004,68.74894714355469
0,989795,30.692007064819336,-9.108621597290039,10.384114265441895,-24.32149887084961
0,989797,-45.12631607055664,-29.738784790039062,-20.70311164855957,-59.354244232177734
0,989799,5.825136184692383,31.193899154663086,-26.120567321777344,27.805002212524414
0,989801,30.256948471069336,31.130308151245117,6.503264427185059,20.53424835205078
0,989803,-16.3040714263916,-35.72212600708008,8.473915100097656,-44.135643005371094
0,989805,2.3459174633026123,-24.286041259765625,-10.700654029846191,-5.183353424072266
0,989807,-18.416166305541992,4.8701629638671875,24.49901008605957,49.02671813964844
0,989809,-16.494688034057617,16.006282806396484,-8.409371376037598,8.178149223327637
0,989811,32.403324127197266,-10.25235652923584,-41.86750793457031,-6.421982765197754
0,989813,6.300678253173828,-31.973636627197266,3.1446566581726074,-12.33607006072998
0,989815,-19.687265396118164,30.40169334411621,28.527997970581055,-55.337162017822266
0,989817,7.480744361877441,22.90935516357422,13.569859504699707,-1.9227416515350342
0,989819,13.321880340576172,-26.46881103515625,-2.7875795364379883,76.71533966064453
0,989821,23.42534828186035,20.469322204589844,22.452342987060547,15.563671112060547
0,989823,10.956265449523926,33.06602478027344,-14.961555480957031,-45.277626037597656
0,989825,-48.29185485839844,-5.099982261657715,-17.882335662841797,3.024506092071533
0,989827,-2.76672101020813,-28.372732162475586,21.214031219482422,-21.185527801513672
0,989829,28.8498592376709,-20.528785705566406,-27.76144027709961,-41.43045425415039
0,989831,-17.41189956665039,4.280596733093262,-0.7664583921432495,50.2149658203125
0,989833,10.322690963745117,9.912153244018555,18.333097457885742,73.25566864013672
0,989835,-24.358802795410156,-8.9376802444458,-15.72086238861084,10.138041496276855
0,989837,-45.603553771972656,-14.337636947631836,8.817602157592773,-49.29172134399414
0,989839,25.10034942626953,15.643411636352539,1.1909222602844238,-59.33977127075195
0,989841,15.996501922607422,19.31889533996582,-6.2251763343811035,-24.249753952026367
0,989843,-1.687930941581726,-18.317550659179688,1.2481952905654907,53.95915603637695
0,989845,12.27285099029541,-37.65889358520508,12.741729736328125,85.86461639404297
0,989847,-8.717000961303711,13.768572807312012,5.881834506988525,-8.78400707244873
0,989849,15.894583702087402,45.178768157958984,-11.947906494140625,-96.35582733154297
0,989851,6.576642990112305,25.676145553588867,17.891393661499023,-14.578512191772461
0,989853,-27.399600982666016,-22.56833839416504,-15.69627571105957,40.03866958618164
0,989855,25.441497802734375,-27.125835418701172,-3.008777618408203,3.6149909496307373
0,989857,18.350059509277344,25.081491470336914,29.277198791503906,-1.8246569633483887
0,989859,-2.7466976642608643,2.823495864868164,-45.001792907714844,-22.27733612060547
0,989861,-15.176905632019043,-53.3152961730957,-28.804161071777344,-7.159781455993652
0,989863,-34.012550354003906,-10.356910705566406,36.94358444213867,40.41889190673828
0,989865,10.811375617980957,57.57316207885742,33.95983123779297,13.490735054016113
0,989867,6.964506149291992,5.102629661560059,-6.352803707122803,3.2986481189727783
0,989869,-7.654850482940674,-35.938758850097656,-46.50270080566406,4.110455513000488
0,989871,16.425418853759766,16.05420684814453,9.71074390411377,-56.567291259765625
0,989873,0.06108248606324196,21.60323715209961,28.612239837646484,0.3125232458114624
0,989875,-5.804059028625488,-12.943625450134277,-26.209985733032227,29.957168579101562
0,989877,4.336764335632324,6.9900221824646,10.916361808776855,-18.76282501220703
0,989879,0.4200471341609955,-4.416959762573242,24.688278198242188,-3.643273115158081
0,989881,1.3890513181686401,-4.12858772277832,-1.7403593063354492,8.914637565612793
0,989883,3.1682069301605225,-6.531317710876465,-7.1560492515563965,13.494235038757324
0,989885,3.948725700378418,-10.287910461425781,-19.911605834960938,3.8234193325042725
0,989887,-1.1389920711517334,18.7041015625,-26.409482955932617,-1.0885976552963257
0,989889,-3.950812816619873,-26.09090232849121,4.256304740905762,-8.833508491516113
0,989891,-19.018253326416016,-12.172185897827148,35.406280517578125,4.533868789672852
0,989893,1.4684655666351318,35.24078369140625,3.9115095138549805,29.756187438964844
0,989895,26.337207794189453,-1.0919339656829834,-5.626422882080078,-26.666458129882812
0,989897,-17.261241912841797,-14.248336791992188,3.5615828037261963,-22.96937370300293
0,989899,-5.211237907409668,11.825212478637695,-24.91912269592285,22.242319107055664
0,989901,19.55259132385254,-23.977853775024414,-2.084157943725586,-6.302661895751953
0,989903,-20.16032600402832,-16.012863159179688,23.524747848510742,-2.2454428672790527
0,989905,11.029186248779297,45.163082122802734,12.920173645019531,13.696660995483398
0,989907,5.244833469390869,0.7617692947387695,1.7416017055511475,-15.395916938781738
0,989909,-31.68830680847168,-7.044559478759766,-23.658132553100586,-29.05805015563965
0,989911,17.806285858154297,20.666044235229492,-20.646713256835938,23.790613174438477
0,989913,4.491289138793945,-19.442970275878906,17.87186050415039,39.137916564941406
0,989915,5.261131286621094,3.8943538665771484,30.36328887939453,-14.70688533782959
0,989917,9.570381164550781,10.063953399658203,-12.521573066711426,-33.11516189575195
0,989919,-27.040546417236328,-6.4157562255859375,-8.791779518127441,5.186101913452148
0,989921,0.9405731558799744,14.027093887329102,-4.9806365966796875,46.324195861816406
0,989923,12.534552574157715,-8.825684547424316,-18.10228157043457,-4.927465438842773
0,989925,7.063910007476807,-4.381624698638916,25.570556640625,-57.87253952026367
0,989927,11.98723030090332,-11.745347023010254,0.13345377147197723,-22.057884216308594
0,989929,-2.0778579711914062,-4.802447319030762,4.8237810134887695,37.36663818359375
0,989931,-5.113260269165039,13.077508926391602,18.236064910888672,81.92449188232422
0,989933,-23.519189834594727,-30.24155616760254,-44.58254623413086,33.57999801635742
0,989935,-8.054902076721191,4.049656391143799,-15.698820114135742,-140.47528076171875
0,989937,23.120439529418945,14.379110336303711,18.052165985107422,-74.23021697998047
0,989939,3.7981069087982178,5.323951721191406,19.238204956054688,123.61109924316406
0,989941,-2.7742013931274414,17.10237693786621,-1.6922799348831177,16.41055679321289
0,989944,-16.173336029052734,-26.66213607788086,-11.19066047668457,-18.600635528564453
0,989945,-6.7364888191223145,-21.725505828857422,5.329712390899658,-11.083399772644043
0,989946,12.559051513671875,22.97770881652832,-3.800525665283203,-45.85250473022461
0,989949,12.906956672668457,51.586578369140625,18.984329223632812,35.41104507446289
0,989950,9.979171752929688,-26.09454345703125,12.380826950073242,13.515629768371582
0,989953,-10.583087921142578,-64.00871276855469,-15.004927635192871,1.3612549304962158
0,989954,-16.001007080078125,54.43642044067383,-0.009940198622643948,37.564239501953125
0,989957,3.5472793579101562,30.840606689453125,1.1012866497039795,3.596264600753784
0,989958,-3.3607177734375,-78.09765625,-21.545501708984375,2.315540313720703
0,989961,-0.15103627741336823,2.9858243465423584,-3.1544625759124756,-11.662055969238281
0,989962,19.72255516052246,63.16873550415039,24.695785522460938,-56.09716796875
0,989965,-10.679767608642578,-14.518546104431152,-5.721746921539307,-4.390585422515869
0,989966,1.845022201538086,-28.134151458740234,-45.41584777832031,13.326271057128906
0,989969,39.887672424316406,2.642761707305908,24.84639549255371,-27.660219192504883
0,989970,-15.820828437805176,18.766712188720703,47.915191650390625,2.6274425983428955
0,989973,-43.859615325927734,11.813033103942871,-31.19181251525879,35.4581184387207
0,989974,3.6025025844573975,-0.4217572808265686,-17.780473709106445,48.810546875
0,989977,29.91852569580078,-3.85079026222229,37.2466926574707,3.257253646850586
0,989978,5.570902347564697,-36.48598098754883,-5.957669258117676,-67.13239288330078
0,989981,-35.24513244628906,23.651859283447266,-27.857391357421875,-14.079662322998047
0,989982,-4.1497111320495605,0.6211329698562622,-4.206124305725098,35.34271240234375
0,989985,15.138671875,-40.98497009277344,9.963837623596191,33.142967224121094
1,989988,1.7662813663482666,72.1856460571289,47.27454376220703,-17.34842872619629
1,989988,13.422938346862793,-2.3935863971710205,-24.74231719970703,-77.25627899169922
1,989991,-2.266951322555542,-51.69797134399414,-32.41201400756836,-7.781268119812012
1,989992,-9.011032104492188,38.396209716796875,7.828928470611572,29.244712829589844
1,989995,4.766417980194092,6.811478137969971,-3.4773387908935547,30.103357315063477
1,989996,20.18560028076172,-20.580135345458984,31.461580276489258,72.56706237792969
1,989999,-19.710359573364258,-1.5472209453582764,-14.92878532409668,11.474639892578125
1,990000,-46.86331558227539,-13.039849281311035,-52.49040985107422,-21.541244506835938
1,990003,35.81494903564453,-4.935436725616455,30.486753463745117,10.47382640838623
1,990004,29.167755126953125,31.37266731262207,43.63771438598633,-82.50565338134766
1,990007,-6.6244425773620605,-3.6412360668182373,-20.747486114501953,-47.17677688598633
1,990008,2.115638494491577,-26.70831298828125,-13.613081932067871,76.43058776855469
1,990011,-32.018985748291016,26.139217376708984,10.997299194335938,18.626935958862305
1,990012,-17.086475372314453,9.363801956176758,6.12503719329834,-57.5557861328125
1,990015,24.99508285522461,-33.32279586791992,-9.599109649658203,-30.177488327026367
1,990016,40.97338104248047,-0.638002872467041,14.65938663482666,22.031997680664062
1,990019,-7.693341255187988,20.134807586669922,7.819187164306641,2.55751371383667
1,990020,-39.41610336303711,-11.860716819763184,-42.05742263793945,-2.960906505584717
1,990023,9.86654281616211,-4.378106117248535,5.803293228149414,9.225053787231445
1,990024,2.0795719623565674,14.511099815368652,33.57275390625,6.662991046905518
1,990027,-11.51489543914795,-18.524995803833008,-18.256677627563477,74.2151870727539
1,990028,3.7342967987060547,-18.163116455078125,-12.793116569519043,72.09375
1,990031,-10.823055267333984,38.86231231689453,20.716228485107422,-89.6024398803711
1,990032,3.812009334564209,5.099144458770752,14.584505081176758,-77.27533721923828
1,990035,10.233166694641113,-30.327369689941406,-5.803441524505615,30.463850021362305
1,990036,13.328858375549316,31.73130226135254,-21.65343475341797,-2.272611141204834
1,990039,19.62683868408203,17.239450454711914,-2.985433340072632,-1.9956974983215332
1,990040,-27.160722732543945,-25.986740112304688,18.682464599609375,32.09846496582031
1,990043,-0.19607584178447723,19.820701599121094,-12.636051177978516,4.741419315338135
1,990044,18.761259078979492,10.9968843460083,-13.589410781860352,-33.01432418823242
1,990047,-47.8591194152832,-63.27501678466797,-8.742860794067383,-44.795284271240234
1,990048,-12.302142143249512,-8.018757820129395,1.0392849445343018,8.477351188659668
1,990051,44.672122955322266,34.68943786621094,14.726913452148438,72.23493957519531
1,990052,10.701704025268555,-16.136659622192383,-0.2757725417613983,14.112536430358887
1,990055,-17.063154220581055,3.947890281677246,3.7402853965759277,-50.189876556396484
1,990056,6.245854377746582,11.706740379333496,-0.3519965410232544,-19.7228946685791
1,990059,8.865934371948242,6.079059600830078,23.02584457397461,62.9926872253418
1,990060,-6.045460224151611,32.26789093017578,27.525144577026367,68.82574462890625
1,990063,-17.021785736083984,-14.351208686828613,-26.187862396240234,-73.05157470703125
1,990064,-3.550870895385742,-36.81486511230469,-49.51626968383789,-105.0969009399414
1,990067,45.47999572753906,27.987794876098633,20.93624496459961,64.69979858398438
1,990068,-12.36124324798584,28.528615951538086,50.64658737182617,63.27276611328125
1,990071,-51.18941116333008,-48.421817779541016,-26.9622802734375,-46.40398406982422
1,990072,21.557004928588867,-56.14167022705078,-36.03742218017578,-24.459928512573242
1,990075,8.637206077575684,39.28696823120117,24.188804626464844,1.5005874633789062
1,990076,13.967069625854492,23.228614807128906,1.0549569129943848,8.88326358795166
1,990079,19.16521644592285,-8.597949028015137,-7.14924955368042,-24.123632431030273
1,990080,-41.551815032958984,46.83235549926758,5.782148361206055,-6.537823677062988
1,990083,-4.413904190063477,-15.203603744506836,-25.719501495361328,36.03741455078125
1,990084,34.785728454589844,-20.523292541503906,19.02393913269043,-0.9831699728965759
1,990087,-10.06754207611084,4.05605411529541,22.330852508544922,-0.11617746204137802
1,990088,-42.412410736083984,1.7084158658981323,-40.111263275146484,18.823867797851562
1,990091,19.849594116210938,16.754188537597656,-10.2260160446167,65.65873718261719
1,990092,36.555023193359375,-37.3194694519043,22.612211227416992,-27.95262908935547
1,990095,-10.784676551818848,3.3835954666137695,-9.291049003601074,-121.54718780517578
1,990096,-13.283626556396484,27.057897567749023,19.356494903564453,28.986526489257812
1,990099,-42.345760345458984,-24.224910736083984,9.542474746704102,34.63819885253906
1,990100,38.11793899536133,-1.5819255113601685,-30.204145431518555,-31.42019271850586
1,990103,26.95342254638672,-12.60556411743164,23.163949966430664,11.131536483764648
1,990104,-49.95966339111328,-6.697356224060059,9.975235939025879,34.42583084106445
1,990107,59.2045783996582,24.584794998168945,-16.396188735961914,49.55097579956055
1,990108,24.936004638671875,8.935770988464355,28.65064239501953,-7.598335266113281
1,990111,-59.90340805053711,5.855213165283203,-11.70638656616211,-78.12461853027344
1,990112,-36.80982971191406,8.82186222076416,-27.2336483001709,-11.698601722717285
1,990115,2.305539608001709,-18.822832107543945,25.87456703186035,64.3915023803711
1,990116,44.326717376708984,-31.667417526245117,-12.812444686889648,9.87654972076416
1,990119,16.14748764038086,41.797183990478516,-16.55815887451172,-39.89748764038086
1,990120,-26.118104934692383,21.55906867980957,42.338016510009766,-33.90475845336914
1,990123,-1.6088910102844238,-49.071380615234375,8.276710510253906,2.5249757766723633
1,990124,-3.1525917053222656,-3.420734167098999,-34.87892150878906,27.89556884765625
1,990127,-3.5411038398742676,13.117176055908203,8.173100471496582,70.65464782714844
1,990128,9.254593849182129,21.6693172454834,20.99411964416504,69.7186050415039
1,990131,-8.946769714355469,13.020550727844238,-28.69040298461914,-146.20193481445312
1,990132,12.780708312988281,-43.493438720703125,-29.612812042236328,-96.35383605957031
1,990135,9.535632133483887,1.4303914308547974,23.917221069335938,107.69348907470703
1,990136,-5.8300042152404785,6.676260471343994,26.456092834472656,10.09776782989502
1,990139,16.57089614868164,-3.550281286239624,-26.734493255615234,27.440258026123047
1,990140,-2.4372544288635254,22.33883285522461,-1.5246226787567139,19.60796356201172
1,990143,-17.29874610900879,-29.582134246826172,30.251964569091797,-90.19688415527344
1,990144,-0.6458159685134888,-8.219476699829102,-34.53706359863281,-2.490333080291748
1,990147,-21.98463249206543,21.727188110351562,-4.789253234863281,29.48760223388672
1,990148,12.559380531311035,3.324044942855835,21.360118865966797,-28.177827835083008
1,990151,34.10569381713867,27.20340347290039,-13.168960571289062,6.5543975830078125
1,990152,-14.7771577835083,-4.728945255279541,13.070113182067871,34.288734436035156
1,990155,-33.277381896972656,-45.53139877319336,-24.165271759033203,18.003568649291992
1,990156,20.44316291809082,23.293472290039062,-20.579959869384766,36.832000732421875
1,990159,16.840133666992188,21.436580657958984,59.54586410522461,-14.060486793518066
1,990160,-22.367855072021484,-8.463936805725098,30.050601959228516,-41.71627426147461
1,990163,15.718517303466797,-5.262623310089111,-43.528446197509766,-55.68842697143555
1,990164,-25.50898551940918,-24.006948471069336,-15.811793327331543,-42.001609802246094
1,990167,-7.24519157409668,30.534456253051758,23.510263442993164,111.6081314086914
1,990168,15.474284172058105,28.13840675354004,9.075141906738281,50.917049407958984
1,990171,-13.067852973937988,-52.209598541259766,7.8384175300598145,-59.46860122680664
1,990172,36.95523452758789,-32.778324127197266,-17.5628719329834,-26.815410614013672
1,990175,-3.9637818336486816,31.663467407226562,-35.310890197753906,-1.6902263164520264
1,990176,-32.61625289916992,11.495847702026367,1.2346303462982178,20.946134567260742
1,990179,21.029508590698242,-2.3901360034942627,10.15185546875,-6.590317249298096
1,990180,3.1015849113464355,14.137918472290039,-4.739810466766357,21.721059799194336
1,990183,-11.399691581726074,-2.507542848587036,2.9830455780029297,5.607924938201904
1,990184,6.415715217590332,-31.0770206451416,-24.58088493347168,-22.611902236938477
1,990187,15.857065200805664,14.06031608581543,14.465126037597656,45.506656646728516
1,990189,3.719202756881714,20.137733459472656,51.84551239013672,-22.235000610351562
1,990444,-18.326480865478516,-21.563053131103516,-19.01190757751465,-23.905517578125
1,990445,22.950389862060547,28.234487533569336,-9.240694999694824,17.37029457092285
1,990448,-0.8644829988479614,-1.8928025960922241,1.1930195093154907,-38.52510070800781
1,990449,-64.23983001708984,-54.551734924316406,12.637728691101074,-9.195199966430664
1,990452,19.58160400390625,85.69976043701172,78.08080291748047,4.573981761932373
1,990453,52.646690368652344,43.066795349121094,-37.701148986816406,2.6738507747650146
1,991848,-32.353599548339844,-134.1973114013672,-122.98918914794922,56.59345626831055
1,991849,12.279318809509277,-21.31499481201172,35.382720947265625,95.05244445800781
1,991850,40.642295837402344,30.709726333618164,41.895389556884766,-33.19486999511719
1,991853,-43.96698760986328,20.13707733154297,-32.05463790893555,-148.45880126953125
1,991854,-26.88623809814453,26.204721450805664,29.013437271118164,-54.55994415283203
1,991857,-0.6994602084159851,-24.390600204467773,20.964786529541016,52.44401550292969
1,991858,-8.480352401733398,15.398921966552734,-45.420433044433594,35.12694549560547
1,991861,17.53719711303711,-4.243579387664795,-25.81499481201172,37.526485443115234
1,991862,12.23256778717041,-14.548882484436035,26.231077194213867,37.566829681396484
1,991865,11.854178428649902,9.76360034942627,24.660991668701172,-67.30876159667969
1,991866,-14.779397010803223,9.637735366821289,5.403275012969971,-53.148948669433594
1,991869,-30.274030685424805,22.941871643066406,8.711766242980957,38.65119171142578
1,991870,21.937774658203125,-36.535499572753906,-7.231469631195068,19.252376556396484
1,991873,30.043136596679688,-0.7392257452011108,-23.42375373840332,-4.669789791107178
1,991874,-0.8987863659858704,39.974517822265625,2.1564364433288574,12.637088775634766
1,991877,-4.170213222503662,-31.362266540527344,8.639688491821289,18.093036651611328
1,991878,-5.813207149505615,2.0366480350494385,10.799962043762207,19.137588500976562
1,991881,-34.749874114990234,-4.788564205169678,-24.432857513427734,-1.7379169464111328
1,991882,2.2495369911193848,-13.578568458557129,3.742297887802124,-20.854135513305664
1,991885,41.64043045043945,36.60516357421875,53.658424377441406,-39.770816802978516
1,991886,-13.352280616760254,-44.30508041381836,-44.101810455322266,0.4460400342941284
1,991889,-21.782955169677734,-7.714835166931152,-45.06476974487305,52.79903793334961
1,991890,8.633999824523926,39.47959899902344,38.05442428588867,4.036855697631836
1,991893,29.45505142211914,-7.057129859924316,18.288877487182617,-31.01542091369629
1,991894,14.794598579406738,26.72163963317871,-9.665297508239746,-14.179417610168457
1,991897,-30.920663833618164,-20.33033561706543,-1.9920920133590698,28.664813995361328
1,991898,-8.640806198120117,-27.192895889282227,3.9048726558685303,60.40129470825195
1,991901,13.822659492492676,20.784860610961914,-16.553802490234375,-43.53777313232422
1,991902,-5.452957630157471,15.468384742736816,-22.94721794128418,-83.24166870117188
1,991905,2.2642836570739746,-0.9866601228713989,21.02921485900879,-4.083380222320557
1,991906,-9.790904998779297,-24.599475860595703,28.898815155029297,19.145986557006836
1,991909,-33.35397720336914,17.83421516418457,-15.273030281066895,38.054893493652344
1,991910,37.08332443237305,28.94074249267578,7.695247173309326,-11.228857040405273
1,991913,15.275161743164062,-35.28540802001953,26.26260757446289,-4.911196708679199
1,991914,-31.602638244628906,-22.88279914855957,-21.88442611694336,26.836889266967773
1,991917,24.095287322998047,28.75459098815918,-15.46814250946045,-17.666950225830078
1,991918,-2.659217357635498,-11.44812297821045,2.8903605937957764,-5.857158184051514
1,991921,-11.08558464050293,-39.68974685668945,-7.478450298309326,36.40715408325195
1,991922,25.390464782714844,45.86574935913086,23.366592407226562,62.05672836303711
1,991925,-15.629175186157227,31.859519958496094,16.904380798339844,-22.056312561035156
1,991926,-7.313058376312256,-34.86513137817383,-19.37147331237793,-92.4994888305664
1,991929,50.53689193725586,-16.603981018066406,-1.3735084533691406,-46.929771423339844
1,991930,-35.61840057373047,7.768847942352295,-6.567032337188721,6.449302673339844
1,991933,-47.46133804321289,44.76845932006836,1.8369388580322266,62.43361282348633
1,991934,61.36275100708008,-35.90595626831055,3.883073568344116,64.03582000732422
1,991937,-5.4801740646362305,-61.578311920166016,-36.36184310913086,-37.99479293823242
1,991938,-41.25532531738281,50.967979431152344,-13.839778900146484,-107.81880187988281
1,991941,30.38382339477539,45.9798583984375,57.5806770324707,20.56365966796875
1,991942,-17.247146606445312,-13.470489501953125,30.453022003173828,180.9451904296875
1,991945,1.554329514503479,-28.856687545776367,-53.54395294189453,40.00289535522461
1,991946,30.168489456176758,-4.782664775848389,-32.4973258972168,-155.6110382080078
1,991949,-20.51358985900879,14.410699844360352,38.14365768432617,-90.1413345336914
1,991950,-12.997092247009277,11.29527759552002,6.942613124847412,34.800697326660156
1,991953,-27.4218692779541,-12.631119728088379,-50.85681915283203,65.0120849609375
1,991954,2.7260475158691406,11.530421257019043,49.76398849487305,8.584159851074219
1,991957,20.694902420043945,6.843456268310547,38.45641326904297,-15.177854537963867
1,991958,8.790763854980469,-32.117794036865234,-48.42379379272461,7.909461498260498
1,991961,5.665446758270264,22.627527236938477,0.3960590362548828,-22.09446907043457
1,991962,-4.574617385864258,17.819150924682617,3.85088849067688,-10.520331382751465
1,991965,10.251984596252441,-20.590858459472656,17.432823181152344,26.685346603393555
1,991966,-14.630322456359863,-16.797637939453125,0.7957562208175659,1.5682942867279053
1,991969,-2.7944681644439697,1.797621250152588,-21.52783966064453,25.210634231567383
1,991970,35.7628173828125,2.7455222606658936,11.615031242370605,24.967937469482422
1,991973,29.32201385498047,8.817394256591797,-0.19541123509407043,-45.772647857666016
1,991974,-21.48701286315918,22.48006820678711,-3.5551531314849854,-17.082691192626953
1,991977,-54.731327056884766,-23.816438674926758,-8.720783233642578,18.52157974243164
1,991978,3.2693095207214355,-21.6310977935791,-6.627183437347412,-41.34001159667969
1,991981,36.292213439941406,15.998351097106934,16.321548461914062,-2.4325597286224365
1,991982,7.1888747215271,9.875353813171387,7.490779399871826,41.26462936401367
1,991985,-16.29511260986328,-26.452516555786133,-25.10915184020996,-48.96678161621094
1,991986,-21.199230194091797,-2.3213958740234375,-8.390385627746582,-20.812318801879883
1,991989,-1.8986866474151611,39.988548278808594,24.116111755371094,122.96979522705078
1,991990,9.518858909606934,-0.677446186542511,-5.113873481750488,48.94649887084961
1,991993,-12.619669914245605,-11.900487899780273,-13.85025405883789,-107.2431869506836
1,991994,-15.058473587036133,-9.660595893859863,15.064831733703613,-17.05134391784668
1,991997,31.969371795654297,-34.661746978759766,0.9809086322784424,-9.788677215576172
1,991998,26.19556427001953,16.834320068359375,8.171635627746582,-28.835649490356445
1,992001,-9.00145149230957,57.92230224609375,22.806072235107422,78.21559143066406
1,992002,-11.23929214477539,-11.11123275756836,-37.71592330932617,-3.4731221199035645
1,992005,-14.126371383666992,-16.94484519958496,-10.386926651000977,-47.67349624633789
1,992006,7.169203281402588,13.008944511413574,34.39378356933594,11.160470008850098
1,992009,3.590826988220215,-26.90876007080078,-20.477880477905273,8.34306812286377
1,992010,-23.369525909423828,6.501439094543457,-12.688268661499023,18.017942428588867
1,992013,13.149486541748047,34.52037048339844,13.357014656066895,-3.6718273162841797
1,992014,10.226099967956543,-26.51982307434082,-1.3621481657028198,18.613521575927734
1,992017,1.147518515586853,-12.015037536621094,-7.435434341430664,3.0304601192474365
1,992018,29.0360107421875,2.252908706665039,4.043578624725342,-70.76262664794922
1,992021,-21.268096923828125,-39.23958969116211,19.69014549255371,7.240303993225098
1,992022,-28.226226806640625,6.737523555755615,-21.675851821899414,21.915878295898438
1,992025,12.80424976348877,43.10561752319336,-7.769006729125977,34.18571472167969
1,992027,17.82684898376465,-12.125531196594238,24.71120834350586,40.12626647949219
1,992029,-3.2513082027435303,-34.16190719604492,-23.913850784301758,-44.45969772338867
1,992031,-18.400789260864258,19.7590389251709,1.9424000978469849,-23.178421020507812
1,992033,9.187211990356445,31.187397003173828,32.71692657470703,-52.28730010986328
1,992035,4.399274826049805,-27.03703498840332,-13.722466468811035,6.102870941162109
1,992037,-14.949544906616211,-6.3587646484375,-0.19449487328529358,66.32352447509766
1,992039,0.05003485456109047,37.91676330566406,30.603437423706055,6.129079818725586
1,992041,13.387776374816895,4.272401809692383,-40.470924377441406,12.921554565429688
1,992043,2.893548011779785,-19.40104866027832,-51.6287727355957,-32.304622650146484
1,992045,-10.828535079956055,-1.8443397283554077,57.589054107666016,-38.590328216552734
1,992047,20.107250213623047,12.705795288085938,59.75425720214844,26.467208862304688
1,992049,-5.066080093383789,-19.60490608215332,-48.450321197509766,22.695661544799805
1,992051,-19.396175384521484,-15.756543159484863,-32.46088790893555,-0.18921348452568054
1,992053,35.49718475341797,37.705909729003906,43.03611755371094,-2.4350192546844482
1,992055,-2.7224538326263428,35.52748107910156,7.456554889678955,15.87463665008545
1,992057,-25.701313018798828,-18.856611251831055,-31.001943588256836,-9.747075080871582
1,992059,-3.7104990482330322,-24.466907501220703,-12.455376625061035,-36.91666793823242
1,992062,13.145294189453125,-11.775981903076172,15.244175910949707,31.087820053100586
1,992063,11.609219551086426,-6.040528774261475,20.750314712524414,8.89965534210205
1,992064,-13.468949317932129,30.67904281616211,-13.710926055908203,-43.06382369995117
1,992067,-17.984636306762695,-14.56834888458252,-36.22772216796875,15.28585147857666
1,992068,-13.88970947265625,-29.63456153869629,16.952899932861328,24.575538635253906
1,992071,13.134207725524902,18.75743293762207,5.713674068450928,-26.062576293945312
1,992072,15.086992263793945,-2.8172497749328613,-28.362680435180664,-17.056095123291016
1,992078,1.4986131191253662,-8.618240356445312,29.86499786376953,16.72731590270996
1,992078,-3.139563798904419,22.119199752807617,20.98214340209961,-4.227644443511963
1,992079,-0.20898643136024475,-7.59506368637085,-12.78976058959961,11.803628921508789
1,992080,0.12884147465229034,-13.397948265075684,-12.73060131072998,38.785762786865234
1,992083,-29.18369483947754,-5.45245361328125,-14.88768196105957,-0.9849821925163269
1,992084,12.880480766296387,-11.841169357299805,8.809574127197266,-14.577788352966309
1,992087,29.26384735107422,47.698219299316406,42.114967346191406,-24.166400909423828
1,992088,-26.759511947631836,-6.3067216873168945,-0.2510940134525299,-4.002086639404297
1,992091,13.550951957702637,-6.011748313903809,-22.223876953125,-4.559477806091309
1,992092,35.28185272216797,54.68339538574219,12.469367027282715,-26.339139938354492
1,992095,30.6201114654541,-66.23770904541016,-46.71196365356445,-114.77831268310547
1,992096,-6.338613986968994,-7.22899055480957,10.369680404663086,58.439697265625
1,992099,-59.097713470458984,81.46621704101562,62.0510368347168,252.92819213867188
1,992100,-20.54273223876953,-59.91504669189453,-49.788333892822266,-77.16361999511719
1,992103,9.285382270812988,-42.40549087524414,-14.946147918701172,-99.8082504272461
1,992104,6.420957565307617,29.57893180847168,12.331022262573242,12.619824409484863
1,992107,-7.922195911407471,13.581042289733887,1.0928606986999512,-43.47054672241211
1,992108,7.836941719055176,22.61614990234375,13.452176094055176,54.287864685058594
1,992111,-11.76216983795166,-35.99254608154297,-19.912919998168945,43.64851379394531
1,992112,6.695948600769043,-28.648073196411133,4.28788423538208,-15.972305297851562
1,992115,27.37896156311035,40.825618743896484,10.335287094116211,17.187265396118164
1,992116,-21.378599166870117,-10.146163940429688,15.857057571411133,10.15939998626709
1,992119,-14.267687797546387,-7.599613189697266,17.264856338500977,-68.5725326538086
1,992120,-3.7166900634765625,39.376380920410156,-33.41891860961914,-46.55580520629883
1,992123,23.285728454589844,-32.220394134521484,-15.690043449401855,53.371768951416016
1,992124,27.00497817993164,-15.323424339294434,25.86355209350586,40.04477310180664
1,992127,-11.1264009475708,41.197120666503906,-5.156385898590088,-53.278564453125
1,992128,-21.6131649017334,-20.40499496459961,-39.3919792175293,-19.746095657348633
1,992131,2.6336982250213623,-21.1031494140625,10.657987594604492,45.657630920410156
1,992132,8.879817008972168,31.220481872558594,28.02402687072754,-13.357734680175781
1,992135,6.924396514892578,-12.597389221191406,-0.11096018552780151,16.18732261657715
1,992136,-19.376819610595703,-37.159549713134766,9.072205543518066,32.866119384765625
1,992139,-32.48053741455078,48.84579849243164,-9.983736038208008,-75.63224792480469
1,992140,9.896906852722168,30.65659523010254,-4.219232559204102,-36.15607833862305
1,992143,17.785741806030273,-47.36116027832031,18.87470054626465,61.00776672363281
1,992144,41.4188117980957,53.51765823364258,32.049259185791016,15.922657012939453
1,992147,-9.133397102355957,8.544689178466797,-21.803556442260742,-25.171144485473633
1,992148,-61.44667053222656,-101.70032501220703,-55.32775115966797,11.867080688476562
1,992151,23.63498878479004,17.015804290771484,26.062143325805664,21.196496963500977
1,992152,39.50444030761719,36.540584564208984,14.423787117004395,-1.1760566234588623
1,992155,-23.95368194580078,-10.275382995605469,-16.98938751220703,-7.9301252365112305
1,992156,-9.574708938598633,-0.7050876617431641,4.963446617126465,13.511521339416504
1,992159,7.544943332672119,-8.812047958374023,-39.752445220947266,-14.94091796875
1,992160,4.198322772979736,-18.38995933532715,-4.50623083114624,-28.35469627380371
1,992163,30.955799102783203,14.313279151916504,54.06355667114258,4.805242538452148
1,992164,-21.94606590270996,34.025733947753906,-38.01991271972656,6.326849460601807
1,992167,-25.453760147094727,12.614109992980957,-4.356692314147949,10.193803787231445
1,992168,32.264495849609375,-4.891638278961182,76.61136627197266,-2.3481101989746094
1,992171,-7.973586082458496,-26.652803421020508,-12.169509887695312,24.161537170410156
1,992172,-60.133872985839844,-2.5422589778900146,-32.36281967163086,22.30986976623535
1,992175,5.820342063903809,-0.6289529800415039,0.9197050929069519,-54.91647720336914
1,992176,94.38824462890625,-21.655471801757812,22.533170700073242,-13.417768478393555
1,992179,41.88726806640625,16.48721694946289,15.081928253173828,43.20330047607422
1,992180,-41.2205696105957,45.091060638427734,-16.14682960510254,3.952958822250366
1,992183,-83.04503631591797,7.528528213500977,-18.593852996826172,-26.046344757080078
1,992184,-59.089664459228516,-52.31841278076172,-32.04615020751953,-49.4105110168457
1,992187,30.25309181213379,-29.35022735595703,-44.010986328125,-5.624795913696289
1,992188,26.35274314880371,17.37635612487793,-37.049217224121094,41.963653564453125
1,992191,69.73224639892578,30.978681564331055,87.74056243896484,47.248470306396484
1,992192,78.72998809814453,25.49350357055664,81.91017150878906,32.69248580932617
1,992195,-89.95719909667969,-11.765201568603516,-36.89698791503906,-27.121601104736328
1,992196,-36.980411529541016,-28.17612648010254,11.742055892944336,-23.62663459777832
1,992199,59.99150466918945,-8.13364028930664,-2.209242582321167,-47.93778991699219
1,992200,-20.719913482666016,13.539385795593262,-25.786415100097656,-14.13049030303955
1,992203,-12.853292465209961,2.2134060859680176,0.026211760938167572,69.64616394042969
1,992204,-0.526685357093811,-1.2085453271865845,5.059887886047363,-25.25291633605957
1,992207,-87.5334701538086,-20.952573776245117,-16.245351791381836,-37.13206100463867
1,992208,-18.741050720214844,-28.082733154296875,-52.820465087890625,44.16682815551758
1,992211,116.45763397216797,43.407508850097656,-20.437427520751953,22.92037010192871
1,992212,62.05260467529297,27.723203659057617,28.410083770751953,18.33098602294922
1,992215,-99.74913787841797,-17.440582275390625,60.601829528808594,-23.767250061035156
1,992216,-129.2547607421875,9.191115379333496,44.014183044433594,-72.7247314453125
1,992219,87.31895446777344,-1.3321611881256104,2.068700075149536,3.7370378971099854
1,992220,122.75212097167969,-6.572866439819336,-11.401880264282227,86.41275024414062
