Aktueller Finger,timestamp_ms,sensor_0,sensor_1,sensor_2,sensor_3
0,583090,17.302370071411133,13.029579162597656,-3.1225812435150146,37.76585388183594
0,583091,-75.36675262451172,-29.78582000732422,-32.76346969604492,-3.957770824432373
0,583094,14.621251106262207,-48.8775634765625,-28.367977142333984,-32.8889045715332
0,583095,39.947059631347656,-8.193020820617676,6.9324774742126465,-18.223752975463867
0,583098,-20.2034912109375,34.344486236572266,8.558221817016602,65.14138793945312
0,583099,1.4746344089508057,22.49128532409668,-1.098665475845337,13.0703706741333
0,583102,-15.411121368408203,-9.138703346252441,13.055876731872559,-66.13136291503906
0,583103,-16.93297004699707,-14.142267227172852,-7.6431803703308105,5.909796714782715
0,583112,18.028409957885742,1.3127111196517944,-0.4659653604030609,24.711652755737305
0,583113,8.349966049194336,42.05934524536133,10.555248260498047,2.407292604446411
0,583113,-5.422150135040283,3.3486690521240234,-17.13643455505371,10.685643196105957
0,583113,0.06629416346549988,-58.64118957519531,8.897089958190918,1.111868143081665
0,583114,3.8998093605041504,4.420958042144775,12.31132698059082,-13.474044799804688
0,583116,9.384182929992676,0.859854519367218,-21.124887466430664,-48.409278869628906
0,583118,-8.467890739440918,-17.799209594726562,-4.726113796234131,24.49817657470703
0,583120,-7.8845062255859375,39.87453079223633,-0.5005435347557068,45.90818405151367
0,583122,0.04262034222483635,5.636623382568359,13.375125885009766,-17.377891540527344
0,583124,-0.8212616443634033,-11.44937515258789,27.156068801879883,11.990198135375977
0,583126,10.962356567382812,10.571198463439941,-5.321845054626465,-15.424986839294434
0,583128,-18.591535568237305,-12.142698287963867,7.394191265106201,-24.770265579223633
0,583130,-10.749739646911621,-2.349888563156128,0.36766818165779114,22.245708465576172
0,583132,34.0425910949707,9.229093551635742,-37.730587005615234,-7.7941107749938965
0,583134,3.5583651065826416,-15.491239547729492,-0.011459875851869583,-13.6239652633667
0,583136,-7.389697074890137,-1.5305683612823486,0.29323846101760864,17.085487365722656
0,583158,7.985381603240967,19.706584930419922,1.0503371953964233,8.793699264526367
0,583158,-6.924571514129639,-15.61915397644043,4.944798469543457,-13.314273834228516
0,583158,-10.399657249450684,0.4139555096626282,-16.282991409301758,3.1633834838867188
0,583158,9.605494499206543,18.289697647094727,20.72515106201172,4.958730697631836
0,583158,10.41037654876709,-20.295757293701172,-1.233717918395996,-5.723874092102051
0,583159,-13.824353218078613,-13.331637382507324,-29.13190460205078,10.849074363708496
0,583159,-9.419953346252441,13.482062339782715,19.88604164123535,13.092713356018066
0,583159,-3.5152480602264404,10.971445083618164,35.6306266784668,0.6459155082702637
0,583159,-0.8812748789787292,12.290689468383789,-0.8411568999290466,-28.943307876586914
0,583159,12.862214088439941,-4.452680587768555,-16.537567138671875,-4.804689407348633
0,583160,-19.628238677978516,-29.325651168823242,-11.499017715454102,36.17536926269531
0,583161,-24.92751121520996,17.590248107910156,0.17293842136859894,-13.107887268066406
0,583162,35.34148025512695,29.1928653717041,26.32502555847168,-21.430025100708008
0,583164,13.234637260437012,-23.72368621826172,6.508135795593262,8.078832626342773
0,583166,-16.17882537841797,-8.812926292419434,-13.319388389587402,2.4414594173431396
0,583168,22.472797393798828,14.823110580444336,3.6453664302825928,15.217230796813965
0,583170,1.398311972618103,-17.912384033203125,-13.320280075073242,-10.022873878479004
0,583172,-22.184261322021484,-18.049774169921875,-30.685405731201172,-66.38069915771484
0,583174,22.831750869750977,14.554817199707031,15.714378356933594,7.054753303527832
0,583176,8.673399925231934,7.811906814575195,18.954744338989258,74.2654037475586
0,583178,-36.17338562011719,-1.5362597703933716,-33.57762908935547,-5.23080587387085
0,583180,-4.842139720916748,11.602540016174316,-5.72819185256958,-24.423439025878906
0,583182,25.17383575439453,2.4585421085357666,30.56649398803711,2.099318504333496
0,583184,15.787823677062988,1.8257250785827637,25.09041976928711,-12.542182922363281
0,583297,37.04747772216797,13.961023330688477,-16.386343002319336,-13.35942268371582
0,583298,28.140949249267578,-35.42781066894531,-39.578426361083984,19.047441482543945
0,583298,-39.34935760498047,-27.628828048706055,16.493623733520508,-6.850430965423584
0,583298,-17.17266845703125,43.55109405517578,10.932642936706543,-12.696125030517578
0,583298,12.226544380187988,23.6218204498291,4.5547404289245605,-11.610079765319824
0,583298,10.256178855895996,-34.371097564697266,9.67066478729248,-13.281688690185547
0,583298,-7.3311991691589355,-16.917560577392578,-11.972725868225098,8.582193374633789
0,583299,-8.752469062805176,20.906694412231445,-15.268267631530762,-6.4048662185668945
0,583299,9.693018913269043,7.352731704711914,-12.134307861328125,-9.453411102294922
0,583299,4.128590106964111,-11.441150665283203,12.899675369262695,17.728668212890625
0,583299,-3.265751600265503,15.540555953979492,20.648406982421875,19.044315338134766
0,583299,-12.176507949829102,14.739485740661621,15.372469902038574,4.509720802307129
0,583299,-1.9990830421447754,-12.80888843536377,1.311816930770874,-9.75916862487793
0,583300,1.839860200881958,-14.95191478729248,-12.011879920959473,-0.7943852543830872
0,583300,3.9619719982147217,-7.718019008636475,-16.133573532104492,-3.3896243572235107
0,583300,8.144457817077637,2.71584415435791,-13.351494789123535,-3.7423453330993652
0,583300,-7.528110504150391,-0.44069594144821167,11.283414840698242,-4.349574565887451
0,583300,11.633013725280762,10.967226028442383,13.893383026123047,-18.251964569091797
0,583301,-5.7353339195251465,-14.385149955749512,-10.935484886169434,8.538801193237305
0,583301,-29.555395126342773,-28.584501266479492,1.5360915660858154,22.456586837768555
0,583301,12.590928077697754,17.9564208984375,13.121196746826172,-7.457321643829346
0,583301,20.337995529174805,36.4715690612793,-7.1968092918396,-25.640785217285156
0,583301,-2.704463005065918,8.763312339782715,-3.3983407020568848,11.274357795715332
0,583301,1.751172661781311,-24.648515701293945,3.9883227348327637,41.04840850830078
0,583303,-16.49773406982422,-8.360114097595215,5.766077995300293,34.578433990478516
0,583303,-14.159980773925781,9.041812896728516,-6.386646270751953,8.490595817565918
0,583304,13.762889862060547,0.8237611651420593,-7.591903209686279,-42.54777526855469
0,583305,12.203597068786621,7.282285690307617,26.458581924438477,-12.921964645385742
0,583308,6.695173263549805,9.823121070861816,12.323509216308594,61.431827545166016
0,583309,6.502243995666504,-11.730563163757324,-15.050275802612305,14.46527099609375
0,583312,-0.6823611259460449,-30.088035583496094,-23.713685989379883,-78.30445861816406
0,583313,-12.516411781311035,-16.790292739868164,-31.08318519592285,-63.10675048828125
0,583316,3.792635679244995,26.52391242980957,9.955230712890625,10.435384750366211
0,583318,-5.525271892547607,29.729188919067383,36.02286911010742,48.47969436645508
0,583320,8.513089179992676,2.341564893722534,-5.7774786949157715,-10.41878604888916
0,583322,11.140039443969727,-5.6162309646606445,-28.877676010131836,-41.80712890625
0,583324,-25.8431339263916,-14.111351013183594,9.673677444458008,39.438629150390625
0,583326,12.877634048461914,16.69670295715332,31.93767547607422,52.25864028930664
0,583329,4.894880771636963,-3.0953738689422607,-8.573505401611328,1.4486596584320068
0,583385,-16.047332763671875,-22.49266815185547,-14.532962799072266,-37.64603042602539
0,583385,9.571380615234375,16.51569366455078,13.710189819335938,-5.566401481628418
0,583386,-13.171818733215332,-6.399267673492432,-2.2733662128448486,51.611576080322266
0,583386,-26.516307830810547,3.796375036239624,5.752984523773193,-7.414210796356201
0,583386,9.516467094421387,12.427400588989258,10.294303894042969,-29.008052825927734
0,583386,39.531490325927734,-19.439956665039062,-8.085616111755371,-3.4931633472442627
0,583386,16.395496368408203,-16.867778778076172,-25.5225887298584,-1.676999568939209
0,583387,-24.53640365600586,0.737027108669281,-10.908406257629395,6.9126715660095215
0,583387,0.8917699456214905,19.666484832763672,26.91480255126953,-18.52391815185547
0,583387,19.588455200195312,-5.086955547332764,1.403903841972351,-15.089069366455078
0,583387,-21.512601852416992,-17.853633880615234,-11.47842025756836,11.267802238464355
0,583387,-20.54129409790039,30.778175354003906,15.325233459472656,15.300426483154297
0,583387,4.935591697692871,16.956918716430664,9.488829612731934,10.714483261108398
0,583388,13.122304916381836,-18.926698684692383,-22.96841812133789,-14.614623069763184
0,583388,3.4790217876434326,-5.200498580932617,-8.695982933044434,-24.397140502929688
0,583388,-1.4642574787139893,-0.9002875089645386,22.754167556762695,6.08140230178833
0,583388,-1.3220534324645996,6.019742965698242,-11.064488410949707,0.33411476016044617
0,583388,-15.709705352783203,-13.117021560668945,-15.506207466125488,-33.97744369506836
0,583388,-8.456649780273438,-21.321271896362305,18.289371490478516,19.346288681030273
0,583389,12.020157814025879,30.164142608642578,-21.248193740844727,30.289758682250977
0,583389,16.683368682861328,22.163311004638672,-7.230504035949707,-34.39016342163086
0,583389,3.727001667022705,-21.27829933166504,41.14988327026367,7.97017765045166
0,583389,-16.586578369140625,1.5202686786651611,-3.1867001056671143,32.57079315185547
0,583389,-2.126709222793579,16.277286529541016,-6.364839553833008,-8.565032005310059
0,583389,31.064363479614258,-12.581585884094238,11.888625144958496,-7.304625511169434
0,583390,-2.51633882522583,-21.192420959472656,-12.932478904724121,7.358811378479004
0,583390,-11.088923454284668,14.732404708862305,-15.673739433288574,-1.999395728111267
0,583390,5.281112194061279,-2.9293456077575684,9.463302612304688,2.9347915649414062
0,583390,-11.26821231842041,-9.291419982910156,15.07032299041748,16.516881942749023
0,583391,2.1085774898529053,24.45783042907715,-16.13264274597168,-23.74638557434082
0,583392,-2.28716778755188,-35.74619674682617,-25.511472702026367,-25.638944625854492
0,583392,-14.583579063415527,-17.456544876098633,2.350562334060669,29.3725528717041
0,583395,14.305037498474121,38.1727294921875,16.469358444213867,12.106898307800293
0,583396,18.46885871887207,-2.1453628540039062,8.537997245788574,0.7837889790534973
0,583399,-12.69063663482666,2.1720030307769775,-9.333444595336914,52.807640075683594
0,583400,-7.167086124420166,-14.05659008026123,3.5105931758880615,2.81662917137146
0,583403,4.961636543273926,10.734996795654297,24.97276496887207,-59.67911911010742
0,583404,-15.616690635681152,39.25141525268555,3.951352834701538,-12.739823341369629
0,583407,-13.271156311035156,-39.939735412597656,-10.420111656188965,10.524190902709961
0,583408,12.577847480773926,16.9194278717041,12.805928230285645,8.789799690246582
0,583411,15.33149528503418,29.320049285888672,5.009800910949707,-3.458592653274536
0,583412,15.703594207763672,-50.874263763427734,-32.0506706237793,-14.411416053771973
0,583413,-3.6072661876678467,-15.867803573608398,-9.997808456420898,4.826255798339844
0,583416,-26.400190353393555,16.37912940979004,6.178877353668213,-5.365991115570068
0,583417,6.706676006317139,8.71724796295166,7.142911434173584,-10.639877319335938
0,583420,7.972263336181641,-19.260427474975586,-1.8543667793273926,5.8500189781188965
0,583421,-17.453317642211914,8.614911079406738,-17.98457145690918,19.38627052307129
0,583492,1.4055111408233643,19.491470336914062,-0.11598671972751617,51.012489318847656
0,583492,9.909445762634277,-7.991495609283447,13.622496604919434,17.207874298095703
0,583493,0.8904188871383667,-9.945027351379395,3.3630409240722656,-42.76905059814453
0,583493,-1.418487787246704,7.519407749176025,-3.0647990703582764,-9.27027702331543
0,583493,-4.3277106285095215,40.100215911865234,22.28662872314453,-6.003177642822266
0,583493,2.4850447177886963,-21.14435386657715,1.0519739389419556,-10.06310749053955
0,583493,22.246267318725586,-40.93619918823242,-23.61936378479004,-19.747547149658203
0,583494,-12.556676864624023,20.6966609954834,-6.863468647003174,-45.542205810546875
0,583494,-29.89200210571289,21.626264572143555,0.9234911799430847,30.847713470458984
0,583494,28.786325454711914,-10.061952590942383,10.372411727905273,31.279781341552734
0,583494,28.20401954650879,4.33932638168335,-7.123100280761719,-55.578060150146484
0,583494,-18.712621688842773,7.965824604034424,-17.24237632751465,-31.41364097595215
0,583494,-20.711820602416992,-38.959774017333984,21.67413902282715,34.254920959472656
0,583495,5.658565998077393,-8.606048583984375,-0.08233046531677246,1.983954668045044
0,583495,9.185112953186035,25.125743865966797,-28.79273223876953,-11.63092041015625
0,583495,-18.823257446289062,2.827430009841919,29.82345962524414,38.32416915893555
0,583495,0.6988062858581543,4.023997783660889,27.319997787475586,10.172557830810547
0,583495,17.324005126953125,-11.78445816040039,-7.8687920570373535,-3.392054319381714
0,583495,-14.117634773254395,-7.127710819244385,-4.294045925140381,5.693440914154053
0,583496,-0.4123031795024872,-5.061924934387207,-2.8011202812194824,-28.14778709411621
0,583496,2.187676191329956,-16.186092376708984,0.6770138740539551,3.8696160316467285
0,583496,8.212241172790527,11.881306648254395,-11.813530921936035,11.638127326965332
0,583496,13.765862464904785,6.391000270843506,-5.379018306732178,-15.470319747924805
0,583496,-19.72330665588379,1.553916335105896,14.787302017211914,38.31376647949219
0,583496,-6.752089023590088,15.08200454711914,2.5843443870544434,33.719810485839844
0,583497,-6.54930305480957,18.736867904663086,-2.774590253829956,-19.824142456054688
0,583497,0.8460887670516968,14.904250144958496,13.643050193786621,3.9773173332214355
0,583497,19.03314781188965,-10.53221607208252,-15.497062683105469,13.017374038696289
0,583497,-9.172144889831543,-16.357027053833008,-21.741016387939453,-4.20494270324707
0,583497,-8.921344757080078,-11.20011043548584,19.928184509277344,8.928349494934082
0,583497,0.2614988684654236,1.556372046470642,2.92678165435791,22.59562110900879
0,583498,16.047433853149414,10.451580047607422,-14.454379081726074,8.533209800720215
0,583498,17.34187126159668,-16.008359909057617,2.3148112297058105,-14.317828178405762
0,583498,-5.268198013305664,8.761008262634277,3.659562110900879,-13.363702774047852
0,583498,-9.892998695373535,14.986818313598633,3.8205316066741943,-7.377480983734131
0,583499,-18.200841903686523,-22.969314575195312,10.619853973388672,4.785585403442383
0,583500,-4.3220744132995605,3.7962729930877686,-6.219742774963379,-1.5363726615905762
0,583500,26.89212417602539,29.060544967651367,-1.6862246990203857,-18.41377830505371
0,583500,13.419723510742188,-2.235748052597046,-8.26079273223877,-17.463790893554688
0,583501,-20.969589233398438,-14.639236450195312,-0.8752008676528931,-18.29180908203125
0,583504,-22.86035919189453,2.202411651611328,40.2577018737793,-35.69987487792969
0,583505,10.919008255004883,16.74298858642578,0.06111399084329605,3.8034017086029053
0,583508,23.347801208496094,10.330899238586426,-23.160892486572266,74.29383087158203
0,583509,-19.012805938720703,-23.088050842285156,-9.862627029418945,-21.980369567871094
0,583512,-13.3116455078125,-44.641029357910156,-32.85984802246094,-67.89569091796875
0,583513,25.54241180419922,-12.525110244750977,9.370828628540039,36.290443420410156
0,583516,20.45246124267578,37.79796600341797,28.128097534179688,6.3318705558776855
0,583517,-14.15422248840332,17.316627502441406,-36.42551803588867,-39.82359313964844
0,583520,-32.517822265625,-20.57146644592285,8.225861549377441,37.96040725708008
0,583521,9.622762680053711,-14.307592391967773,41.20485305786133,70.45323181152344
0,583524,17.426115036010742,8.908141136169434,-9.049513816833496,-35.783851623535156
0,583525,-19.44223403930664,14.596922874450684,3.1277644634246826,-66.80238342285156
0,583528,0.04404118284583092,14.038016319274902,-23.47186851501465,93.00406646728516
0,583529,11.663872718811035,-9.421687126159668,-35.94563674926758,96.79182434082031
0,583532,2.2319865226745605,-1.3070049285888672,50.777198791503906,-124.83168029785156
0,583614,39.593475341796875,13.411922454833984,32.57915115356445,-21.337682723999023
0,583614,18.3525447845459,-24.872270584106445,-39.52520751953125,147.8657684326172
0,583614,-50.306732177734375,-2.5658512115478516,-14.625738143920898,-70.6926498413086
0,583614,-17.942832946777344,20.231348037719727,15.942865371704102,-89.03656005859375
0,583614,26.446823120117188,0.03701137751340866,4.420241832733154,32.07145309448242
0,583614,-9.508086204528809,-10.85763931274414,-7.2516961097717285,-19.422664642333984
0,583615,-27.681062698364258,-13.14292049407959,-15.157835960388184,0.9485569596290588
0,583615,9.014477729797363,14.78937816619873,6.625539302825928,34.56148147583008
0,583615,-3.1240074634552,13.37166976928711,31.20933723449707,-2.251499652862549
0,583615,-22.026931762695312,-18.051759719848633,1.5428133010864258,-24.338817596435547
0,583615,4.0762715339660645,-19.263500213623047,-26.92829132080078,5.233654499053955
0,583615,7.128550052642822,15.426756858825684,3.7427773475646973,28.001619338989258
0,583616,10.042600631713867,31.224498748779297,11.934416770935059,30.5253963470459
0,583616,10.799606323242188,-19.126937866210938,-14.869661331176758,17.106813430786133
0,583616,5.057209491729736,-13.775057792663574,4.404190540313721,-4.806578636169434
0,583616,8.487435340881348,9.809267044067383,-0.702532947063446,-22.588958740234375
0,583616,10.421382904052734,-23.403095245361328,-18.99730682373047,-53.28164291381836
0,583616,-12.822943687438965,0.6703680157661438,0.43454915285110474,-19.14806365966797
0,583617,-11.375839233398438,31.446130752563477,21.771617889404297,-6.981618404388428
0,583617,18.943103790283203,-8.25003433227539,-0.2591722011566162,-70.83899688720703
0,583617,0.3526219427585602,-12.660991668701172,-14.332319259643555,-75.27726745605469
0,583617,-22.972434997558594,26.852344512939453,20.040607452392578,-15.423447608947754
0,583617,1.451825499534607,-1.1037335395812988,-7.198670387268066,-9.291499137878418
0,583617,9.149024963378906,-21.284042358398438,-25.446104049682617,-17.891708374023438
0,583618,-20.158302307128906,-5.5674729347229,26.59208106994629,30.20976448059082
0,583618,-2.6837360858917236,-2.402085065841675,4.72066068649292,27.824155807495117
0,583618,25.287694931030273,12.74279499053955,-10.927939414978027,25.31064796447754
0,583618,0.06329797953367233,11.235259056091309,12.101578712463379,35.219539642333984
0,583618,0.8473880887031555,-5.6111040115356445,-3.4804391860961914,31.410940170288086
0,583619,11.104262351989746,-6.193217754364014,3.0945076942443848,81.44962310791016
0,583619,-30.24344253540039,8.980988502502441,9.382936477661133,61.59856033325195
0,583619,-8.922201156616211,-15.21025276184082,6.247270107269287,-21.962018966674805
0,583619,36.497013092041016,-31.170494079589844,-14.687017440795898,-24.374000549316406
0,583619,-10.417865753173828,13.925323486328125,-22.9063663482666,-6.87943172454834
0,583619,-9.256726264953613,25.911794662475586,8.013895034790039,-20.546789169311523
0,583620,30.958621978759766,0.10658922046422958,17.438648223876953,-22.17706871032715
0,583620,-9.61963176727295,6.817873954772949,-13.871883392333984,6.048279762268066
0,583620,-18.996074676513672,8.832198143005371,-4.4853129386901855,32.59049987792969
0,583620,10.863178253173828,-9.156502723693848,31.728946685791016,19.643173217773438
0,583620,-9.112388610839844,9.63037395477295,-4.106786251068115,-3.783153772354126
0,583620,-1.7947686910629272,26.923398971557617,-17.502573013305664,-10.041828155517578
0,583622,11.944098472595215,-25.87517738342285,-19.224153518676758,111.83709716796875
0,583622,-23.488515853881836,-35.085655212402344,-23.92148780822754,139.49928283691406
0,583622,-10.983919143676758,-1.5562883615493774,35.784236907958984,-56.490570068359375
0,583622,11.449661254882812,4.1918206214904785,28.94316864013672,-37.636898040771484
0,583624,37.15609359741211,41.3390007019043,-8.237396240234375,117.4139175415039
0,583626,-7.854996204376221,16.24413299560547,21.242847442626953,-132.80096435546875
0,583628,-69.54133605957031,-26.058942794799805,28.61715316772461,-291.72906494140625
0,583630,43.339691162109375,-9.818716049194336,-28.395078659057617,69.8873519897461
0,583632,27.711353302001953,0.12081541866064072,-39.536705017089844,354.7166442871094
0,583634,-28.192014694213867,-2.8108272552490234,10.455757141113281,-540.5006103515625
0,583636,47.36606979370117,-12.11823558807373,-17.560924530029297,-721.0718994140625
0,583638,28.91904640197754,3.427422285079956,-32.17267608642578,1108.65283203125
0,583640,-44.11984634399414,4.059168338775635,-16.708847045898438,743.1983032226562
0,583642,-133.7008056640625,-15.389860153198242,7.312666893005371,-772.3754272460938
0,583644,-13.001936912536621,20.328460693359375,74.41278839111328,-534.0222778320312
0,583646,162.6511688232422,23.062641143798828,24.43754768371582,-45.64863967895508
0,583648,87.87531280517578,-21.46132469177246,-49.872642517089844,309.2063293457031
0,583650,-62.70916748046875,-0.7378040552139282,81.4365463256836,582.180908203125
0,583652,-124.56913757324219,-33.112815856933594,101.49720764160156,174.0201416015625
0,583654,45.94075393676758,-33.94038009643555,-308.8776550292969,-1072.4676513671875
0,583656,84.8565902709961,68.5374755859375,-220.28424072265625,-525.0442504882812
0,583659,-118.26074981689453,20.19382667541504,315.0372619628906,1596.6275634765625
0,583753,-60.7333869934082,-45.32272720336914,258.2085266113281,253.2386474609375
0,583753,83.24263000488281,2.194448947906494,-0.11492109298706055,-1399.8330078125
0,583753,11.900300979614258,11.67824935913086,-137.12046813964844,227.61685180664062
0,583753,-17.929279327392578,17.262895584106445,-85.08991241455078,475.2343444824219
0,583753,8.485610961914062,7.229669570922852,2.759314775466919,-167.4522247314453
0,583754,-15.121572494506836,-22.181943893432617,-15.086859703063965,72.51604461669922
0,583754,13.15188217163086,8.534994125366211,34.21965408325195,7.077514171600342
0,583754,53.18510055541992,18.91562271118164,5.929119110107422,-70.57508850097656
0,583754,12.510250091552734,4.060395240783691,-43.03330612182617,-42.31888961791992
0,583754,10.113137245178223,-0.49699458479881287,-31.576171875,-20.65678596496582
0,583754,32.73358154296875,-19.017894744873047,-31.0443115234375,-35.33842849731445
0,583755,13.80742073059082,-2.6839447021484375,-36.02874755859375,18.935476303100586
0,583755,-2.878509044647217,-3.1235601902008057,-34.18870162963867,76.069580078125
0,583755,-27.818058013916016,-13.846914291381836,-10.298237800598145,25.844057083129883
0,583755,-8.658736228942871,0.3416142463684082,9.863656044006348,0.7930178046226501
0,583755,-16.80117416381836,-17.497663497924805,18.180034637451172,32.26842498779297
0,583756,-42.127098083496094,10.465200424194336,65.745849609375,17.108076095581055
0,583756,-10.197239875793457,36.231971740722656,64.86675262451172,-50.64437484741211
0,583756,-6.312074184417725,-9.740312576293945,-2.114152193069458,-64.47608947753906
0,583756,-4.559048652648926,-14.909436225891113,7.603369235992432,-24.117244720458984
0,583756,11.730684280395508,0.5935866832733154,19.693511962890625,-18.655773162841797
0,583756,-7.274500846862793,-15.478297233581543,-32.58368682861328,0.2822953164577484
0,583757,9.606432914733887,8.917810440063477,0.06559768319129944,18.87128257751465
0,583757,27.84299087524414,13.792115211486816,44.61804962158203,-8.654183387756348
0,583757,-17.629169464111328,-30.487472534179688,18.509475708007812,15.770989418029785
0,583757,-30.19755744934082,0.6898499727249146,53.51814651489258,65.35415649414062
0,583757,-9.52495288848877,26.442214965820312,50.585018157958984,24.771472930908203
0,583757,13.707415580749512,2.0518441200256348,-7.626694679260254,-12.739141464233398
0,583758,21.631799697875977,20.934253692626953,19.94761848449707,21.46880531311035
0,583758,-9.558571815490723,32.22123336791992,1.4766886234283447,9.550256729125977
0,583758,1.0264641046524048,-4.363905429840088,-41.86496353149414,-13.218794822692871
0,583758,15.10300350189209,-29.34183120727539,-46.56132125854492,30.80887222290039
0,583758,-21.117101669311523,-2.534554958343506,-49.34419250488281,57.737178802490234
0,583758,-32.31969451904297,20.64410400390625,-29.83171844482422,21.812580108642578
0,583759,-14.79893970489502,-10.16325855255127,-52.358516693115234,-2.835942506790161
0,583759,-17.10606575012207,-21.918262481689453,-42.718475341796875,-5.023195743560791
0,583759,-7.64985990524292,-1.2352826595306396,15.465082168579102,-50.2228889465332
0,583759,34.095916748046875,-26.95659828186035,0.44109874963760376,-29.422718048095703
0,583759,10.092757225036621,-22.679250717163086,-16.063940048217773,10.298432350158691
0,583759,-7.820283889770508,16.17942237854004,17.177284240722656,-31.67579460144043
0,583760,27.79142951965332,5.744634628295898,11.922536849975586,-59.613121032714844
0,583760,-1.517781376838684,0.5613469481468201,0.22455014288425446,-30.58555793762207
0,583760,-8.417101860046387,11.40211009979248,19.947860717773438,7.54973840713501
0,583760,2.4124276638031006,-7.164926528930664,17.726192474365234,1.838100552558899
0,583760,-25.709320068359375,-17.222822189331055,14.77313232421875,39.00304412841797
0,583760,14.124126434326172,36.13055419921875,12.195870399475098,20.51837730407715
0,583761,61.165306091308594,14.988134384155273,-18.716144561767578,-23.405040740966797
0,583762,101.1059799194336,-35.70640182495117,-9.901758193969727,58.882843017578125
0,583762,64.10736846923828,17.899412155151367,25.315690994262695,31.32696533203125
0,583762,-76.85767364501953,36.46580123901367,12.876910209655762,-53.046966552734375
0,583762,-65.72012329101562,4.569762229919434,-3.9247076511383057,-19.675277709960938
0,583763,19.883453369140625,1.0868160724639893,12.723188400268555,-7.27177619934082
0,583764,13.665593147277832,-40.15715026855469,20.959035873413086,-301.7574157714844
0,583765,2.5323245525360107,-54.315345764160156,-44.06983947753906,-82.55248260498047
0,583768,-0.1885300874710083,11.493867874145508,-13.935091018676758,607.9078979492188
0,583769,-46.478389739990234,26.334064483642578,26.967153549194336,242.94070434570312
0,583772,-91.40483856201172,29.349016189575195,-73.98906707763672,-453.794189453125
0,583773,-1.1608541011810303,-23.546354293823242,-52.745025634765625,-618.7899169921875
0,583776,98.5743408203125,-11.706162452697754,139.7687530517578,-243.96434020996094
0,583777,-20.61249351501465,70.79955291748047,163.22828674316406,709.1694946289062
0,583780,25.610694885253906,-23.241708755493164,-109.03939819335938,684.5052490234375
0,583781,41.26262664794922,-41.217342376708984,-188.84869384765625,-258.73394775390625
0,583784,-279.0802307128906,25.68290901184082,-43.57929611206055,-432.17889404296875
0,583785,-79.01832580566406,22.12505531311035,81.76152038574219,35.850799560546875
0,583788,475.9987487792969,-5.821961402893066,241.1173095703125,15.924091339111328
0,583789,181.7909698486328,-43.42464065551758,47.12567138671875,-70.78759002685547
0,583792,-402.16656494140625,-17.33038330078125,-293.97393798828125,53.568641662597656
0,583793,-166.33978271484375,37.34743881225586,-81.74495697021484,432.41705322265625
0,583796,137.6555633544922,51.66862869262695,114.4061508178711,338.87615966796875
0,583797,16.118921279907227,-28.151866912841797,51.772579193115234,-850.597412109375
0,583904,-1.5709331035614014,-67.37513732910156,49.91581726074219,226.0529327392578
0,583904,67.34820556640625,1.8138080835342407,-25.398605346679688,947.9369506835938
0,583904,-9.910609245300293,43.80683517456055,-23.863935470581055,-506.208984375
0,583905,-34.77376174926758,30.68659782409668,4.2431111335754395,-338.1507873535156
0,583905,9.760223388671875,-12.818404197692871,-0.32105231285095215,114.15498352050781
0,583905,-21.007434844970703,-41.320098876953125,7.627834320068359,-84.84840393066406
0,583905,-37.6258659362793,-14.55151653289795,-5.928981781005859,-102.37198638916016
0,583905,-6.306097507476807,5.823930263519287,-9.194664001464844,-121.84881591796875
0,583905,22.610811233520508,3.7129955291748047,-8.491935729980469,-146.78302001953125
0,583906,3.77311372756958,5.203453063964844,-14.410189628601074,-171.32867431640625
0,583906,-9.426705360412598,-21.746912002563477,-21.95212745666504,-144.93600463867188
0,583906,13.165201187133789,-1.6069769859313965,-2.4318222999572754,-47.51055145263672
0,583906,6.297220230102539,39.9266242980957,8.29517936706543,12.094114303588867
0,583906,-8.495400428771973,4.495959758758545,10.634100914001465,31.118295669555664
0,583906,20.23820686340332,-17.062511444091797,20.503326416015625,76.39546203613281
0,583907,33.39745330810547,19.734853744506836,26.922332763671875,120.48126983642578
0,583907,-7.567716598510742,20.268253326416016,5.533019065856934,135.4347686767578
0,583907,-5.4102702140808105,6.4106316566467285,-4.315907001495361,114.53536987304688
0,583907,27.669017791748047,-5.614264965057373,13.287775039672852,82.79014587402344
0,583907,4.243013858795166,-35.4723014831543,-16.489315032958984,97.79352569580078
0,583908,3.828887701034546,-10.854474067687988,-30.375423431396484,71.51189422607422
0,583908,23.469667434692383,37.795623779296875,-3.801736831665039,2.3578004837036133
0,583908,15.741283416748047,9.563212394714355,-6.765961647033691,3.070735454559326
0,583908,-5.9796271324157715,-28.896106719970703,-13.864341735839844,61.745933532714844
0,583908,-7.067690372467041,13.001883506774902,9.623668670654297,77.9670181274414
0,583908,4.781050205230713,38.29393005371094,22.577425003051758,32.08946990966797
0,583909,-9.39631175994873,-8.222065925598145,5.691489219665527,11.727795600891113
0,583909,-7.877510070800781,-28.38509178161621,-11.465606689453125,-3.1380910873413086
0,583909,1.519266963005066,4.440757751464844,12.483613967895508,-45.58515548706055
0,583909,-2.8695602416992188,1.6756558418273926,15.45104694366455,-86.96072387695312
0,583909,-13.155842781066895,-11.710097312927246,-22.872051239013672,-86.80704498291016
0,583909,4.8366379737854,-0.9402056932449341,-15.486821174621582,-36.625545501708984
0,583910,28.078519821166992,-10.049189567565918,-4.687765598297119,-25.182966232299805
0,583910,-7.916128158569336,-17.782686233520508,-10.072189331054688,-49.85440444946289
0,583910,-13.496176719665527,-5.909723281860352,3.546679973602295,-38.12125778198242
0,583910,-0.6061464548110962,23.720287322998047,12.38061809539795,-29.967744827270508
0,583910,-7.525696754455566,4.328585624694824,-21.117006301879883,-36.63306427001953
0,583910,-5.892956256866455,-31.967622756958008,-3.82277774810791,-30.72945213317871
0,583911,-19.28316879272461,-6.947493553161621,35.26638412475586,-31.10721206665039
0,583911,-21.33758544921875,16.13565444946289,-2.807680368423462,4.827109336853027
0,583911,-16.686767578125,18.85631561279297,-4.73756742477417,22.387243270874023
0,583911,-22.8634033203125,-4.780441761016846,1.17991042137146,14.309598922729492
0,583911,-33.29480743408203,-6.3333353996276855,-15.235636711120605,57.667484283447266
0,583911,-22.195297241210938,7.825491905212402,42.076271057128906,18.470949172973633
0,583912,20.47088050842285,-0.308027058839798,54.66578674316406,-66.96219635009766
0,583912,32.344486236572266,22.10131072998047,2.2333426475524902,-50.899139404296875
0,583912,0.31443923711776733,7.356094837188721,25.10349464416504,-4.557967185974121
0,583912,1.244559645652771,-21.59224510192871,24.743431091308594,-39.51613235473633
0,583912,37.46956253051758,-6.88656759262085,-40.48416519165039,-28.442569732666016
0,583912,10.213022232055664,-12.5703763961792,-29.936058044433594,43.318748474121094
0,583913,-26.47028160095215,8.3919038772583,9.833176612854004,-46.51178741455078
0,583913,19.88407325744629,28.041101455688477,-14.023358345031738,-130.12770080566406
0,583913,-0.5063223242759705,-23.18454933166504,-28.34592628479004,-42.26460647583008
0,583914,-46.085723876953125,0.8395005464553833,-80.37989807128906,219.76898193359375
0,583914,-0.03669636324048042,49.56699752807617,-79.6885757446289,298.5235290527344
0,583915,32.94803237915039,-15.388249397277832,17.812904357910156,38.23848342895508
0,583915,-0.7535967826843262,-36.61949920654297,-7.455508708953857,-10.933276176452637
0,583915,-17.243162155151367,16.749597549438477,-32.14916229248047,32.18046188354492
0,583916,-90.93809509277344,12.980440139770508,-1.6703346967697144,-84.67588806152344
0,583918,27.059085845947266,14.395529747009277,113.10391235351562,267.967041015625
0,583920,216.07774353027344,-37.6485595703125,137.62013244628906,-328.6717224121094
0,583922,-0.7730464339256287,-76.53071594238281,-49.68888473510742,-770.4130249023438
0,583924,-119.8008041381836,13.691154479980469,-97.91253662109375,1023.274169921875
0,583926,-73.44905090332031,13.368780136108398,-23.663015365600586,701.3027954101562
0,583928,75.16573333740234,84.82089233398438,181.45594787597656,-1159.7921142578125
0,583930,148.2757110595703,73.50861358642578,133.8118438720703,-258.7584533691406
0,583932,-73.46456909179688,-92.97457122802734,-156.2960662841797,453.4674987792969
0,583934,-85.67989349365234,-43.87635803222656,-131.80203247070312,-175.02835083007812
0,583936,38.359832763671875,15.082629203796387,2.885650396347046,298.01495361328125
0,583938,37.8841438293457,20.786239624023438,69.27401733398438,44.990108489990234
0,583940,-25.248027801513672,14.27873420715332,-13.057236671447754,-231.802978515625
0,583942,-37.96770095825195,-11.337722778320312,-27.449359893798828,238.273681640625
0,583944,-3.949251174926758,-4.099575996398926,89.92916107177734,-459.7994689941406
0,583946,-2.5817761421203613,-25.946792602539062,6.12294864654541,-174.6917266845703
0,583948,-3.855273485183716,14.169299125671387,-140.9459686279297,522.9163818359375
0,583950,-4.725341320037842,20.609548568725586,-25.179061889648438,-100.77717590332031
0,583953,7.48458194732666,-23.685609817504883,143.81393432617188,-585.0722045898438
0,583954,1.1244235038757324,21.33803367614746,36.604270935058594,35.27922439575195
0,584070,2.166766881942749,-6.1164937019348145,-72.49378967285156,905.4945678710938
0,584071,29.22263526916504,-44.143959045410156,-37.209228515625,221.08892822265625
0,584071,-1.161278486251831,5.420511722564697,-8.040928840637207,-443.47943115234375
0,584071,-6.5045166015625,47.01404571533203,5.313913822174072,-10.513253211975098
0,584071,3.407280206680298,5.069947242736816,3.424053907394409,69.99060821533203
0,584071,3.9291415214538574,-35.0952262878418,-14.116231918334961,-28.92637062072754
0,584071,17.65970230102539,8.14033317565918,25.076799392700195,31.40957260131836
0,584072,-1.1412073373794556,2.093294382095337,46.66543197631836,11.05740737915039
0,584072,-18.160171508789062,-3.8956453800201416,-8.399394035339355,-75.36517333984375
0,584072,-17.414567947387695,-4.000660419464111,0.1384739875793457,-62.39262008666992
0,584072,0.1401141732931137,-2.394864797592163,15.51026439666748,-45.26862716674805
0,584072,5.80410623550415,40.31010818481445,-18.19367790222168,-100.73251342773438
0,584072,-7.155126094818115,10.480375289916992,-30.12293815612793,-80.0708236694336
0,584073,-8.905291557312012,-51.70216369628906,-6.536765098571777,-1.4851298332214355
0,584073,-0.8933718800544739,-9.41893196105957,25.49815559387207,25.4588565826416
0,584073,0.9643908739089966,30.630996704101562,-2.4905073642730713,24.527833938598633
0,584073,5.396102428436279,-18.07956314086914,-1.7700616121292114,30.67654037475586
0,584073,-1.0026395320892334,-27.670211791992188,66.81497192382812,5.814687252044678
0,584073,-10.534808158874512,12.014549255371094,37.35783004760742,-18.6768741607666
0,584074,4.432427406311035,15.378183364868164,-17.619159698486328,-15.794127464294434
0,584074,1.2952966690063477,-10.534210205078125,-6.099140644073486,-10.339334487915039
0,584074,-2.9498119354248047,21.63544273376465,-28.324275970458984,-1.7135792970657349
0,584074,-1.463985562324524,37.210811614990234,-42.002986907958984,-26.504467010498047
0,584074,-6.238334655761719,-23.714780807495117,-45.715431213378906,-11.68734359741211
0,584074,6.266213893890381,-16.512008666992188,-24.57734489440918,44.88519287109375
0,584075,11.53826904296875,8.046124458312988,-13.505669593811035,23.550640106201172
0,584075,13.732084274291992,3.140139579772949,-36.611175537109375,-24.828195571899414
0,584075,-6.215209007263184,5.085938930511475,-12.696910858154297,-13.920886039733887
0,584075,-38.639766693115234,-11.327024459838867,-4.99704647064209,29.069040298461914
0,584075,-27.579593658447266,13.073415756225586,-4.079930782318115,15.239493370056152
0,584076,2.150956869125366,25.94127082824707,0.35830065608024597,8.02463436126709
0,584076,1.3508375883102417,-21.69260597229004,16.108226776123047,64.13046264648438
0,584076,6.0906805992126465,-0.9906835556030273,61.93899917602539,64.68043518066406
0,584076,39.890804290771484,45.47917175292969,46.59418487548828,32.98203659057617
0,584076,31.22794532775879,-19.102140426635742,-3.886009454727173,39.012996673583984
0,584076,26.172161102294922,-45.5810432434082,8.672204971313477,24.48809814453125
0,584077,22.406312942504883,0.024992354214191437,-0.05043512582778931,13.286209106445312
0,584077,-24.839900970458984,1.3518658876419067,-21.74872398376465,41.16374588012695
0,584077,-22.257097244262695,-16.851104736328125,-8.480143547058105,0.31884264945983887
0,584077,-11.68922233581543,0.2566799521446228,-28.362018585205078,-66.37518310546875
0,584077,-32.805145263671875,24.509334564208984,-24.97055435180664,-64.30523681640625
0,584077,-17.183624267578125,-5.553429126739502,-20.943708419799805,-56.1924934387207
0,584078,-6.464753150939941,-12.786520004272461,-14.59955883026123,-15.586387634277344
0,584078,-12.04194450378418,-3.060718297958374,40.24228286743164,0.8978955745697021
0,584078,-3.4953806400299072,15.941688537597656,63.35906219482422,-41.8990592956543
0,584078,-2.070542335510254,27.611465454101562,59.16047286987305,18.110761642456055
0,584078,6.180855751037598,4.828874111175537,54.13416290283203,69.39737701416016
0,584078,20.986099243164062,-11.129446029663086,10.972179412841797,27.572616577148438
0,584079,16.407699584960938,-25.05530548095703,-2.247673511505127,24.60455322265625
0,584079,21.451244354248047,1.292475700378418,36.005653381347656,-2.4938347339630127
0,584079,33.58555603027344,20.593746185302734,-16.08173179626465,-64.13108825683594
0,584079,-8.300469398498535,-6.672580242156982,-30.7266845703125,-79.34760284423828
0,584079,-3.846557855606079,-25.849342346191406,4.372375011444092,-44.28432083129883
0,584079,5.397975921630859,-1.7477095127105713,-55.35678482055664,-32.15701675415039
0,584080,-50.116004943847656,4.602506637573242,-31.37424087524414,-65.70196533203125
0,584080,-11.895724296569824,-2.548638105392456,7.842750072479248,-44.99593734741211
0,584080,31.240982055664062,6.172640323638916,-41.39314651489258,-38.863548278808594
0,584080,-4.517471790313721,2.6195878982543945,-20.763694763183594,-8.747428894042969
0,584081,52.71150207519531,26.956764221191406,81.4123764038086,-51.84980010986328
0,584082,74.59170532226562,23.778541564941406,49.14669418334961,-103.96385955810547
0,584082,-21.36397933959961,-30.000402450561523,-65.47468566894531,94.29326629638672
0,584082,-12.352182388305664,-20.733552932739258,-2.8472838401794434,151.58763122558594
0,584082,-10.707669258117676,27.46063232421875,49.77942657470703,98.30579376220703
0,584082,-26.848220825195312,-1.703783392906189,-14.376876831054688,131.4264373779297
0,584084,25.448240280151367,-49.300472259521484,-32.91143035888672,771.83740234375
0,584086,-33.46952438354492,-30.63741683959961,-159.7593994140625,462.09478759765625
0,584088,-207.47752380371094,-45.605560302734375,-184.3365478515625,-949.171875
0,584090,1.0661989450454712,28.775415420532227,197.382568359375,-436.6220703125
0,584092,240.3491973876953,129.6087188720703,224.53927612304688,59.83023452758789
0,584094,-29.183977127075195,-48.20112991333008,-114.50961303710938,-171.1002655029297
0,584096,-69.74241638183594,-98.42095184326172,-147.6114959716797,359.58123779296875
0,584098,36.66923904418945,19.678953170776367,14.003116607666016,398.88702392578125
0,584100,-51.81625747680664,48.1107177734375,137.6349639892578,229.5455322265625
0,584102,-26.740745544433594,102.64697265625,103.75852966308594,-899.1326293945312
0,584104,79.05554962158203,47.343875885009766,23.307369232177734,-1434.3377685546875
0,584106,71.577880859375,-73.89871978759766,-51.975765228271484,1298.333984375
0,584108,-157.12899780273438,-93.40110778808594,-117.06681060791016,1478.2698974609375
0,584110,-18.39012336730957,67.11927795410156,156.7545623779297,-1159.9278564453125
0,584112,221.92005920410156,35.93714904785156,60.032066345214844,-531.087646484375
0,584114,-113.5917739868164,-166.74945068359375,-368.62249755859375,566.1000366210938
0,584116,-141.06317138671875,32.106842041015625,102.60423278808594,-159.45018005371094
0,584118,143.1188507080078,129.7041778564453,165.8952178955078,3.9456355571746826
0,584120,6.358017921447754,-17.041828155517578,-177.31178283691406,47.61372375488281
0,584122,-97.1318588256836,-36.61680603027344,109.48420715332031,212.6070098876953
0,584124,122.35838317871094,13.445387840270996,120.14669036865234,567.0883178710938
0,584251,52.327266693115234,52.57799530029297,-56.85786437988281,-894.6405639648438
0,584251,-105.5426025390625,-31.27659034729004,-97.8817138671875,-575.0403442382812
0,584251,6.376883506774902,-34.35179901123047,-35.014469146728516,671.0057983398438
0,584251,21.27816390991211,30.809207916259766,7.04887580871582,156.2069091796875
0,584251,-1.939643383026123,9.447306632995605,-26.892040252685547,-91.16020202636719
0,584251,6.2582855224609375,-30.627370834350586,-2.510249137878418,14.727154731750488
0,584252,-1.5787116289138794,-30.15059471130371,-6.056291580200195,-22.815696716308594
0,584252,3.3622941970825195,9.672248840332031,-11.638229370117188,-75.32125091552734
0,584252,18.967432022094727,6.130570411682129,19.098098754882812,-24.310651779174805
0,584252,15.553848266601562,-11.570392608642578,16.935192108154297,26.513694763183594
0,584252,-28.229942321777344,-17.121217727661133,-6.481320381164551,38.63327407836914
0,584252,-26.299537658691406,1.8650749921798706,24.873329162597656,111.568115234375
0,584253,-2.2666547298431396,19.472564697265625,53.65321731567383,106.93314361572266
0,584253,-18.045631408691406,-5.492457389831543,-1.723549485206604,9.089744567871094
0,584253,-20.198246002197266,-1.098055362701416,-5.798862457275391,-19.132184982299805
0,584253,-27.379640579223633,-1.083841323852539,62.25736618041992,-40.48834228515625
0,584253,-29.392475128173828,5.930629730224609,35.79072952270508,-81.75513458251953
0,584253,15.781720161437988,29.671010971069336,2.97351336479187,-111.90756225585938
0,584254,20.66758155822754,-18.171958923339844,9.440688133239746,-94.6749267578125
0,584254,-30.922252655029297,-43.27400207519531,-14.739258766174316,11.065387725830078
0,584254,-9.203261375427246,-6.775857925415039,-30.122358322143555,47.75094985961914
0,584254,29.367969512939453,25.93201446533203,-2.541369915008545,2.750953197479248
0,584254,10.595218658447266,23.411144256591797,-4.075112342834473,31.70572853088379
0,584255,-9.134081840515137,-6.298387050628662,-20.7274112701416,66.07034301757812
0,584255,-33.00352478027344,13.573488235473633,5.153841018676758,5.5208258628845215
0,584255,-26.836101531982422,-13.6087064743042,-14.486907958984375,-43.347774505615234
0,584255,7.220418453216553,-29.504404067993164,-19.362953186035156,-47.97538375854492
0,584255,25.505802154541016,45.69115447998047,2.8829636573791504,-39.328643798828125
0,584255,13.98562240600586,31.153852462768555,6.268945693969727,-24.104488372802734
0,584256,28.189109802246094,-29.973604202270508,27.653553009033203,-17.692718505859375
0,584256,38.78788757324219,-19.577260971069336,20.079856872558594,14.498451232910156
0,584256,26.9018611907959,17.046831130981445,-11.106573104858398,43.67087936401367
0,584256,65.74766540527344,5.066875457763672,3.9099538326263428,36.965187072753906
0,584256,45.54069900512695,-3.244428873062134,16.78533172607422,26.304302215576172
0,584256,-19.680641174316406,-3.201720714569092,-13.806258201599121,15.143248558044434
0,584257,7.242076873779297,-11.420693397521973,-10.328362464904785,18.12497329711914
0,584257,18.381256103515625,1.7454946041107178,-12.053242683410645,16.604198455810547
0,584257,-4.257357120513916,-14.408273696899414,-34.64900207519531,-25.69194793701172
0,584257,-20.29551124572754,-28.251949310302734,-22.813182830810547,-14.775691986083984
0,584257,-37.62267303466797,-1.1370322704315186,-21.113601684570312,7.340230941772461
0,584257,-29.187145233154297,6.517910957336426,-18.857192993164062,-8.941718101501465
0,584258,-31.55355453491211,3.4258646965026855,13.29784107208252,2.9854722023010254
0,584258,-21.183935165405273,7.348978519439697,11.83072566986084,14.778677940368652
0,584258,-17.489656448364258,-11.124611854553223,13.367755889892578,24.93052864074707
0,584258,-6.50234842300415,26.176231384277344,18.96190643310547,-95.01827239990234
0,584258,6.388201713562012,31.91691017150879,-2.988476514816284,-209.7149200439453
0,584258,7.193186283111572,-12.190939903259277,10.259883880615234,-125.4659194946289
0,584259,22.16884994506836,24.743738174438477,4.552058219909668,-121.01863861083984
0,584259,-4.294473648071289,17.446474075317383,-1.0274271965026855,-110.4202651977539
0,584259,-21.206865310668945,-16.376346588134766,11.831674575805664,64.5290756225586
0,584259,13.869402885437012,27.681415557861328,4.157480239868164,172.27273559570312
0,584259,17.0751895904541,29.95372772216797,-5.806593418121338,150.5694580078125
0,584259,2.4701826572418213,-8.588212013244629,-25.17613983154297,117.08357238769531
0,584260,2.7823476791381836,-14.441336631774902,-4.481999397277832,111.4609146118164
0,584260,0.5470421314239502,-8.573023796081543,35.44063186645508,87.03077697753906
0,584260,15.545293807983398,-10.703619003295898,4.995089530944824,65.66761779785156
0,584260,27.880163192749023,-24.407472610473633,-41.54621124267578,75.20469665527344
0,584260,-1.3680099248886108,-5.592602252960205,0.17500337958335876,139.08641052246094
0,584261,-16.910154342651367,13.003707885742188,19.00352668762207,104.05831909179688
0,584261,21.12977409362793,-6.3719305992126465,-30.966506958007812,-45.24985885620117
0,584261,-12.929336547851562,-41.283470153808594,-23.00762939453125,-33.7569580078125
0,584261,-85.3359146118164,-16.587615966796875,-2.1907174587249756,48.35020065307617
0,584261,-59.63999938964844,34.708919525146484,22.66213035583496,36.51852035522461
0,584262,-0.020620059221982956,-19.60808753967285,30.766651153564453,659.0170288085938
0,584263,22.18310546875,-30.136932373046875,-17.315948486328125,629.7314453125
0,584263,13.286972999572754,20.496963500976562,7.042929649353027,-606.1134643554688
0,584263,11.261333465576172,3.0369086265563965,13.808889389038086,-453.5543518066406
0,584263,3.4515738487243652,12.426400184631348,-1.4618386030197144,60.45000076293945
0,584263,13.816192626953125,21.716432571411133,13.57465648651123,-172.12770080566406
0,584265,18.486549377441406,-32.81100082397461,-37.01849365234375,11.78699016571045
0,584266,-31.788896560668945,-19.40266990661621,-76.56361389160156,-406.0240173339844
0,584269,-20.342802047729492,13.173114776611328,35.167545318603516,-2117.01953125
0,584270,26.131649017333984,6.0085883140563965,135.0958251953125,-603.4990844726562
0,584273,70.588134765625,16.48682975769043,-10.379683494567871,1945.1409912109375
0,584274,53.81147003173828,23.306058883666992,-58.91057586669922,414.0279235839844
0,584275,-62.2662239074707,28.671306610107422,18.816814422607422,-871.7500610351562
0,584278,-46.20463943481445,-21.28144073486328,-26.45267105102539,41.332618713378906
0,584279,20.36827850341797,-86.8865966796875,-58.59388732910156,1490.9857177734375
0,584282,-51.24945068359375,-31.814733505249023,-15.515944480895996,378.80755615234375
0,584283,-71.1318130493164,81.49848175048828,58.826805114746094,-1650.3138427734375
0,584286,113.39700317382812,67.26032257080078,115.6802749633789,98.3320083618164
0,584287,132.2795867919922,22.258512496948242,33.63387680053711,1430.8111572265625
0,584290,-77.54389953613281,-18.734277725219727,-109.1921615600586,-184.59136962890625
0,584291,-51.10661315917969,-74.47913360595703,-80.66602325439453,-537.9546508789062
0,584294,33.31996536254883,-43.25458908081055,9.189227104187012,56.290260314941406
0,584295,5.554018974304199,18.061737060546875,42.254886627197266,65.01834869384766
0,584298,-13.919901847839355,51.05369567871094,29.621469497680664,-470.4988098144531
0,584299,15.863763809204102,24.38863754272461,-112.79823303222656,-507.1119079589844
0,584302,-69.95361328125,33.73421859741211,25.910276412963867,874.5091552734375
0,584303,-94.06255340576172,14.10750675201416,257.9710693359375,871.1796875
0,584306,104.03213500976562,-93.79840850830078,-79.24464416503906,-47.1585807800293
0,584307,76.7027587890625,-33.246978759765625,-109.55414581298828,-593.14599609375
0,584446,-29.23678207397461,31.671279907226562,36.92851257324219,-560.7650146484375
0,584446,-43.93795394897461,-20.09929847717285,-128.01345825195312,328.558837890625
0,584446,-0.6363975405693054,16.463537216186523,32.12673568725586,56.341796875
0,584446,20.095064163208008,17.152727127075195,94.85917663574219,-324.2893981933594
0,584447,-18.252178192138672,-21.435579299926758,-19.813486099243164,-12.086016654968262
0,584447,28.4996337890625,-3.0948233604431152,-11.006118774414062,-21.643922805786133
0,584447,45.4847526550293,14.047581672668457,-8.457201957702637,44.81507873535156
0,584447,-5.519885063171387,9.109813690185547,-24.267242431640625,136.47698974609375
0,584447,-25.835962295532227,-5.391221046447754,-32.41679382324219,122.64263153076172
0,584447,-9.639921188354492,-9.3558349609375,9.192110061645508,107.7107925415039
0,584448,-28.785551071166992,13.38510513305664,26.303730010986328,38.91657638549805
0,584448,-18.793725967407227,32.43256759643555,5.30254602432251,-71.1898422241211
0,584448,2.8150010108947754,-25.723907470703125,10.160417556762695,-61.35194396972656
0,584448,-15.052107810974121,-13.524496078491211,25.744115829467773,-76.23980712890625
0,584448,9.963410377502441,15.830483436584473,3.113572597503662,-100.09075164794922
0,584448,27.09431266784668,-11.359942436218262,-17.74945640563965,-35.81241989135742
0,584449,-4.553682327270508,25.314800262451172,9.092251777648926,51.1740608215332
0,584449,13.337891578674316,0.3833967447280884,9.450587272644043,72.76355743408203
0,584449,18.906091690063477,-11.282572746276855,-21.30904197692871,38.20603942871094
0,584449,-33.0345344543457,24.158647537231445,-2.798306941986084,59.46633529663086
0,584449,9.828826904296875,2.711034059524536,4.220524787902832,53.87950134277344
0,584449,23.013113021850586,-6.574171543121338,-8.893702507019043,-4.195605278015137
0,584450,-29.61400032043457,-1.044777750968933,17.092742919921875,-45.42768478393555
0,584450,13.334939002990723,-3.4347879886627197,14.360915184020996,-50.15178680419922
0,584450,24.754314422607422,7.43058443069458,-9.24405288696289,-11.786840438842773
0,584450,-14.464545249938965,-9.913191795349121,-14.241133689880371,-3.0460009574890137
0,584450,32.11825942993164,-22.08942413330078,-10.945855140686035,11.622271537780762
0,584451,35.269287109375,4.331976413726807,7.4694013595581055,35.84047317504883
0,584451,-35.66497802734375,-11.966304779052734,-12.86595630645752,18.41305923461914
0,584451,-23.689716339111328,-13.708645820617676,-25.15096092224121,14.630152702331543
0,584451,-3.8337554931640625,25.70821189880371,26.68498992919922,9.091391563415527
0,584451,-7.750069618225098,2.8332290649414062,13.65660572052002,-16.298526763916016
0,584451,14.590293884277344,-8.521625518798828,-7.969010829925537,-40.34626770019531
0,584452,2.5038669109344482,9.240428924560547,16.691246032714844,-48.94472885131836
0,584452,-32.54099655151367,-3.1688458919525146,-7.953099727630615,-26.780723571777344
0,584452,-12.82751178741455,-5.4930949211120605,-11.975167274475098,-9.668331146240234
0,584452,18.602998733520508,-3.5479202270507812,19.857093811035156,-24.420745849609375
0,584452,7.861534595489502,-1.2267564535140991,4.324569225311279,31.283498764038086
0,584452,-10.86863899230957,0.8124854564666748,-29.66192054748535,62.26848220825195
0,584453,-28.952104568481445,2.352546453475952,6.768810272216797,-23.46319580078125
0,584453,9.08089828491211,4.779878616333008,20.793100357055664,-25.34566879272461
0,584453,36.9509162902832,12.572933197021484,-18.092761993408203,35.83392333984375
0,584453,-17.600603103637695,-18.246461868286133,4.2672505378723145,19.42144012451172
0,584453,-14.016119003295898,-14.468437194824219,28.23609733581543,-24.592493057250977
0,584453,27.105548858642578,32.05722427368164,-12.353845596313477,-16.7031192779541
0,584454,-11.29076099395752,-14.889447212219238,-23.825061798095703,1.887933611869812
0,584454,-21.53058624267578,-38.83185577392578,-2.644205331802368,11.661149978637695
0,584454,15.156976699829102,23.237991333007812,-7.176694869995117,7.7768473625183105
0,584454,-6.3651299476623535,8.377405166625977,-6.7295732498168945,-2.446913003921509
0,584454,-9.80405044555664,-36.12586212158203,2.607430934906006,10.11691951751709
0,584454,10.441771507263184,1.5418566465377808,15.946676254272461,16.58445930480957
0,584455,0.9691692590713501,37.64727020263672,9.989365577697754,20.90855598449707
0,584455,1.84222412109375,18.056493759155273,2.0453498363494873,-20.918472290039062
0,584455,2.608320951461792,-20.242984771728516,-3.9860658645629883,-28.60812759399414
0,584455,-10.449974060058594,-11.21692180633545,13.08544921875,13.189141273498535
0,584455,1.7767517566680908,25.332794189453125,26.16520881652832,-14.399641036987305
0,584455,24.017173767089844,18.262855529785156,6.8020339012146,3.356081485748291
0,584456,18.660615921020508,9.294851303100586,-5.372626304626465,36.652156829833984
0,584456,-2.2761824131011963,8.168782234191895,-9.475362777709961,4.316522598266602
0,584456,-4.150485992431641,-12.263777732849121,-2.230876922607422,-19.580263137817383
0,584456,-6.318233013153076,-15.319746971130371,-21.309484481811523,-14.201925277709961
0,584456,-8.921961784362793,27.4689998626709,-14.25249195098877,26.39022445678711
0,584456,8.997640609741211,26.72379493713379,6.253028392791748,7.735203266143799
0,584457,-3.2609171867370605,-42.73750305175781,-2.865997791290283,-26.213665008544922
0,584457,-0.2626781165599823,-27.85312843322754,-12.803426742553711,6.056841850280762
0,584457,8.559115409851074,8.141496658325195,-17.386260986328125,-5.277422904968262
0,584457,7.390799045562744,-13.896443367004395,14.34175968170166,10.847369194030762
0,584457,1.6335655450820923,-4.046682834625244,13.1243314743042,24.680675506591797
0,584457,-22.94489860534668,15.608375549316406,-18.797138214111328,-23.66230583190918
0,584459,-13.220436096191406,-22.91070556640625,-18.204174041748047,-9.5368070602417
0,584459,5.5401129722595215,-16.51939582824707,8.563618659973145,19.035276412963867
0,584459,4.12985372543335,20.186290740966797,18.205860137939453,-25.86393928527832
0,584459,-6.589450359344482,-4.634186744689941,5.1279826164245605,-35.023860931396484
0,584459,-19.52779197692871,3.577244997024536,16.355144500732422,-6.81398868560791
0,584460,-1.7505015134811401,20.91934585571289,8.064988136291504,-29.856609344482422
0,584461,11.48287296295166,11.874375343322754,-27.85504722595215,-26.584999084472656
0,584462,14.367071151733398,5.485535621643066,0.4532404839992523,21.361019134521484
0,584463,-7.275347709655762,-0.2468547821044922,58.13063049316406,20.44718360900879
0,584466,-27.547117233276367,-4.172344207763672,13.79326343536377,73.81973266601562
0,584467,58.61225128173828,-14.236654281616211,-48.3740234375,-43.59413528442383
0,584470,42.6947021484375,-30.292402267456055,-31.036725997924805,-171.8276824951172
0,584471,-83.16727447509766,-14.32839584350586,49.23961639404297,527.0991821289062
0,584474,-3.5430145263671875,43.03770446777344,9.042130470275879,-91.54898834228516
0,584475,102.7607192993164,28.351539611816406,-76.70626831054688,-553.1849365234375
0,584478,-112.86471557617188,-86.08840942382812,-55.320587158203125,540.375244140625
0,584479,-124.22111511230469,-23.965898513793945,32.029483795166016,-456.7456359863281
0,584482,186.7391815185547,132.96453857421875,126.66348266601562,-363.0909118652344
0,584484,72.99386596679688,23.533557891845703,50.50505828857422,626.9417114257812
0,584486,-102.53550720214844,-61.87254333496094,-110.88910675048828,125.73553466796875
0,584488,4.030007362365723,14.430428504943848,-83.59200286865234,586.8466796875
0,584490,-10.966765403747559,-27.087169647216797,63.32524871826172,-532.0973510742188
0,584492,-8.259031295776367,-33.61487579345703,22.490192413330078,-1542.690185546875
0,584494,36.8199348449707,32.72673416137695,10.115349769592285,789.2694091796875
0,584496,-51.31843185424805,21.66594123840332,25.947147369384766,1330.1361083984375
0,584498,6.1473588943481445,11.710565567016602,-31.175567626953125,-402.2248229980469
0,584500,109.17959594726562,-19.768417358398438,-33.67780685424805,-413.8966369628906
0,584502,-34.6174201965332,-45.29351043701172,-22.401081085205078,109.1910171508789
0,584504,-94.71955871582031,-5.45639705657959,66.0093994140625,-313.456298828125
0,584653,11.92619800567627,22.373844146728516,9.947151184082031,-14.387530326843262
0,584653,25.524656295776367,11.877601623535156,-78.2210922241211,491.9045715332031
0,584653,12.577336311340332,22.524675369262695,38.616329193115234,-101.30522918701172
0,584653,13.454516410827637,-1.0170083045959473,23.108591079711914,-187.60792541503906
0,584653,-13.44047737121582,-35.57648468017578,-34.41974639892578,86.6239242553711
0,584654,-12.249699592590332,-0.6301256418228149,9.84386920928955,-18.700159072875977
0,584654,-8.204514503479004,16.268938064575195,10.836041450500488,-19.28452491760254
0,584654,8.33357048034668,6.630972862243652,-8.458248138427734,-8.550360679626465
0,584654,2.426051616668701,-11.468461990356445,-6.0250959396362305,-21.68634033203125
0,584654,-19.596630096435547,-9.189924240112305,10.024758338928223,-7.586056709289551
0,584654,14.156099319458008,9.90304183959961,-11.094771385192871,3.403299331665039
0,584655,10.829607009887695,-9.4525785446167,0.5588057637214661,10.475381851196289
0,584655,-21.051671981811523,3.0138649940490723,30.633140563964844,10.51102352142334
0,584655,2.391829252243042,39.210872650146484,-2.266435146331787,-2.314077138900757
0,584655,13.466689109802246,-2.7406721115112305,2.904914140701294,9.922926902770996
0,584655,9.501697540283203,-16.87320899963379,21.591594696044922,8.816346168518066
0,584655,27.254858016967773,17.782695770263672,-21.316102981567383,4.579450607299805
0,584656,5.603839874267578,-21.04391098022461,-26.528194427490234,22.50299072265625
0,584656,-22.383514404296875,-11.693992614746094,7.924673557281494,7.5480499267578125
0,584656,-10.538843154907227,19.48700523376465,-3.0623297691345215,-31.87383270263672
0,584656,-1.2185486555099487,-24.830585479736328,-6.01141881942749,-6.828971862792969
0,584656,4.458794593811035,-0.24165524542331696,27.662736892700195,4.459670543670654
0,584656,9.156213760375977,28.95330810546875,-2.334063768386841,-17.860374450683594
0,584657,-9.065917015075684,-9.61780071258545,-26.75589370727539,2.3305342197418213
0,584657,-16.578872680664062,-24.407758712768555,0.8968680500984192,-6.463711261749268
0,584657,-12.222458839416504,-4.209428787231445,-6.722153663635254,-4.08145809173584
0,584657,2.0121634006500244,11.582022666931152,-3.1036007404327393,1.9100604057312012
0,584657,5.985413074493408,3.8444316387176514,31.684707641601562,-23.982017517089844
0,584658,1.4514504671096802,6.49000358581543,12.178431510925293,2.8206937313079834
0,584658,26.08538055419922,-3.0653939247131348,-26.035558700561523,4.205433368682861
0,584658,-5.605373382568359,-10.14123821258545,-5.0461745262146,-7.587565898895264
0,584658,-28.22431182861328,24.669015884399414,5.059595584869385,22.962249755859375
0,584658,23.909364700317383,20.89456558227539,0.7824411988258362,0.04351121932268143
0,584658,15.465692520141602,-17.908540725708008,14.048048973083496,-5.253997325897217
0,584659,-7.87706184387207,-5.129029750823975,4.148540019989014,-8.14603328704834
0,584659,2.1826210021972656,-3.2079389095306396,-13.317505836486816,-1.4774045944213867
0,584659,-10.271158218383789,-18.92696189880371,0.6328775882720947,52.3233528137207
0,584659,-7.920511722564697,14.573295593261719,16.42321014404297,7.933211803436279
0,584659,4.263642311096191,0.8908875584602356,-6.36469030380249,-16.10413360595703
0,584659,-0.9683662056922913,-1.6182093620300293,-5.124776363372803,-20.450834274291992
0,584660,-25.006866455078125,3.8091466426849365,-8.808540344238281,-30.339242935180664
0,584660,-7.046947479248047,-25.592885971069336,-12.49667739868164,52.24120330810547
0,584660,34.664058685302734,23.04939079284668,16.345680236816406,5.612375736236572
0,584660,1.208762526512146,9.06576156616211,8.073184967041016,-41.918914794921875
0,584660,-36.60666275024414,-26.349971771240234,5.43052864074707,37.500667572021484
0,584660,1.4674710035324097,19.758480072021484,-3.037966251373291,7.15757417678833
0,584661,38.269630432128906,10.2576322555542,-27.253376007080078,-30.84343910217285
0,584661,-7.973030090332031,-31.982437133789062,-2.326720714569092,-5.2606520652771
0,584661,-27.92678451538086,-2.5170202255249023,8.838118553161621,8.872149467468262
0,584661,15.74765682220459,39.94282913208008,0.052363134920597076,-13.542644500732422
0,584661,11.882866859436035,-7.154882431030273,2.315304756164551,-13.647664070129395
0,584661,-9.262618064880371,-32.3502197265625,2.707850456237793,30.48325538635254
0,584662,-1.2122061252593994,24.598346710205078,5.471301555633545,9.912626266479492
0,584662,2.5652501583099365,31.565237045288086,-2.3937106132507324,-19.659507751464844
0,584662,16.051122665405273,-33.733009338378906,7.590740203857422,16.93096923828125
0,584662,12.104859352111816,-8.439850807189941,14.892683029174805,23.317094802856445
0,584662,-2.753382444381714,48.65821838378906,-7.257899761199951,-19.792858123779297
0,584662,-0.25750890374183655,-24.52860450744629,-15.158881187438965,14.800904273986816
0,584663,-11.264251708984375,-32.872467041015625,7.747952938079834,19.955345153808594
0,584663,-0.13916951417922974,27.6314640045166,2.5981051921844482,-36.4950065612793
0,584663,6.572115898132324,-12.824864387512207,-17.26755142211914,8.903876304626465
0,584663,-14.370377540588379,-9.902962684631348,13.81367301940918,35.76875305175781
0,584663,-2.6945884227752686,26.251583099365234,16.695436477661133,-33.20732879638672
0,584663,13.032426834106445,6.0464558601379395,-25.811845779418945,-47.620765686035156
0,584664,-8.54369068145752,-18.416366577148438,-0.5571793913841248,12.579392433166504
0,584664,-14.192502975463867,-6.706968307495117,22.84743309020996,12.154135704040527
0,584664,18.96562385559082,15.482213973999023,-16.839519500732422,-13.342121124267578
0,584664,0.7496702671051025,-20.455791473388672,-23.476425170898438,19.207365036010742
0,584664,-24.610267639160156,-20.02336311340332,0.4145548641681671,-7.600715160369873
0,584664,12.96839714050293,19.81603240966797,20.157392501831055,-32.37705612182617
0,584665,7.1749348640441895,25.123430252075195,3.2217369079589844,2.824615478515625
0,584665,-9.016704559326172,-10.126014709472656,-13.338414192199707,6.963764667510986
0,584665,-3.4475395679473877,-19.541549682617188,13.047712326049805,7.376368999481201
0,584665,10.689617156982422,11.064719200134277,1.2816698551177979,-2.5905017852783203
0,584666,16.583242416381836,-0.8637272119522095,-0.9453772306442261,-30.77874183654785
0,584667,-7.510992527008057,10.11681079864502,14.516907691955566,-32.0938720703125
0,584667,-1.2426801919937134,13.333040237426758,-5.6844282150268555,34.11363983154297
0,584667,-5.578470706939697,-23.795026779174805,-18.834945678710938,36.34405517578125
0,584667,-5.782966613769531,11.04118824005127,-2.4073915481567383,-41.064998626708984
0,584667,17.618303298950195,20.267070770263672,12.45410442352295,-9.48288345336914
0,584667,-6.264739513397217,-36.23228073120117,-13.780220031738281,53.001529693603516
0,584669,-16.528623580932617,-22.508121490478516,-7.309932231903076,21.761798858642578
0,584670,15.588486671447754,-0.8276988863945007,-1.4186046123504639,1.0536906719207764
0,584671,3.3975043296813965,-8.247103691101074,-25.997365951538086,-5.642269611358643
0,584674,9.13149356842041,21.37679672241211,17.19904136657715,-70.34195709228516
0,584675,8.894608497619629,16.267942428588867,39.9351806640625,56.16669464111328
0,584678,-41.87360382080078,-26.704370498657227,-19.102230072021484,181.06407165527344
0,584679,-4.123109340667725,22.151884078979492,-3.548830509185791,-91.29298400878906
0,584682,25.93018341064453,28.820581436157227,28.809049606323242,-158.74057006835938
0,584683,-13.799395561218262,-20.957765579223633,7.142795562744141,100.29508972167969
0,584686,-5.405292510986328,-0.4731380343437195,-16.093555450439453,61.942474365234375
0,584687,15.169891357421875,1.9389854669570923,-15.395768165588379,-59.43931198120117
0,584690,-10.76409912109375,-4.494781970977783,21.606855392456055,-23.229549407958984
0,584692,-0.5889691114425659,0.7854061126708984,-2.61330246925354,-42.07793426513672
0,584694,35.10364532470703,13.911406517028809,-26.47844886779785,-108.98592376708984
0,584696,-8.324871063232422,-11.696046829223633,-14.673741340637207,80.09447479248047
0,584698,-32.03797149658203,-24.329458236694336,-18.5451717376709,206.93138122558594
0,584700,-4.5045037269592285,27.824176788330078,25.087493896484375,-52.20789337158203
0,584702,3.768111228942871,15.580892562866211,60.951141357421875,-207.76451110839844
0,584704,20.430622100830078,-21.332605361938477,-9.86971664428711,-109.04417419433594
0,584706,4.6927714347839355,11.407974243164062,-15.809562683105469,160.389404296875
0,584708,-11.928400993347168,2.9114465713500977,11.655858993530273,275.3534851074219
0,584710,0.07392846792936325,-35.037994384765625,-39.516937255859375,-59.58575439453125
0,584712,-8.34004020690918,4.990341663360596,-7.374784469604492,-211.45736694335938
0,584870,3.0897533893585205,26.7211971282959,31.262062072753906,29.072999954223633
0,584870,4.874764442443848,1.2217267751693726,11.958144187927246,35.15626525878906
0,584870,-6.931947708129883,-5.432416915893555,-18.4168701171875,-34.83407974243164
0,584870,16.311599731445312,-0.15203535556793213,-21.278799057006836,1.2520643472671509
0,584871,3.9056363105773926,-19.64887809753418,5.410983085632324,12.505682945251465
0,584871,-18.686525344848633,-24.1501522064209,-7.193740367889404,27.926719665527344
0,584871,12.182419776916504,17.612197875976562,10.318632125854492,-23.289003372192383
0,584871,-5.160970687866211,26.874271392822266,16.15473175048828,-27.590654373168945
0,584871,-16.349109649658203,-7.672276496887207,-16.457551956176758,31.247203826904297
0,584871,25.368083953857422,-14.27938175201416,0.47402000427246094,28.917131423950195
0,584872,22.85562515258789,5.89880895614624,13.226373672485352,-16.719280242919922
0,584872,-13.161328315734863,13.05456256866455,-11.014769554138184,-11.992505073547363
0,584872,-34.4660530090332,-11.908980369567871,-8.83346939086914,19.130393981933594
0,584872,-1.9245661497116089,-20.675121307373047,10.789130210876465,19.24409294128418
0,584872,23.83245086669922,10.138279914855957,-1.6990116834640503,-7.855279445648193
0,584872,1.0593314170837402,29.426515579223633,-3.5738492012023926,-23.29905128479004
0,584873,3.201887369155884,9.330022811889648,9.0880765914917,-6.883309364318848
0,584873,-4.787667751312256,-18.03250503540039,-5.571113586425781,-2.8552865982055664
0,584873,-25.420194625854492,1.234994649887085,-4.129700660705566,13.281896591186523
0,584873,8.854287147521973,12.584108352661133,31.391929626464844,18.456039428710938
0,584873,14.217025756835938,6.2519211769104,23.46135902404785,-22.832351684570312
0,584874,-5.452322959899902,-1.8636585474014282,-25.637712478637695,-3.8480803966522217
0,584874,-2.2077620029449463,-16.81862449645996,-18.270889282226562,48.862396240234375
0,584874,-1.5246717929840088,0.13923607766628265,15.627030372619629,-1.0248500108718872
0,584874,15.849499702453613,10.950288772583008,-7.86848783493042,-36.82422637939453
0,584874,5.218441963195801,3.2463343143463135,-4.938083648681641,3.928428888320923
0,584874,-2.402329921722412,3.3562896251678467,13.140809059143066,-7.415764331817627
0,584875,10.697169303894043,-6.415152072906494,-18.0050106048584,-12.145440101623535
0,584875,-17.228134155273438,-16.979930877685547,-8.693130493164062,20.45186424255371
0,584875,-26.3505802154541,6.333806037902832,12.931102752685547,4.808000087738037
0,584875,14.917234420776367,7.104498386383057,-7.810625076293945,-29.79706382751465
0,584875,13.493086814880371,-20.988893508911133,-3.7013871669769287,14.645548820495605
0,584875,-16.346843719482422,-2.3432984352111816,13.1221923828125,22.342756271362305
0,584876,8.99585247039795,10.921544075012207,-3.8716938495635986,-34.44182586669922
0,584876,6.383810997009277,-14.932561874389648,-3.67992901802063,-1.2697515487670898
0,584876,-24.240964889526367,-12.20742416381836,11.068119049072266,32.47863006591797
0,584876,6.040923595428467,20.624996185302734,-10.064346313476562,-2.1742103099823
0,584876,20.38284683227539,0.958305299282074,-11.886619567871094,-19.418046951293945
0,584876,-9.539058685302734,-3.9012343883514404,9.355330467224121,8.290412902832031
0,584877,-15.243419647216797,25.5775146484375,-4.940932750701904,-0.31783759593963623
0,584877,-5.553525924682617,-17.717164993286133,9.24400520324707,-9.567000389099121
0,584877,-0.9006368517875671,-11.173613548278809,17.66986846923828,17.167753219604492
0,584877,14.80636978149414,32.837730407714844,-17.10439682006836,17.073814392089844
0,584877,14.312548637390137,-13.539750099182129,-7.6772780418396,-13.018391609191895
0,584877,-9.297417640686035,-2.5139496326446533,4.2727885246276855,-8.881426811218262
0,584878,-11.626502990722656,11.202548027038574,6.207006454467773,-7.688460350036621
0,584878,19.313295364379883,-27.68488883972168,18.059022903442383,-26.999649047851562
0,584878,20.845474243164062,12.134649276733398,-9.382672309875488,13.661073684692383
0,584878,-15.532343864440918,7.453305721282959,-17.707809448242188,12.737089157104492
0,584878,-2.850541830062866,-9.894638061523438,4.859220504760742,-16.071060180664062
0,584878,18.298654556274414,11.25465202331543,6.193711757659912,13.967489242553711
0,584879,0.16744783520698547,-3.9994723796844482,14.528885841369629,17.941865921020508
0,584879,-12.361882209777832,-5.063318729400635,12.814106941223145,-23.303627014160156
0,584879,-1.7630082368850708,7.192556858062744,-24.4749698638916,-12.464478492736816
0,584879,-9.063343048095703,-4.154603004455566,-24.811229705810547,18.206653594970703
0,584879,-19.563007354736328,-20.038902282714844,25.752120971679688,8.200611114501953
0,584879,-1.1967096328735352,16.712879180908203,10.823432922363281,-5.884479522705078
0,584880,19.40204429626465,23.808889389038086,-12.965309143066406,2.635850429534912
0,584880,7.985486030578613,-10.177948951721191,1.3027666807174683,-6.3567914962768555
0,584880,-31.258956909179688,-18.995973587036133,-12.540586471557617,0.19905032217502594
0,584880,-21.82114601135254,-2.754826784133911,-1.2574964761734009,38.146209716796875
0,584880,26.759872436523438,30.859169006347656,10.217024803161621,-15.98060131072998
0,584880,25.573116302490234,-7.840022563934326,-0.0735730528831482,-36.55311584472656
0,584881,-10.795797348022461,-17.91126823425293,1.172173023223877,12.007538795471191
0,584881,-16.04214096069336,7.9761762619018555,-22.152746200561523,6.549551963806152
0,584881,3.03191876411438,4.365050792694092,-2.1480352878570557,11.790942192077637
0,584881,15.232527732849121,-7.214911460876465,28.619766235351562,-4.916060447692871
0,584881,-8.28237533569336,-18.729990005493164,-10.796927452087402,-20.314146041870117
0,584882,-6.9336466789245605,36.213172912597656,-2.582590103149414,-1.6655105352401733
0,584882,15.406624794006348,1.393502116203308,12.981904029846191,-1.812051773071289
0,584882,-13.453893661499023,-42.520721435546875,-7.248776912689209,9.278861045837402
0,584882,0.7886147499084473,25.004106521606445,-6.386720180511475,10.768038749694824
0,584882,4.089405536651611,19.061710357666016,1.737775444984436,-3.7698845863342285
0,584882,10.982617378234863,-17.481401443481445,3.371758222579956,1.404222011566162
0,584883,30.35013198852539,4.765513896942139,12.444036483764648,1.696621298789978
0,584883,-31.602397918701172,4.566900730133057,-2.912222146987915,-10.148381233215332
0,584883,-13.015193939208984,-12.757742881774902,-25.193796157836914,2.2009356021881104
0,584883,23.026172637939453,13.59570598602295,19.93321418762207,0.029978949576616287
0,584883,6.339381217956543,2.2114040851593018,5.142796039581299,43.45795822143555
0,584885,-3.0688250064849854,-20.314207077026367,-14.79037094116211,3.790207624435425
0,584885,-24.111419677734375,-10.153448104858398,17.654722213745117,-78.98863983154297
0,584885,-11.47397518157959,-4.570432662963867,-0.2289706915616989,36.500709533691406
0,584885,8.258756637573242,22.90081024169922,1.0611560344696045,30.6278018951416
0,584885,11.423104286193848,9.282463073730469,-1.3120449781417847,-36.8404655456543
0,584885,12.566843032836914,-6.918881893157959,-13.961092948913574,1.464657187461853
0,584886,-1.8711470365524292,-5.3608551025390625,-11.138855934143066,18.213226318359375
0,584887,1.2628734111785889,-7.250802516937256,-9.985422134399414,9.466917037963867
0,584888,-18.95608139038086,-6.176273822784424,8.518416404724121,-17.767915725708008
0,584889,-28.124422073364258,-1.9939216375350952,21.527103424072266,-1.9204312562942505
0,584892,50.6009521484375,4.671045780181885,-35.385379791259766,-41.99111557006836
0,584894,46.7492561340332,-8.484493255615234,-17.100271224975586,-10.064095497131348
0,584896,-39.104068756103516,6.036252975463867,43.700721740722656,66.75910186767578
0,584898,-35.23091506958008,-2.6087942123413086,-10.123600006103516,3.3944296836853027
0,584900,-3.890970230102539,-4.986937999725342,15.948403358459473,-46.541751861572266
0,584902,-7.710853099822998,40.58150100708008,13.258851051330566,-19.177501678466797
0,584904,13.600041389465332,-5.2100749015808105,-41.16788101196289,36.244895935058594
0,584906,9.686628341674805,-6.702193737030029,47.14779281616211,37.647247314453125
0,584908,7.844022750854492,37.91569519042969,32.243370056152344,-5.134637832641602
0,584910,0.28394684195518494,-32.45198059082031,-52.53534698486328,-6.511281967163086
0,584912,-16.886823654174805,-29.694787979125977,-23.492734909057617,-16.549705505371094
0,584914,16.173179626464844,10.6163969039917,-14.5353364944458,-32.032955169677734
0,585066,-9.604028701782227,27.64112663269043,55.609134674072266,57.248355865478516
0,585066,-16.82472801208496,20.053617477416992,56.27573776245117,43.11111068725586
0,585066,15.975648880004883,-25.837417602539062,-67.44954681396484,-37.60723876953125
0,585066,-8.091984748840332,-23.222213745117188,-27.10555076599121,-11.749112129211426
0,585066,5.333822727203369,-19.840303421020508,31.29298973083496,-15.526680946350098
0,585067,12.626214981079102,0.6364785432815552,-12.336226463317871,-14.006203651428223
0,585067,-24.376554489135742,26.71766471862793,-18.640901565551758,17.392162322998047
0,585067,1.4152863025665283,3.4439568519592285,25.94550132751465,4.103813171386719
0,585067,27.663368225097656,-9.084373474121094,17.6223201751709,-16.964513778686523
0,585067,-3.583967685699463,4.21626615524292,-18.725414276123047,-5.211156845092773
0,585067,-13.88405990600586,-10.133684158325195,-18.971250534057617,-16.384069442749023
0,585068,7.45255708694458,-7.586905002593994,-24.32790184020996,-1.9121325016021729
0,585068,6.692852973937988,21.118696212768555,0.34806200861930847,15.470781326293945
0,585068,-9.74197006225586,2.4302802085876465,30.338363647460938,12.682819366455078
0,585068,0.9687270522117615,-18.948755264282227,21.338180541992188,23.685171127319336
0,585068,27.30812644958496,5.659853935241699,-23.547321319580078,-11.495478630065918
0,585069,-1.6858381032943726,12.742277145385742,-22.135986328125,-16.913299560546875
0,585069,-31.354604721069336,7.228576183319092,40.548274993896484,18.542449951171875
0,585069,5.540982246398926,6.00609016418457,10.13193130493164,5.999725341796875
0,585069,16.378503799438477,-24.5416259765625,-17.71982192993164,-2.7569241523742676
0,585069,-3.336184501647949,7.358570098876953,13.520374298095703,-12.842209815979004
0,585069,-13.354609489440918,17.391490936279297,-21.149267196655273,-5.125604629516602
0,585070,2.5533642768859863,-30.12826156616211,-24.25272560119629,6.884124279022217
0,585070,5.632207870483398,-8.150330543518066,11.804327011108398,-19.242332458496094
0,585070,-15.401313781738281,-11.263056755065918,15.207956314086914,12.081619262695312
0,585070,4.270369529724121,7.943982124328613,3.7403597831726074,18.774885177612305
0,585070,3.8628273010253906,50.25316619873047,0.16228924691677094,-30.177684783935547
0,585070,-7.419864177703857,-12.74582290649414,-10.213098526000977,-18.122758865356445
0,585071,2.0140552520751953,-36.82534408569336,-14.488170623779297,14.265776634216309
0,585071,5.553593635559082,6.681331634521484,13.337746620178223,7.973968982696533
0,585071,-5.601739406585693,11.992185592651367,12.503718376159668,9.455985069274902
0,585071,-7.728659152984619,16.57154083251953,3.47284197807312,7.676354885101318
0,585071,14.008864402770996,0.10377242416143417,-5.814617156982422,-33.58611297607422
0,585071,-3.5810229778289795,-18.444713592529297,-4.890024185180664,-15.696038246154785
0,585072,-2.8192923069000244,6.278903961181641,3.4592251777648926,23.36582374572754
0,585072,9.042219161987305,7.614510536193848,1.0999242067337036,-8.878451347351074
0,585072,-11.11350154876709,-7.0613532066345215,12.606587409973145,4.090157508850098
0,585072,3.477848529815674,0.5040673017501831,-9.791324615478516,42.317806243896484
0,585072,19.868318557739258,-3.03342342376709,-5.110236167907715,4.019258499145508
0,585073,-0.5434231758117676,5.290234088897705,37.08096694946289,-30.827964782714844
0,585073,-3.443882465362549,19.417455673217773,-16.265499114990234,2.3777265548706055
0,585073,5.544332504272461,-23.53895378112793,-34.29442596435547,8.642128944396973
0,585073,-10.024120330810547,-31.842897415161133,25.260984420776367,8.322509765625
0,585073,0.07528456300497055,32.99658203125,3.4607248306274414,-0.39653918147087097
0,585073,3.929722547531128,26.16314697265625,-33.04034423828125,-32.55453872680664
0,585074,-11.226069450378418,-47.006038665771484,-3.087722063064575,17.3138370513916
0,585074,2.9986207485198975,-1.8649559020996094,31.650943756103516,22.146400451660156
0,585074,-0.5376466512680054,59.56557846069336,-0.36975401639938354,-33.04469299316406
0,585074,-6.707549571990967,-10.121012687683105,-22.523441314697266,-16.842187881469727
0,585074,7.289405345916748,-30.874221801757812,20.665578842163086,32.75556945800781
0,585074,-2.3735334873199463,2.9206058979034424,9.722137451171875,20.0350341796875
0,585075,-1.6135283708572388,6.367356300354004,-21.89314842224121,-26.19550132751465
0,585075,12.214578628540039,-8.404206275939941,-1.9580382108688354,-0.6589627265930176
0,585075,3.4550275802612305,5.434091567993164,14.872509956359863,11.294694900512695
0,585075,-1.9189903736114502,7.352725505828857,-5.5339674949646,-11.67909049987793
0,585075,-12.609979629516602,-32.68710708618164,-5.771169185638428,-4.615561485290527
0,585075,-8.184597969055176,2.699197769165039,11.663159370422363,-14.410245895385742
0,585076,4.965790271759033,16.54534912109375,-20.323200225830078,-7.463979721069336
0,585076,-5.09235143661499,-8.228039741516113,-4.416937828063965,-1.5622080564498901
0,585076,-17.062387466430664,-2.8465869426727295,11.4209623336792,-3.4266085624694824
0,585076,-13.460765838623047,-6.940645694732666,-25.04733657836914,1.5833090543746948
0,585076,9.178511619567871,0.6093815565109253,5.153567790985107,13.379239082336426
0,585076,24.342348098754883,26.3620548248291,30.202356338500977,30.207029342651367
0,585077,-1.239132046699524,-0.7331216931343079,1.8408828973770142,-8.26028060913086
0,585077,-14.703581809997559,-15.694225311279297,3.3600752353668213,12.868938446044922
0,585077,30.364810943603516,24.12944793701172,-4.380215644836426,24.94536590576172
0,585077,5.40659761428833,5.777023792266846,-20.178651809692383,-17.74810028076172
0,585077,-34.57626724243164,-18.607616424560547,18.894123077392578,5.45892858505249
0,585077,-0.24020987749099731,-5.238244533538818,24.474712371826172,22.713537216186523
0,585078,20.068044662475586,31.030792236328125,4.134592533111572,7.826694011688232
0,585078,24.231504440307617,11.700562477111816,3.9117379188537598,-29.90715980529785
0,585078,4.2725443840026855,-33.63262939453125,-32.40760803222656,-16.225587844848633
0,585078,-28.080135345458984,-5.860444068908691,-20.017322540283203,22.448692321777344
0,585078,-8.300470352172852,24.65232276916504,28.70482063293457,-0.49089324474334717
0,585078,19.265451431274414,7.071488380432129,-0.14523376524448395,-12.757855415344238
0,585079,-1.9812034368515015,-35.222320556640625,-29.261001586914062,-10.062180519104004
0,585080,3.8118014335632324,-9.514754295349121,15.565746307373047,23.006912231445312
0,585080,16.243850708007812,23.73971939086914,21.137435913085938,23.97164535522461
0,585080,-3.0475053787231445,-7.636199474334717,-33.247554779052734,-23.59063148498535
0,585080,-10.428031921386719,-3.631221055984497,-12.726259231567383,-2.1672780513763428
0,585081,-14.210777282714844,9.48099422454834,29.030664443969727,15.688501358032227
0,585081,-6.079824447631836,-16.324668884277344,15.614738464355469,-15.441219329833984
0,585081,8.120820045471191,-3.059692621231079,-14.366544723510742,-24.591655731201172
0,585082,-13.943843841552734,17.083484649658203,-19.468345642089844,-16.472543716430664
0,585083,-17.00906753540039,-1.8922629356384277,27.087841033935547,-30.583393096923828
0,585086,13.169282913208008,-3.3814806938171387,19.983644485473633,-14.214326858520508
0,585087,8.39561653137207,12.885747909545898,-19.945627212524414,10.856156349182129
0,585090,9.727766036987305,-15.097761154174805,-14.095712661743164,10.128146171569824
0,585091,0.2616041898727417,-25.43719482421875,-30.54976463317871,-37.28474044799805
0,585094,-7.7021260261535645,20.74396514892578,-13.578012466430664,12.58752727508545
0,585096,12.551315307617188,-2.7456557750701904,28.979557037353516,70.84996795654297
0,585098,-1.9418085813522339,5.246073246002197,27.66789436340332,3.168888568878174
0,585100,-26.941112518310547,11.205094337463379,-1.845428228378296,-7.924671649932861
0,585102,3.849193811416626,-25.212839126586914,-11.855207443237305,-25.63971710205078
0,585104,12.679899215698242,22.656938552856445,9.283101081848145,-22.839963912963867
0,585106,-4.24859619140625,15.219574928283691,5.829299449920654,23.890642166137695
0,585108,12.517178535461426,-8.4420166015625,0.7828076481819153,51.03068161010742
0,585110,9.152512550354004,3.211447238922119,-11.626477241516113,-17.510513305664062
0,585112,8.652286529541016,0.5406139492988586,-3.8491570949554443,-31.49591636657715
0,585114,-27.339139938354492,-26.065481185913086,15.772794723510742,27.669538497924805
0,585116,-15.205859184265137,-25.649457931518555,-17.956743240356445,9.899494171142578
0,585118,24.807832717895508,31.926128387451172,-9.279070854187012,-11.935663223266602
0,585120,-5.4853363037109375,30.738662719726562,26.741609573364258,-52.002967834472656
0,585122,2.838669776916504,3.897481679916382,16.30335807800293,12.241581916809082
0,585278,3.506324052810669,-27.907445907592773,-32.41595458984375,69.14226531982422
0,585279,-9.000743865966797,-16.722511291503906,-35.130943298339844,-21.005475997924805
0,585279,1.0721049308776855,25.90438461303711,35.616737365722656,-15.59454345703125
0,585279,-7.786330223083496,-1.7765618562698364,27.164812088012695,20.833847045898438
0,585279,-1.3398091793060303,-5.471812725067139,-8.131104469299316,-33.9726448059082
0,585279,21.539461135864258,12.928939819335938,-1.5237263441085815,-18.265140533447266
0,585279,1.7045360803604126,-6.408806324005127,-10.708822250366211,14.249939918518066
0,585280,-10.970635414123535,-21.17699432373047,-2.5075676441192627,7.546929836273193
0,585280,5.317927837371826,-4.740791320800781,2.246389150619507,29.394203186035156
0,585280,6.229494094848633,16.217300415039062,-3.4199748039245605,5.442594528198242
0,585280,7.674113750457764,14.622958183288574,-2.060309410095215,-26.8814697265625
0,585280,-16.113479614257812,-5.17869234085083,-2.3565149307250977,9.858504295349121
0,585280,-25.728519439697266,-20.518064498901367,3.199633836746216,19.136371612548828
0,585281,13.79944133758545,-3.062068462371826,-11.061973571777344,-29.752336502075195
0,585281,4.681687355041504,10.144200325012207,-8.149214744567871,-11.204998970031738
0,585281,-15.810324668884277,5.957291126251221,26.85957908630371,24.69560432434082
0,585281,16.549955368041992,10.2987642288208,2.394667387008667,-2.064892292022705
0,585281,18.518789291381836,0.5955826640129089,-11.838238716125488,-26.644927978515625
0,585281,0.04989081248641014,-6.384833335876465,13.054678916931152,-22.35550880432129
0,585282,-14.580784797668457,-3.2229301929473877,-11.812893867492676,18.324108123779297
0,585282,-11.93730354309082,-13.635662078857422,-1.9054391384124756,26.739723205566406
0,585282,5.394808769226074,-8.313392639160156,23.05006980895996,-7.5128655433654785
0,585282,2.1178784370422363,19.323974609375,2.2074313163757324,-2.5393385887145996
0,585282,0.5849514603614807,23.848896026611328,-11.893166542053223,13.15868854522705
0,585282,-4.7356343269348145,-22.15870475769043,-11.913541793823242,-5.895110607147217
0,585283,-4.717156410217285,-18.40731430053711,7.214529037475586,-5.596407413482666
0,585283,-7.148369312286377,19.403539657592773,-6.617281436920166,3.569321393966675
0,585283,5.067335605621338,9.339890480041504,-13.638010025024414,-7.73251485824585
0,585283,22.031476974487305,-15.021712303161621,2.8965871334075928,-3.42730450630188
0,585283,-2.036750078201294,-11.762191772460938,-12.103032112121582,19.656259536743164
0,585284,-5.05286979675293,9.205276489257812,15.077840805053711,-1.8833444118499756
0,585284,-7.91880989074707,-13.242008209228516,8.491011619567871,-8.119009017944336
0,585284,-10.82440185546875,-0.9167605638504028,-7.398929119110107,26.123178482055664
0,585284,21.558921813964844,26.110774993896484,30.077438354492188,-5.484318256378174
0,585284,14.313955307006836,-1.5772548913955688,-0.897968590259552,-13.116846084594727
0,585284,-25.474294662475586,-6.3960089683532715,-7.940368175506592,-10.187792778015137
0,585285,-12.712451934814453,13.698211669921875,25.083803176879883,-11.218964576721191
0,585285,37.087440490722656,-3.330756425857544,-18.14164924621582,12.897382736206055
0,585285,-11.460389137268066,-19.69197654724121,-43.317569732666016,2.6930654048919678
0,585285,-34.035179138183594,24.99690818786621,6.327029705047607,3.815666437149048
0,585285,43.249603271484375,24.41472053527832,22.752927780151367,3.1867120265960693
0,585285,9.703347206115723,-35.664371490478516,2.1753649711608887,-11.884873390197754
0,585286,-25.345556259155273,-3.728663444519043,-7.845414638519287,9.288515090942383
0,585286,8.446409225463867,18.505056381225586,-8.232892990112305,22.529680252075195
0,585286,4.311837673187256,-12.039081573486328,1.9697933197021484,-26.673364639282227
0,585286,6.1924920082092285,-0.6780204176902771,-15.270031929016113,-40.64824676513672
0,585286,-2.959688425064087,-7.894739627838135,11.025838851928711,3.257014513015747
0,585286,-12.589694023132324,-3.5759408473968506,36.877323150634766,21.935749053955078
0,585287,-5.650001049041748,16.582324981689453,-27.521404266357422,9.506091117858887
0,585287,6.659317970275879,1.8421642780303955,-17.4497013092041,-4.517409801483154
0,585287,4.716172218322754,-27.486801147460938,28.716075897216797,4.138581275939941
0,585287,-11.309307098388672,-20.4256534576416,0.34595417976379395,9.260573387145996
0,585287,-3.600503921508789,2.418377637863159,-24.9483585357666,-18.393569946289062
0,585287,-16.2596378326416,9.503493309020996,-3.9748663902282715,0.9353619813919067
0,585288,-3.903064250946045,6.848672866821289,11.855581283569336,21.778209686279297
0,585288,16.715967178344727,-14.522344589233398,-1.0695154666900635,-9.362850189208984
0,585288,-1.4927793741226196,0.9842861294746399,13.937775611877441,9.377446174621582
0,585288,22.168296813964844,22.71478843688965,12.90019416809082,9.48642349243164
0,585288,24.496490478515625,17.998214721679688,-15.83088493347168,-30.361263275146484
0,585288,-18.545284271240234,-5.3422369956970215,-13.68574047088623,-0.7785717248916626
0,585289,-23.14723777770996,-8.313943862915039,25.955364227294922,23.084495544433594
0,585289,17.162158966064453,39.77493667602539,10.310417175292969,-14.355250358581543
0,585289,18.357322692871094,-3.566512107849121,-22.673330307006836,-2.7363736629486084
0,585289,-22.44369125366211,-30.716135025024414,-3.1810226440429688,17.873249053955078
0,585289,-18.450998306274414,12.552105903625488,-7.738351345062256,-8.378076553344727
0,585289,0.337522953748703,8.528640747070312,-2.397099018096924,2.4549288749694824
0,585290,16.773984909057617,4.425413131713867,14.32890796661377,18.6193790435791
0,585290,3.9600157737731934,-11.322709083557129,-14.672697067260742,0.2154439389705658
0,585290,-25.284648895263672,-16.94709014892578,-16.54474449157715,-1.682018756866455
0,585290,0.6655941009521484,-0.7679407000541687,15.163975715637207,-2.811908721923828
0,585290,7.73807430267334,13.025703430175781,-8.937779426574707,-17.070621490478516
0,585291,-6.08276891708374,-5.537632465362549,13.545763969421387,-5.934595584869385
0,585291,11.56187915802002,-28.41639518737793,21.92900276184082,-6.637752056121826
0,585291,1.9944299459457397,5.579656600952148,-31.930213928222656,-1.6265615224838257
0,585291,0.5839927196502686,10.102787971496582,7.582819938659668,7.3923540115356445
0,585291,14.322027206420898,-8.020862579345703,17.6835994720459,-21.206886291503906
0,585291,-12.086884498596191,-2.774350643157959,-13.258353233337402,7.575606822967529
0,585291,-12.605497360229492,-8.120905876159668,6.485363483428955,2.8552818298339844
0,585293,13.00885009765625,-6.600887298583984,16.386518478393555,-18.010154724121094
0,585293,7.138263702392578,23.465591430664062,-5.645089149475098,24.63693618774414
0,585293,-4.52290153503418,36.34611129760742,-19.857702255249023,-6.506977558135986
0,585293,3.708738088607788,-20.59796905517578,10.914999961853027,-5.9628825187683105
0,585293,11.470649719238281,-8.900968551635742,11.98487663269043,14.736177444458008
0,585294,0.14639073610305786,28.382047653198242,3.772625207901001,-18.2745361328125
0,585294,-23.16417121887207,-29.481281280517578,-1.4975359439849854,8.150690078735352
0,585295,-23.29633903503418,-19.609487533569336,-22.738210678100586,-2.865851879119873
0,585296,6.9609174728393555,38.021240234375,5.3519110679626465,-0.5875822901725769
0,585298,25.924068450927734,4.115647792816162,9.482111930847168,53.73589324951172
0,585300,-7.639557361602783,-26.356338500976562,-20.749372482299805,14.947025299072266
0,585302,-28.81096839904785,14.744218826293945,6.121351718902588,-41.5880012512207
0,585304,22.59978485107422,14.191832542419434,32.231048583984375,5.501522064208984
0,585306,5.6753411293029785,-28.706817626953125,-9.19798469543457,52.22585678100586
0,585308,-1.5710703134536743,-13.006464958190918,-25.32787322998047,-72.86734008789062
0,585310,11.754450798034668,17.848234176635742,2.718923568725586,-67.12674713134766
0,585313,-17.45150375366211,1.5340477228164673,-13.616168975830078,63.340824127197266
0,585314,18.867443084716797,-3.160283088684082,-7.534760475158691,25.483552932739258
0,585317,-10.766480445861816,9.68695068359375,21.96778106689453,5.52962589263916
0,585318,-9.173079490661621,-11.564193725585938,6.977892875671387,-3.5923497676849365
0,585321,20.826797485351562,-7.916780471801758,-2.3347203731536865,-23.282384872436523
0,585322,-24.039793014526367,12.881875038146973,5.181243419647217,29.685571670532227
0,585325,-7.013347148895264,6.190308570861816,5.694651126861572,-3.831282138824463
0,585326,8.050281524658203,8.0410737991333,-9.627372741699219,-45.67679977416992
0,585327,12.06640625,-0.32608380913734436,3.436556100845337,-29.716150283813477
0,585330,0.33865678310394287,-7.592614650726318,1.3038181066513062,23.742422103881836
0,585331,7.054689407348633,2.690156936645508,-6.6800217628479,79.99175262451172
0,585334,31.26590919494629,0.7008004188537598,13.844259262084961,-25.29839515686035
0,585335,-20.797433853149414,-14.332284927368164,-12.026777267456055,-58.269954681396484
0,585338,-23.66409683227539,-7.139239311218262,-23.786224365234375,36.94804382324219
0,585339,9.144874572753906,2.322960615158081,18.074176788330078,29.482942581176758
0,585342,7.914103031158447,12.4589204788208,26.587936401367188,-47.81898880004883
1,586606,6.56937837600708,10.726096153259277,-20.07155990600586,-2.075011730194092
1,586609,-22.138160705566406,-37.326168060302734,-24.1226749420166,27.383808135986328
1,586610,-9.35291862487793,-5.749609470367432,6.569040298461914,-20.157920837402344
1,586613,15.617058753967285,37.38114929199219,-1.6249922513961792,27.451074600219727
1,586614,-5.0188469886779785,-14.636367797851562,10.599177360534668,-12.834670066833496
1,586615,-1.630537509918213,3.517561435699463,19.19524383544922,4.368825912475586
1,586622,-11.445629119873047,50.320953369140625,12.783636093139648,34.63029861450195
1,586622,-13.653632164001465,-11.873343467712402,13.396368026733398,-45.57441711425781
1,586623,12.735630989074707,-39.65274429321289,-22.29570960998535,10.811755180358887
1,586624,-2.0250771045684814,8.339621543884277,-9.3673095703125,25.394874572753906
1,586627,7.524620056152344,0.04775892198085785,-4.660515308380127,-34.6561393737793
1,586628,23.972929000854492,-23.16459083557129,-24.30449104309082,-46.0347785949707
1,586629,7.939967155456543,-2.3895983695983887,1.7875391244888306,-7.128119945526123
1,586632,-8.693939208984375,24.46979331970215,10.868002891540527,46.35785675048828
1,586633,-14.686802864074707,0.7262962460517883,-2.4295814037323,38.2233772277832
1,586636,6.97978401184082,-32.87259292602539,0.6503221988677979,-7.803577423095703
1,586637,-10.402130126953125,9.25784969329834,14.597685813903809,-26.40740203857422
1,586640,4.727513313293457,44.99280548095703,6.037856578826904,15.152878761291504
1,586641,24.488420486450195,-17.988561630249023,14.14427375793457,11.007099151611328
1,586644,-22.93967628479004,-29.947006225585938,-7.853839874267578,-38.87828063964844
1,586663,-13.674409866333008,30.180585861206055,-20.860111236572266,-6.464293956756592
1,586663,-6.082995891571045,6.3394317626953125,17.532987594604492,49.372737884521484
1,586664,-6.283243179321289,3.906538963317871,-0.7145164608955383,18.431495666503906
1,586664,13.054571151733398,10.149621963500977,-14.533212661743164,-26.117820739746094
1,586664,2.41668963432312,-32.15320587158203,3.3098855018615723,-30.280166625976562
1,586664,-6.15431022644043,-7.7686052322387695,11.540691375732422,-8.218241691589355
1,586664,0.372325599193573,4.520786285400391,1.330636978149414,-2.81665301322937
1,586664,19.037620544433594,7.670067310333252,-18.260942459106445,-6.0755791664123535
1,586665,10.47200870513916,1.7272117137908936,-10.759808540344238,-1.0511161088943481
1,586665,-2.827918291091919,-26.069318771362305,3.052849531173706,17.873258590698242
1,586666,0.9423943161964417,22.585594177246094,14.149093627929688,20.028579711914062
1,586667,2.9197211265563965,4.880198001861572,0.28997570276260376,1.1004232168197632
1,586670,3.0259673595428467,-19.175891876220703,-29.23743438720703,5.264832496643066
1,586672,-3.5123584270477295,26.19849967956543,1.8557325601577759,-8.766327857971191
1,586674,10.254607200622559,1.936789631843567,28.758563995361328,16.628217697143555
1,586676,-0.8732948303222656,-11.70492935180664,5.353150367736816,-10.733153343200684
1,586678,-35.20293426513672,12.88910961151123,-3.8917949199676514,-27.44158172607422
1,586680,3.3450136184692383,3.534959077835083,-7.673389911651611,44.70225143432617
1,586682,23.79186248779297,-20.244112014770508,3.2633206844329834,1.0573986768722534
1,586684,-24.916318893432617,12.121295928955078,6.67866325378418,-42.23868179321289
1,586686,-8.737004280090332,17.01262664794922,-0.34544098377227783,-1.228896141052246
1,586688,16.0963191986084,-32.08252716064453,8.558271408081055,29.795419692993164
1,586720,-6.616504192352295,-2.215233564376831,1.5761293172836304,5.079184532165527
1,586720,-8.521379470825195,28.987346649169922,1.667952060699463,-28.511444091796875
1,586720,-5.89791202545166,-16.437236785888672,-1.6120688915252686,-3.6049370765686035
1,586720,8.53389835357666,-23.96316909790039,-9.829920768737793,5.901471138000488
1,586720,12.561569213867188,24.485267639160156,-12.758498191833496,-11.921819686889648
1,586721,7.10779333114624,29.427433013916016,-5.898319721221924,-13.888640403747559
1,586721,5.909440517425537,-11.476123809814453,13.663697242736816,-1.7092366218566895
1,586721,-3.2134642601013184,-46.29415512084961,-12.217191696166992,15.958943367004395
1,586721,3.6178011894226074,-9.32105541229248,-16.02262306213379,25.84257698059082
1,586721,-4.104452133178711,22.953327178955078,35.488037109375,2.1556084156036377
1,586722,-22.74303436279297,7.872117519378662,22.13246726989746,-5.98897123336792
1,586722,1.4811097383499146,21.033506393432617,-20.690555572509766,3.862147808074951
1,586722,23.068256378173828,-17.10807228088379,-13.228632926940918,-0.8712981939315796
1,586722,-4.8087944984436035,-13.832428932189941,8.104520797729492,17.020545959472656
1,586722,-7.1985764503479,26.886899948120117,-2.644991874694824,13.826112747192383
1,586722,8.93606948852539,-9.704398155212402,-20.745101928710938,-30.783105850219727
1,586724,-1.8734523057937622,-18.4846134185791,5.106235504150391,-17.74498748779297
1,586724,-9.071632385253906,0.6092998385429382,9.398056030273438,35.92707824707031
1,586727,-5.742428302764893,6.559484004974365,-3.325256824493408,-2.1242644786834717
1,586728,3.766011953353882,5.200064182281494,2.1471750736236572,-41.26866149902344
1,586731,26.544029235839844,-7.809535026550293,-25.559282302856445,-11.21656322479248
1,586732,4.219696044921875,-2.4459707736968994,-2.2032015323638916,-0.3942694365978241
1,586735,-22.832029342651367,14.070592880249023,30.734296798706055,9.266221046447754
1,586736,6.978179454803467,3.194467306137085,9.399484634399414,17.052059173583984
1,586739,-3.2502143383026123,3.882297992706299,6.641580581665039,26.913766860961914
1,586740,-9.888449668884277,-5.087060451507568,-5.067381858825684,11.771477699279785
1,586741,20.05570411682129,-19.429744720458984,-1.666245460510254,-32.13854217529297
1,586744,-12.11054515838623,23.184654235839844,1.9584819078445435,-66.67414093017578
1,586745,-17.295921325683594,17.68004035949707,-16.903966903686523,-15.578802108764648
1,586748,27.48228645324707,-16.7157039642334,5.1033759117126465,93.97579956054688
1,586749,-1.3982229232788086,-13.785972595214844,9.563440322875977,13.297541618347168
1,586795,-19.072538375854492,-21.34406280517578,-21.51622200012207,-35.98210144042969
1,586795,-1.5921725034713745,-1.5883793830871582,12.217955589294434,34.26586151123047
1,586795,-11.338898658752441,16.035282135009766,12.97020435333252,-14.889297485351562
1,586795,4.536289215087891,1.4763281345367432,-30.796649932861328,-39.2125358581543
1,586795,19.77680778503418,-3.892312526702881,9.783571243286133,18.09823226928711
1,586796,-0.029803555458784103,2.2461671829223633,22.534603118896484,33.707496643066406
1,586796,-17.18328857421875,16.044858932495117,-21.924922943115234,8.289142608642578
1,586796,0.09441333264112473,16.731904983520508,-11.23929500579834,-3.99039626121521
1,586796,20.2811336517334,-6.32689905166626,18.127273559570312,-5.404510974884033
1,586796,15.083186149597168,-0.31416603922843933,16.75623321533203,-12.565584182739258
1,586796,-14.671277046203613,3.8619794845581055,0.7530350685119629,-24.858558654785156
1,586797,-26.734167098999023,-5.122149467468262,-5.122057914733887,-2.5187854766845703
1,586797,1.799854040145874,1.2392165660858154,4.842958450317383,11.879056930541992
1,586797,22.502655029296875,-16.13080596923828,-7.517663478851318,-13.9722261428833
1,586797,23.957538604736328,-11.260235786437988,-26.83129119873047,-4.534385681152344
1,586797,-19.644681930541992,12.139626502990723,4.1950860023498535,11.079357147216797
1,586797,-22.13958740234375,-0.6908727288246155,20.0279541015625,7.751308917999268
1,586798,8.354920387268066,-6.436814308166504,-1.716194748878479,4.491014003753662
1,586798,-16.027040481567383,-4.031411647796631,7.4723639488220215,6.975233554840088
1,586798,1.6689631938934326,-12.776399612426758,3.4607930183410645,9.959321022033691
1,586798,17.409074783325195,8.03305435180664,-6.435314655303955,-0.3816532790660858
1,586798,-8.025270462036133,45.57521057128906,8.311408996582031,-16.643144607543945
1,586800,7.752683162689209,2.0291593074798584,-2.5273277759552,-3.961045742034912
1,586800,8.922264099121094,-39.40411376953125,-9.226478576660156,24.12386703491211
1,586800,-9.262908935546875,11.021183013916016,5.107405185699463,-9.834921836853027
1,586801,3.3702244758605957,8.098105430603027,8.727218627929688,-20.24993896484375
1,586804,5.14430570602417,-18.96826171875,-4.969040393829346,3.6366541385650635
1,586805,-11.192745208740234,6.630216121673584,-20.225826263427734,13.744141578674316
1,586808,16.234567642211914,8.286721229553223,-11.320262908935547,0.5735604763031006
1,586809,17.634475708007812,1.7489339113235474,16.34370994567871,-27.512718200683594
1,586812,-34.081199645996094,-11.77126693725586,-7.327298641204834,5.254171371459961
1,586813,3.009531259536743,-15.600176811218262,-25.23322296142578,2.0548126697540283
1,586816,27.25176239013672,6.327992916107178,25.242734909057617,-1.451146125793457
1,586817,-25.852645874023438,19.0773983001709,12.938783645629883,38.48085403442383
1,586820,-21.347286224365234,4.063600540161133,-0.6456455588340759,3.537179946899414
1,586821,13.198487281799316,-24.951278686523438,-1.0231194496154785,-50.98464584350586
1,586824,0.0796932503581047,14.849808692932129,-7.625526428222656,3.8413138389587402
1,586825,7.336537837982178,26.368202209472656,20.378442764282227,53.248897552490234
1,586828,8.66943073272705,-21.794801712036133,-9.706778526306152,-18.804914474487305
1,586885,-16.932432174682617,-9.760555267333984,-8.467577934265137,-39.30303955078125
1,586885,3.6816415786743164,28.155105590820312,37.95058059692383,16.967575073242188
1,586885,6.663545608520508,12.50762939453125,-2.632927894592285,23.392391204833984
1,586885,3.9169082641601562,-17.509252548217773,-38.25484085083008,-29.735673904418945
1,586886,-5.178323745727539,-7.3814897537231445,-9.562457084655762,-12.592788696289062
1,586886,-10.631897926330566,-9.442550659179688,19.46720314025879,26.998815536499023
1,586886,15.65848159790039,-0.2339341640472412,4.879266262054443,-6.682715892791748
1,586886,12.890450477600098,3.485567331314087,-15.701172828674316,0.8817523121833801
1,586886,-8.976553916931152,-35.680599212646484,-14.189860343933105,11.666479110717773
1,586886,-17.68642234802246,8.62968635559082,-5.272495746612549,8.726980209350586
1,586887,8.085458755493164,44.43452072143555,22.95810890197754,9.18437385559082
1,586887,15.777437210083008,-11.500140190124512,5.062585353851318,-18.915966033935547
1,586887,-11.497937202453613,-32.72591781616211,-6.8071370124816895,-24.0164852142334
1,586887,-20.396804809570312,-2.824899673461914,7.517611503601074,17.24481964111328
1,586887,-1.5202584266662598,17.867002487182617,-14.40981674194336,19.80268096923828
1,586888,13.982451438903809,2.6762309074401855,-0.22108305990695953,-20.40056610107422
1,586888,11.989561080932617,-7.5847086906433105,16.993606567382812,-18.88921356201172
1,586888,3.3328728675842285,3.616417169570923,-3.557210683822632,11.898828506469727
1,586888,-12.198087692260742,5.24710750579834,7.638665199279785,17.075668334960938
1,586888,4.7429914474487305,5.947774887084961,3.684230089187622,4.551488399505615
1,586888,9.595660209655762,5.633790969848633,-13.25262451171875,5.0040483474731445
1,586889,-13.851778030395508,-13.058058738708496,1.7341413497924805,-13.970016479492188
1,586889,-5.2643351554870605,5.30667781829834,15.488557815551758,-8.38673210144043
1,586889,3.5622200965881348,15.014666557312012,-4.130751609802246,3.647526979446411
1,586889,12.216814994812012,-14.525447845458984,-15.35861873626709,-18.403806686401367
1,586889,9.560625076293945,-6.28300142288208,12.37764835357666,2.4247217178344727
1,586889,0.05105070024728775,11.559928894042969,6.220073223114014,21.19892120361328
1,586890,-9.564423561096191,-17.955989837646484,-12.308098793029785,-6.776220798492432
1,586891,-34.95390701293945,-29.96921730041504,-10.682490348815918,-12.649137496948242
1,586891,-7.282418251037598,20.747779846191406,-3.5452356338500977,-6.9415459632873535
1,586891,30.220239639282227,36.81852340698242,14.024554252624512,-5.2744317054748535
1,586893,4.674996376037598,5.447790145874023,5.574141979217529,-2.237997055053711
1,586894,3.1205623149871826,-14.539350509643555,-20.082883834838867,21.770305633544922
1,586897,-1.3801130056381226,-4.4095377922058105,0.22248144447803497,42.10171127319336
1,586898,-13.539103507995605,4.995179176330566,15.496698379516602,12.14191722869873
1,586901,7.714808464050293,0.49088364839553833,15.561606407165527,-41.49220657348633
1,586902,-17.60375213623047,11.462021827697754,-20.003162384033203,-14.397375106811523
1,586905,13.027440071105957,16.931779861450195,-10.42127799987793,18.642915725708008
1,586906,23.803714752197266,-0.9926974773406982,45.560157775878906,-11.983633995056152
1,586907,-29.33940887451172,-30.96550750732422,-13.833610534667969,0.8301522135734558
1,586910,2.9543356895446777,-27.08260726928711,-22.137304306030273,-9.872551918029785
1,586911,20.748231887817383,-9.79934024810791,-13.934425354003906,9.255144119262695
1,586914,10.300710678100586,19.155183792114258,7.389851093292236,29.30618667602539
1,586915,4.870218276977539,11.606783866882324,37.0770263671875,-15.326869010925293
1,586918,-14.278075218200684,-24.566207885742188,-25.405210494995117,-34.76441955566406
1,586919,-5.029771327972412,29.11396026611328,-20.65618324279785,2.532773971557617
1,586922,-6.464196681976318,20.83673667907715,9.6189603805542,26.832233428955078
1,586992,38.727352142333984,-15.914308547973633,9.899277687072754,8.81854248046875
1,586992,54.49024200439453,1.5721153020858765,-7.1764020919799805,5.533499240875244
1,586992,-53.96240997314453,-7.181207180023193,4.909463405609131,-10.559358596801758
1,586992,-47.6480598449707,2.878197431564331,30.1007137298584,11.598106384277344
1,586993,13.94448184967041,0.6333068013191223,-5.925883769989014,-3.6112825870513916
1,586993,-6.176393032073975,-5.263848781585693,-26.405603408813477,-26.41741180419922
1,586993,-31.778783798217773,-7.604287147521973,-23.23004913330078,10.347129821777344
1,586993,-1.6990023851394653,-8.96874713897705,-2.5986268520355225,-15.159385681152344
1,586993,24.463054656982422,-5.009199142456055,16.09165382385254,-11.493037223815918
1,586993,-14.854207992553711,1.0493119955062866,-8.162405014038086,12.833288192749023
1,586994,-12.053409576416016,2.1739754676818848,0.19238007068634033,8.022283554077148
1,586994,19.588764190673828,3.8761045932769775,28.881011962890625,9.992171287536621
1,586994,6.41042423248291,25.632116317749023,1.673680067062378,-16.306045532226562
1,586994,-12.644767761230469,-3.5560338497161865,-26.146886825561523,1.245066523551941
1,586994,18.4595890045166,-17.096298217773438,11.318211555480957,13.027979850769043
1,586995,12.986218452453613,10.06178092956543,16.693950653076172,-10.882719039916992
1,586995,-18.560009002685547,5.114602088928223,-12.558605194091797,10.481998443603516
1,586995,4.386935234069824,-2.2275807857513428,-6.71686315536499,-10.285744667053223
1,586995,0.11219252645969391,-14.45235824584961,-1.5979995727539062,-11.554015159606934
1,586995,-3.800523042678833,2.488126754760742,12.245010375976562,16.63615608215332
1,586995,-11.7333984375,20.83997344970703,0.06810905039310455,-2.6340320110321045
1,586996,-13.057061195373535,1.3476996421813965,-12.643889427185059,7.057520389556885
1,586996,14.335039138793945,7.444797992706299,19.232608795166016,-0.9649277925491333
1,586996,1.5888078212738037,-17.69244956970215,-5.674534797668457,-16.36073112487793
1,586996,0.7023288011550903,-20.87774658203125,-19.08614158630371,16.920440673828125
1,586996,15.47014331817627,34.27090835571289,22.44462776184082,16.53278160095215
1,586996,4.064855575561523,-0.3296631872653961,5.725752353668213,-19.697521209716797
1,586997,-2.4762179851531982,-15.348793029785156,-4.662657737731934,-10.426506996154785
1,586997,10.408230781555176,9.440646171569824,-1.8781903982162476,10.261731147766113
1,586997,4.977187633514404,-17.959430694580078,-10.859034538269043,9.295308113098145
1,586997,-7.670853614807129,14.9660005569458,0.6311393976211548,2.4756417274475098
1,586997,-9.442159652709961,17.836977005004883,3.4464502334594727,-15.370718955993652
1,586998,-16.24650764465332,-32.980411529541016,-4.985095977783203,-5.096241474151611
1,586998,0.11548233777284622,-4.532162666320801,-9.339306831359863,11.0797700881958
1,586998,27.344806671142578,14.11386489868164,8.596036911010742,-14.814183235168457
1,586999,0.6742676496505737,0.7250093817710876,4.236407279968262,11.553793907165527
1,586999,-9.35206127166748,14.341056823730469,-20.249774932861328,33.052703857421875
1,586999,5.628880500793457,-19.463796615600586,-13.774369239807129,-4.507242679595947
1,587001,-19.076616287231445,-4.247426509857178,17.18101692199707,-31.85286521911621
1,587002,-16.768335342407227,16.099620819091797,46.56300354003906,-55.046077728271484
1,587003,16.150402069091797,-16.816268920898438,44.03529739379883,17.504100799560547
1,587006,19.833703994750977,16.711528778076172,2.511686325073242,71.62576293945312
1,587007,6.682617664337158,-13.503663063049316,-28.913087844848633,-1.0300973653793335
1,587010,33.25636672973633,-11.400177955627441,-32.6057243347168,-10.426000595092773
1,587011,8.652509689331055,19.542438507080078,-33.577083587646484,-7.141149997711182
1,587014,-48.709571838378906,-23.333995819091797,-30.23050308227539,-37.83209228515625
1,587015,-19.60237693786621,0.5378125309944153,35.67573928833008,6.608735084533691
1,587018,-0.2968722879886627,18.767183303833008,88.65067291259766,40.6237907409668
1,587020,-7.381319046020508,10.136336326599121,-15.114761352539062,0.7276695966720581
1,587022,-1.9337271451950073,12.901453971862793,-74.69990539550781,-30.845197677612305
1,587024,26.905136108398438,-14.803613662719727,-37.393611907958984,11.781011581420898
1,587026,-0.9395036101341248,-18.660438537597656,-30.266246795654297,-2.6791634559631348
1,587028,-34.4057502746582,-16.236873626708984,28.455366134643555,-20.82655906677246
1,587030,17.295005798339844,12.41716480255127,105.57462310791016,-2.410810708999634
1,587032,41.64873504638672,34.25187683105469,38.480751037597656,34.97583770751953
1,587114,14.704804420471191,-8.169393539428711,23.07431411743164,34.99584197998047
1,587114,-44.65278625488281,0.6555694341659546,41.832210540771484,-66.13129425048828
1,587114,5.041958808898926,15.57266902923584,-71.1843490600586,-24.053112030029297
1,587115,41.28709030151367,-18.64026641845703,-61.987953186035156,51.050262451171875
1,587115,-25.48657989501953,-16.66921043395996,-4.870678901672363,20.280912399291992
1,587115,-5.925707817077637,8.535994529724121,-8.895634651184082,6.543847560882568
1,587115,26.138334274291992,12.867196083068848,-28.195138931274414,4.077890872955322
1,587115,-10.060774803161621,13.970199584960938,-28.359399795532227,-18.84136390686035
1,587116,-29.028169631958008,-7.669370174407959,4.776851177215576,-1.8254448175430298
1,587116,6.090845108032227,-4.699207782745361,-16.34929656982422,11.548243522644043
1,587116,20.38572883605957,-6.333876609802246,-35.26435852050781,-20.694358825683594
1,587116,-12.4729585647583,-22.16499137878418,-10.986241340637207,-0.9821642637252808
1,587116,-1.8761404752731323,9.583616256713867,4.251330852508545,16.851917266845703
1,587116,9.108729362487793,5.045146942138672,27.227371215820312,-7.062236785888672
1,587117,-23.189085006713867,-1.9047973155975342,45.942726135253906,-14.808442115783691
1,587117,-10.101509094238281,-5.462912559509277,8.410454750061035,-25.16764259338379
1,587117,-7.743917942047119,-15.90883731842041,-2.031972885131836,0.8414148688316345
1,587117,-20.6846981048584,6.080929756164551,35.93191146850586,20.349533081054688
1,587117,5.097164630889893,2.7098796367645264,9.69847583770752,-23.050344467163086
1,587117,14.069977760314941,-10.894886016845703,-18.757898330688477,-9.193292617797852
1,587118,-21.69647216796875,5.115728378295898,-0.29777368903160095,19.93357276916504
1,587118,0.8048151731491089,3.202143669128418,-10.868698120117188,-2.6759159564971924
1,587118,22.746572494506836,-19.16857147216797,-4.148181438446045,19.835540771484375
1,587118,-2.2439169883728027,-4.629709243774414,10.110160827636719,20.857746124267578
1,587118,17.155067443847656,9.832169532775879,7.726602554321289,-14.876338005065918
1,587118,10.515961647033691,8.317476272583008,1.5760098695755005,-5.211392402648926
1,587119,6.510858535766602,13.059744834899902,-17.449182510375977,-16.106708526611328
1,587119,-6.336073875427246,7.149651050567627,-7.493680000305176,-5.968506336212158
1,587119,-36.783260345458984,3.198540687561035,8.648421287536621,11.406787872314453
1,587119,10.202630996704102,9.427865028381348,13.7772855758667,-7.098612308502197
1,587119,31.174386978149414,9.082054138183594,-1.4455877542495728,-16.60883903503418
1,587119,-12.063155174255371,-9.532702445983887,-15.117070198059082,-21.131471633911133
1,587120,-8.095145225524902,-0.3302381932735443,4.921711444854736,9.0439453125
1,587120,-1.8628883361816406,3.9443957805633545,18.31855010986328,17.14315414428711
1,587120,-24.60747718811035,-5.635169506072998,20.75558090209961,-13.305804252624512
1,587120,9.259346008300781,9.099884986877441,-5.212942600250244,-5.460013389587402
1,587120,23.743640899658203,-16.580724716186523,-17.365768432617188,26.080623626708984
1,587120,-13.031338691711426,-32.976097106933594,11.457763671875,12.834979057312012
1,587121,-3.3215436935424805,22.048053741455078,13.514327049255371,7.303043842315674
1,587121,18.12812042236328,44.19578552246094,-16.14303970336914,12.586997985839844
1,587121,-1.3328253030776978,-9.47867488861084,-13.542518615722656,-16.353839874267578
1,587122,3.6947104930877686,-17.093109130859375,-3.2955856323242188,27.808513641357422
1,587122,22.364044189453125,3.562950849533081,-9.686759948730469,38.56443405151367
1,587123,-4.301065921783447,-17.676761627197266,4.744126796722412,-21.145822525024414
1,587123,-14.570295333862305,1.5585310459136963,-9.592071533203125,-14.815035820007324
1,587124,-5.521466255187988,52.084716796875,11.620235443115234,-1.3671619892120361
1,587125,9.436422348022461,-1.997809648513794,24.224897384643555,-8.596792221069336
1,587128,58.55550765991211,-68.95389556884766,-12.899587631225586,13.412219047546387
1,587129,-8.997790336608887,-17.901559829711914,38.1290168762207,-32.31504440307617
1,587132,-74.14453125,30.70524024963379,63.33327102661133,-20.751813888549805
1,587133,18.337194442749023,19.97480583190918,-2.7769346237182617,54.78742599487305
1,587136,2.6534311771392822,-9.38472843170166,-96.24800872802734,-8.393665313720703
1,587138,-1.7524980306625366,-6.251070022583008,-118.16081237792969,-21.749128341674805
1,587140,27.179367065429688,16.439638137817383,42.94428634643555,13.246475219726562
1,587142,-21.47477149963379,-17.460296630859375,89.45777893066406,4.224616050720215
1,587144,-20.020769119262695,-13.645147323608398,-1.710847020149231,-38.21778106689453
1,587146,-23.473936080932617,21.40229606628418,11.941815376281738,-47.81629943847656
1,587148,-2.3575167655944824,-4.913100719451904,-156.1770782470703,6.456018924713135
1,587150,5.593385219573975,-4.447633266448975,-119.31599426269531,40.709144592285156
1,587152,-7.390793323516846,15.595170021057129,253.37762451171875,59.495059967041016
1,587154,74.72783660888672,-0.2635628879070282,162.94369506835938,39.47311019897461
1,587156,71.15257263183594,-11.346238136291504,19.300905227661133,-24.28959846496582
1,587158,-40.400718688964844,14.625877380371094,45.648765563964844,-50.532405853271484
1,587253,-64.6540298461914,-19.81570053100586,-143.65582275390625,8.590100288391113
1,587253,-35.907958984375,-27.412826538085938,-76.12967681884766,29.184932708740234
1,587254,5.60594367980957,40.24413299560547,109.40660095214844,0.556533932685852
1,587254,10.969511985778809,23.835678100585938,12.044797897338867,-20.553009033203125
1,587254,9.300531387329102,-20.004653930664062,-56.0359992980957,-17.818740844726562
1,587254,2.6724514961242676,-14.13715934753418,-37.09956741333008,8.488252639770508
1,587254,-25.15742301940918,11.703469276428223,-19.01312828063965,-27.43157958984375
1,587254,4.607735633850098,4.255699157714844,-8.33404541015625,-37.1916389465332
1,587255,0.31113648414611816,-7.978935718536377,-11.901025772094727,3.7302095890045166
1,587255,-7.3550238609313965,19.383371353149414,9.976078987121582,3.958829164505005
1,587255,32.64070510864258,-4.174996376037598,8.921189308166504,13.732882499694824
1,587255,15.266432762145996,-39.04019546508789,-2.0751593112945557,10.097989082336426
1,587255,-10.877792358398438,29.17395782470703,19.586280822753906,13.782047271728516
1,587256,19.545711517333984,47.1439094543457,10.719808578491211,16.781238555908203
1,587256,25.59654426574707,-24.104969024658203,-30.414026260375977,-10.413251876831055
1,587256,-27.14569091796875,-44.44837188720703,-48.678688049316406,12.532872200012207
1,587256,-26.315391540527344,21.702131271362305,-30.351716995239258,-7.760401248931885
1,587256,8.299996376037598,25.486116409301758,-26.9687442779541,-32.633026123046875
1,587256,-0.3537318706512451,-46.2790641784668,-32.526737213134766,-7.386112213134766
1,587256,-24.210668563842773,-14.365768432617188,-1.0122568607330322,-0.28407925367355347
1,587257,3.5449023246765137,35.962158203125,13.588750839233398,8.26014232635498
1,587257,37.14223098754883,8.395678520202637,32.8624267578125,8.382344245910645
1,587257,5.011371612548828,-17.226274490356445,34.41775894165039,-3.730088949203491
1,587257,5.052855014801025,-11.017658233642578,7.646646499633789,11.100628852844238
1,587257,-0.053185995668172836,-14.778653144836426,10.624950408935547,44.3525505065918
1,587258,-3.5764248371124268,12.122197151184082,-0.3241139054298401,7.867147445678711
1,587258,22.404659271240234,40.57323455810547,-8.903947830200195,-20.944561004638672
