Aktueller Finger,timestamp_ms,sensor_0,sensor_1,sensor_2,sensor_3
0,1938456,0.3800649046897888,26.851436614990234,1.7479726076126099,-60.947235107421875
0,1938457,19.640884399414062,-5.339757442474365,-24.35390853881836,3.970947265625
0,1938457,-19.474843978881836,-18.453903198242188,-0.9663307666778564,37.84878158569336
0,1938457,-13.973881721496582,19.60552406311035,16.795703887939453,-2.940894842147827
0,1938457,13.055489540100098,-2.5704212188720703,9.732735633850098,-22.357288360595703
0,1938457,14.366050720214844,-7.220152378082275,-19.862899780273438,1.580446720123291
0,1938457,-12.769859313964844,15.843660354614258,6.093222618103027,15.870708465576172
0,1938458,-3.0740466117858887,8.853182792663574,7.077306270599365,-12.460489273071289
0,1938458,24.217296600341797,-8.995354652404785,-28.107486724853516,-13.527225494384766
0,1938458,-10.227853775024414,-16.369962692260742,23.858367919921875,16.63041114807129
0,1938458,-33.06892776489258,6.811315536499023,18.443988800048828,0.47849464416503906
0,1938458,11.155791282653809,31.257810592651367,-11.35490894317627,-1.5477995872497559
0,1938459,26.639253616333008,-2.121642589569092,11.725235939025879,22.072599411010742
0,1938459,-12.994088172912598,-33.14168930053711,-6.72960901260376,0.8103895783424377
0,1938459,-1.3493616580963135,1.7497843503952026,-3.198930025100708,-14.572708129882812
0,1938459,15.200267791748047,12.237586975097656,-9.990205764770508,1.5558301210403442
0,1938459,-20.136873245239258,-16.091928482055664,-7.3497633934021,24.381332397460938
0,1938459,-15.693224906921387,15.657561302185059,18.91010284423828,-8.11118221282959
0,1938460,5.883115768432617,6.5226359367370605,-12.441082000732422,-20.320316314697266
0,1938460,-4.809729099273682,-26.84700584411621,12.108244895935059,11.878722190856934
0,1938460,18.564903259277344,16.930553436279297,23.981462478637695,-2.0436112880706787
0,1938460,16.838624954223633,2.477945327758789,-35.36412811279297,-7.438856601715088
0,1938460,-17.262784957885742,-20.425819396972656,-19.128183364868164,5.343398571014404
0,1938460,-0.9002510905265808,5.2492852210998535,23.55653190612793,1.02594792842865
0,1938461,1.033689022064209,24.707645416259766,12.448616981506348,-6.1531877517700195
0,1938461,1.8628231287002563,15.669297218322754,-28.7956600189209,13.005796432495117
0,1938461,-4.769705295562744,-21.991918563842773,0.546667754650116,11.620660781860352
0,1938461,-1.467429757118225,-1.1195685863494873,33.41794204711914,-33.45805358886719
0,1938461,22.940982818603516,5.722357749938965,-9.876144409179688,-7.7429351806640625
0,1938461,-11.637194633483887,-17.78481674194336,0.6915513873100281,34.339378356933594
0,1938462,-10.013357162475586,11.254432678222656,1.7956923246383667,-11.768406867980957
0,1938462,17.936853408813477,9.094853401184082,-28.250715255737305,-19.459300994873047
0,1938462,-10.656367301940918,-6.889891147613525,11.349944114685059,9.904121398925781
0,1938462,-11.018009185791016,2.2340054512023926,20.831451416015625,-0.9529821276664734
0,1938462,17.424928665161133,-1.7617924213409424,-5.873776912689209,-12.69764232635498
0,1938463,-1.6031010150909424,-28.41240692138672,-5.875577449798584,17.4359073638916
0,1938463,-22.090164184570312,-8.482394218444824,-5.426279544830322,33.713993072509766
0,1938463,6.987980365753174,37.28494644165039,8.576973915100098,-34.114192962646484
0,1938463,10.811446189880371,-1.5054025650024414,0.7901707291603088,-22.681135177612305
0,1938463,-8.224444389343262,-15.324419975280762,-5.138059139251709,21.642051696777344
0,1938463,6.572488784790039,19.483097076416016,2.013913869857788,-3.810959815979004
0,1938464,5.412487983703613,-5.628100395202637,-10.659977912902832,10.49081039428711
0,1938464,-15.969573974609375,-11.620044708251953,1.4277912378311157,5.246633529663086
0,1938464,-14.74069595336914,11.669495582580566,2.654102325439453,-9.842253684997559
0,1938464,7.276831150054932,-0.543921172618866,-16.733779907226562,-4.755341053009033
0,1938464,12.750974655151367,5.8083624839782715,12.609503746032715,-3.7410225868225098
0,1938464,10.861364364624023,8.242520332336426,30.878461837768555,26.19054412841797
0,1938465,17.954418182373047,-12.175596237182617,-17.566686630249023,9.70131778717041
0,1938465,-9.896008491516113,-4.101376056671143,-30.45184326171875,-27.406383514404297
0,1938465,-16.903121948242188,-1.209864616394043,10.623821258544922,9.445270538330078
0,1938465,13.75096321105957,-0.7119628190994263,24.722768783569336,30.33490753173828
0,1938465,-9.151816368103027,12.971098899841309,10.494836807250977,-16.933143615722656
0,1938465,-12.196015357971191,-6.741618633270264,-18.5972843170166,-20.463285446166992
0,1938466,29.31528091430664,-9.32174015045166,-17.030054092407227,11.654679298400879
0,1938466,-6.018350601196289,-14.61984634399414,23.720088958740234,14.767318725585938
0,1938466,-31.18931770324707,-7.3718366622924805,10.944859504699707,16.775510787963867
0,1938466,4.884280681610107,45.53826141357422,-16.67335319519043,-15.41660213470459
0,1938466,14.6214017868042,9.635570526123047,-2.8702571392059326,-30.117538452148438
0,1938466,1.328088402748108,-37.27964782714844,-9.17540454864502,-2.980114221572876
0,1938467,-20.216339111328125,-5.0343146324157715,-20.18813705444336,7.865546703338623
0,1938467,6.852139472961426,1.1108266115188599,16.693540573120117,-2.3458170890808105
0,1938467,9.516165733337402,4.0417585372924805,33.58918380737305,-9.50322437286377
0,1938467,-16.890220642089844,5.497231960296631,-4.900022029876709,5.3716278076171875
0,1938467,18.732696533203125,-6.3067708015441895,-42.37742233276367,-12.012090682983398
0,1938467,1.7314352989196777,12.00365161895752,0.5913795232772827,-24.21114730834961
0,1938468,-12.011393547058105,10.646384239196777,49.893245697021484,19.12902069091797
0,1938468,26.172672271728516,-2.8840763568878174,-3.353992462158203,8.619855880737305
0,1938468,-7.160860061645508,-25.688888549804688,-24.198678970336914,-13.993165969848633
0,1938468,-10.369629859924316,-2.408519983291626,-10.479043960571289,12.824373245239258
0,1938468,14.358445167541504,38.260013580322266,3.706892251968384,4.74854850769043
0,1938468,-13.977556228637695,-13.056244850158691,36.49019241333008,-13.272650718688965
0,1938469,9.584210395812988,-6.750792026519775,1.7050403356552124,-12.42351245880127
0,1938469,16.346588134765625,18.307113647460938,-27.663818359375,14.557968139648438
0,1938469,-27.536884307861328,-15.334612846374512,7.004117012023926,22.724435806274414
0,1938469,-20.812137603759766,-14.425858497619629,6.85160493850708,-8.728636741638184
0,1938469,28.713985443115234,8.730310440063477,-22.856643676757812,-20.397319793701172
0,1938469,7.34112024307251,15.246055603027344,-3.2736599445343018,9.020054817199707
0,1938470,-21.59688377380371,-7.724621772766113,21.64656639099121,32.86519241333008
0,1938470,15.809338569641113,-13.239805221557617,-12.212759971618652,-14.231008529663086
0,1938470,-11.121374130249023,6.064425468444824,-9.464921951293945,-22.637004852294922
0,1938470,-20.24934959411621,-6.7965407371521,20.840744018554688,20.9504337310791
0,1938470,19.008007049560547,0.1376909464597702,-13.23571491241455,17.57663917541504
0,1938470,11.620046615600586,16.016281127929688,-7.846823215484619,-2.5329458713531494
0,1938471,-5.066997528076172,-27.4624080657959,9.008049011230469,-1.3240145444869995
0,1938471,-8.896909713745117,5.470829486846924,-2.037466049194336,2.621734142303467
0,1938471,-2.343053102493286,26.175682067871094,3.8823444843292236,-24.150867462158203
0,1938471,-0.15215599536895752,-19.529245376586914,-1.3605055809020996,-4.671426773071289
0,1938471,-13.762983322143555,3.610180616378784,4.177773952484131,32.031551361083984
0,1938471,2.0125420093536377,9.01346492767334,0.293902188539505,-0.5275339484214783
0,1938472,29.085830688476562,-1.2774447202682495,-13.086812973022461,-27.37802505493164
0,1938472,-0.19300056993961334,3.0044374465942383,5.270602226257324,-9.35571575164795
0,1938472,-16.78399658203125,-7.925632476806641,27.632110595703125,-3.8859524726867676
0,1938472,13.238884925842285,-1.331271767616272,-2.3304929733276367,-2.192652702331543
0,1938472,3.9529995918273926,-1.644307255744934,-16.75291633605957,17.62640380859375
0,1938473,-12.156787872314453,3.493866443634033,14.039579391479492,-2.8839001655578613
0,1938473,8.816961288452148,8.22100830078125,-14.838042259216309,-8.150819778442383
0,1938473,-6.974122047424316,-25.26708221435547,-22.0283145904541,2.5316951274871826
0,1938474,-15.061800956726074,1.0790337324142456,14.424427032470703,4.728492259979248
0,1938474,10.183712005615234,21.09564208984375,-10.129515647888184,40.38835144042969
0,1938475,-4.344766616821289,-6.020086765289307,4.6428303718566895,11.34830093383789
0,1938475,7.092812538146973,16.276330947875977,26.994260787963867,-34.01569747924805
0,1938475,27.731380462646484,8.777114868164062,-9.324180603027344,1.7641500234603882
0,1938475,-16.11734962463379,-16.300058364868164,-5.7446393966674805,20.086748123168945
0,1938475,-21.301753997802734,-16.477375030517578,7.583461284637451,-18.00376319885254
0,1938475,23.826560974121094,8.434897422790527,0.39221319556236267,-23.619768142700195
0,1938476,13.363090515136719,16.632568359375,-8.163033485412598,13.801712036132812
0,1938477,-17.07162857055664,-19.738405227661133,-4.585994720458984,10.053605079650879
0,1938478,-2.1395857334136963,-7.493020534515381,16.882030487060547,-14.983301162719727
0,1938481,8.486795425415039,1.6332777738571167,0.731105387210846,3.072889566421509
0,1938482,-6.713351726531982,-2.001664638519287,-17.868606567382812,3.545393466949463
0,1938485,-10.828441619873047,6.100893497467041,-9.302445411682129,-10.614907264709473
0,1938486,-2.57807993888855,-12.864306449890137,2.9248435497283936,18.95250129699707
0,1938489,2.9964382648468018,14.968297958374023,6.77366828918457,-7.720388889312744
0,1938490,-12.159561157226562,19.092802047729492,-15.09482192993164,-22.792694091796875
0,1938493,-4.853515625,-17.834476470947266,12.379327774047852,7.231780529022217
0,1938494,34.298683166503906,5.241978168487549,31.476951599121094,-11.884710311889648
0,1938497,-7.4176435470581055,4.262119293212891,-8.390727996826172,31.443618774414062
0,1938498,-28.767242431640625,-2.135552406311035,-7.860761642456055,27.94878387451172
0,1938501,21.713546752929688,-1.0329174995422363,-4.845938205718994,-61.391204833984375
0,1938502,-4.581273078918457,-11.52077865600586,1.328001618385315,1.4342854022979736
0,1938505,0.4857616424560547,0.6166076064109802,-9.9010648727417,44.83982849121094
0,1938506,24.961210250854492,7.3854265213012695,-23.521949768066406,-28.652301788330078
0,1938761,-25.43306541442871,2.5719056129455566,16.563739776611328,-18.185985565185547
0,1938763,-7.910017967224121,-9.330606460571289,15.4234619140625,19.932666778564453
0,1938765,33.99890899658203,13.25698471069336,-15.066611289978027,17.56552505493164
0,1938767,-3.27603816986084,3.3895113468170166,1.1730213165283203,-0.5626670122146606
0,1938769,-12.919001579284668,-22.518234252929688,19.559856414794922,-13.87906265258789
0,1938771,-7.819554328918457,6.664151191711426,1.174780011177063,3.421325206756592
0,1940585,-14.940032005310059,12.800555229187012,-5.543357849121094,10.678308486938477
0,1940587,15.71045207977295,-1.2382843494415283,0.32483330368995667,-8.724108695983887
0,1940782,11.255940437316895,0.6025866866111755,6.419698238372803,2.4394397735595703
0,1940782,-0.07498515397310257,6.122466564178467,-7.1574907302856445,12.357034683227539
0,1940782,-1.0590425729751587,-13.873494148254395,-16.37116813659668,-6.338244438171387
0,1940782,-24.10545539855957,-17.43255043029785,5.235470294952393,7.307409763336182
0,1940782,1.095798134803772,13.517427444458008,7.375859260559082,-1.4008057117462158
0,1940782,28.716575622558594,8.03415584564209,6.049722671508789,-19.288368225097656
0,1940783,0.25340789556503296,-3.9823577404022217,7.366950035095215,3.196685314178467
0,1940783,-2.7390806674957275,0.1297355741262436,-7.569700717926025,-7.857031345367432
0,1940783,5.182165145874023,1.6951099634170532,-9.625885963439941,-17.223506927490234
0,1940783,2.491304874420166,0.267916202545166,-0.3209572434425354,0.020668093115091324
0,1940783,-7.9724650382995605,-11.270622253417969,-5.513614177703857,6.2060675621032715
0,1940783,-35.43267822265625,6.394200801849365,17.19379997253418,15.009242057800293
0,1940784,6.297627925872803,5.518412113189697,4.697352886199951,1.380555272102356
0,1940784,21.423500061035156,-10.099104881286621,-24.081268310546875,-7.337481498718262
0,1940784,-7.177668571472168,14.370071411132812,12.502866744995117,0.7391092777252197
0,1940784,-5.565906047821045,4.668487071990967,-12.671435356140137,2.56931471824646
0,1940784,-2.8168509006500244,-23.5888671875,-12.264588356018066,23.23000144958496
0,1940785,16.184656143188477,7.737131595611572,41.96885681152344,-5.34122896194458
0,1940785,6.0546746253967285,15.457810401916504,7.104956150054932,-27.223609924316406
0,1940785,-4.56808614730835,-24.485902786254883,-20.309368133544922,-3.3795247077941895
0,1940785,-4.061232566833496,6.958628177642822,-8.270021438598633,-1.2106657028198242
0,1940785,3.711683750152588,21.69012451171875,-17.13538360595703,6.7670464515686035
0,1940785,4.418792724609375,-17.133155822753906,6.418574810028076,-2.115980863571167
0,1940786,-14.966130256652832,-3.909280776977539,20.76358413696289,1.277543306350708
0,1940786,-8.811159133911133,11.2401123046875,-6.812736511230469,5.908625602722168
0,1940786,13.353124618530273,1.0511260032653809,-14.049219131469727,-16.69152069091797
0,1940786,5.618053913116455,0.536907434463501,6.56204891204834,10.989655494689941
0,1940786,-10.526666641235352,-7.25756311416626,16.720277786254883,20.455915451049805
0,1940786,6.781616687774658,9.326529502868652,-16.284685134887695,-17.433635711669922
0,1940787,-5.6083526611328125,-1.1147066354751587,-16.009674072265625,5.517074108123779
0,1940787,-17.919469833374023,-26.399707794189453,32.19058609008789,28.424341201782227
0,1940787,26.097360610961914,19.455631256103516,15.834755897521973,-11.106769561767578
0,1940787,24.602724075317383,8.39905834197998,-21.341411590576172,-11.108274459838867
0,1940787,-17.526927947998047,-22.968557357788086,0.3194476068019867,31.342363357543945
0,1940787,-13.447898864746094,0.6013659834861755,8.07307243347168,-4.035124778747559
0,1940788,-5.286118984222412,10.394445419311523,-4.934084415435791,-34.41756820678711
0,1940788,11.042841911315918,10.455863952636719,-15.146624565124512,12.706735610961914
0,1940788,-0.06296329945325851,-4.581117153167725,2.623016119003296,11.488195419311523
0,1940788,3.4139564037323,-6.240148544311523,16.93353843688965,-22.65167808532715
0,1940788,13.133094787597656,5.160942554473877,-9.937673568725586,15.742902755737305
0,1940788,-29.533615112304688,-7.050183296203613,2.3250789642333984,20.990320205688477
0,1940789,4.4738359451293945,10.107952117919922,14.061330795288086,-31.125009536743164
0,1940789,24.017820358276367,11.125815391540527,-15.99811840057373,-15.95919418334961
0,1940789,-26.062437057495117,-19.88912010192871,0.11587782949209213,26.1079158782959
0,1940789,5.056682109832764,0.02606680989265442,7.965656757354736,10.429564476013184
0,1940789,30.137300491333008,12.156943321228027,-20.76511001586914,-30.28982925415039
0,1940790,-21.682836532592773,-22.034154891967773,7.517003059387207,0.1347193866968155
0,1940790,-26.00311279296875,-2.480926036834717,14.789654731750488,18.53723907470703
0,1940790,10.6405611038208,18.905458450317383,-6.399974822998047,-16.36414909362793
0,1940790,15.662333488464355,-6.898509502410889,-13.288528442382812,-16.082185745239258
0,1940790,-15.832635879516602,-2.263723134994507,-15.072752952575684,5.1162285804748535
0,1940790,1.3913034200668335,17.718936920166016,18.509653091430664,12.494725227355957
0,1940791,22.9095516204834,10.221858978271484,17.761198043823242,10.301854133605957
0,1940791,-23.800806045532227,-31.815439224243164,-14.111333847045898,6.110849857330322
0,1940791,-1.5910300016403198,-7.5210862159729,8.339693069458008,-1.4878861904144287
0,1940791,33.681400299072266,30.58828353881836,-4.253585338592529,-9.855179786682129
0,1940791,-13.787875175476074,-7.566488742828369,-25.428325653076172,-22.566076278686523
0,1940791,-11.38359546661377,-11.566688537597656,7.564958572387695,12.574198722839355
0,1940792,3.7634899616241455,12.957831382751465,21.504196166992188,36.22264099121094
0,1940792,-7.113964080810547,2.7376084327697754,13.410080909729004,-21.529359817504883
0,1940792,13.930624008178711,-10.278796195983887,-25.8084774017334,-27.237010955810547
0,1940792,2.239903688430786,-11.24250602722168,-4.630439758300781,14.241832733154297
0,1940792,-12.66336727142334,11.00356388092041,25.686504364013672,5.479477882385254
0,1940792,-1.441658854484558,7.692712783813477,-7.607569217681885,-4.839878559112549
0,1940793,6.5249810218811035,-20.834897994995117,1.9362555742263794,-12.008106231689453
0,1940793,0.636817216873169,15.330644607543945,14.92679500579834,3.6770639419555664
0,1940793,-3.3188316822052,16.352806091308594,-22.6960391998291,22.009218215942383
0,1940793,-0.9723055958747864,-20.180879592895508,-21.398038864135742,-2.7317590713500977
0,1940793,-5.469982147216797,0.7970162630081177,11.123672485351562,-6.247389316558838
0,1940793,5.4641547203063965,-3.1545941829681396,5.80510950088501,-9.211337089538574
0,1940794,1.3300557136535645,-15.914130210876465,12.553680419921875,8.210841178894043
0,1940794,-4.816088676452637,15.103975296020508,-8.961518287658691,3.9612104892730713
0,1940794,5.430466651916504,9.852242469787598,-21.650707244873047,-19.904136657714844
0,1940794,-1.0210912227630615,-2.020808219909668,24.79131507873535,13.772924423217773
0,1940794,-4.772276401519775,10.416923522949219,2.3707704544067383,0.23103837668895721
0,1940794,7.493750095367432,-5.524055004119873,-20.45369529724121,-13.025717735290527
0,1940795,-0.993801474571228,-17.32050132751465,19.24633026123047,13.386872291564941
0,1940795,-7.337777137756348,4.768200397491455,8.08819580078125,-6.520535469055176
0,1940795,16.044893264770508,19.340333938598633,-16.71332359313965,-6.825380325317383
0,1940795,-6.53270959854126,-9.639957427978516,-5.582465171813965,13.26313591003418
0,1940795,-22.655149459838867,-0.21436631679534912,7.620638370513916,-11.118183135986328
0,1940795,23.332660675048828,18.012422561645508,6.857856273651123,-3.3055355548858643
0,1940796,15.88958740234375,-19.451030731201172,-10.146201133728027,27.897029876708984
0,1940796,-24.218528747558594,-18.272554397583008,-7.028423309326172,16.74131202697754
0,1940796,-14.806257247924805,14.582244873046875,7.078187942504883,-17.534963607788086
0,1940796,17.550580978393555,16.731782913208008,-1.083814024925232,-7.70709228515625
0,1940796,4.352666854858398,-11.149900436401367,16.58517837524414,27.036516189575195
0,1940796,-4.894209384918213,-17.30866241455078,9.68906307220459,-9.134430885314941
0,1940797,13.965246200561523,5.8465118408203125,-16.07172393798828,-12.274863243103027
0,1940797,-12.0205659866333,16.29636573791504,-5.358100891113281,9.311027526855469
0,1940797,-0.21666406095027924,1.1392408609390259,1.8193312883377075,-16.825294494628906
0,1940797,24.203882217407227,-21.70040512084961,9.467915534973145,1.4897935390472412
0,1940797,-13.65520191192627,-5.822834491729736,-9.042801856994629,20.62143898010254
0,1940797,-18.418563842773438,23.722719192504883,-4.193541049957275,-4.604462146759033
0,1940798,5.8790202140808105,16.386449813842773,24.48334503173828,-22.212825775146484
0,1940798,-1.6891568899154663,-12.845017433166504,-11.626558303833008,-14.974385261535645
0,1940798,-5.227304935455322,-2.5099031925201416,-22.77294921875,3.0579917430877686
0,1940799,9.072317123413086,-9.420726776123047,13.878754615783691,23.589075088500977
0,1940799,14.82383918762207,-30.138410568237305,-5.564699649810791,25.813779830932617
0,1940800,-7.045280933380127,6.206343650817871,-3.6449358463287354,-1.2173446416854858
0,1940800,-17.233287811279297,31.438274383544922,14.561301231384277,-17.289539337158203
0,1940800,10.908818244934082,20.808656692504883,-5.505059242248535,-11.385102272033691
0,1940800,11.5923490524292,-18.802536010742188,4.994903087615967,16.307268142700195
0,1940800,-11.514559745788574,-20.82383155822754,12.28843879699707,2.788917303085327
0,1940801,5.750677108764648,4.720829486846924,-23.156139373779297,-34.47359085083008
0,1940801,17.871318817138672,-1.3212058544158936,-24.20070457458496,-4.756746292114258
0,1940802,-27.711822509765625,7.224578380584717,22.720346450805664,7.131159782409668
0,1940803,-31.03339958190918,7.207784652709961,23.03981590270996,-20.05848503112793
0,1940805,28.274551391601562,-11.808067321777344,-14.920819282531738,5.043569564819336
0,1940807,18.90395736694336,6.517118453979492,-15.141070365905762,23.593461990356445
0,1940809,-26.570049285888672,11.531208992004395,2.9313931465148926,-4.846469879150391
0,1940811,6.502918720245361,-4.966544151306152,5.431318759918213,-18.808650970458984
0,1940813,5.8845415115356445,-13.726203918457031,9.649338722229004,1.8379048109054565
0,1940815,-13.248038291931152,-10.941473960876465,6.576680660247803,25.81812858581543
0,1940817,20.53923988342285,17.1604061126709,-8.800063133239746,21.731273651123047
0,1940819,-3.2671148777008057,-1.3079341650009155,2.815340757369995,5.909854412078857
0,1940821,3.233624219894409,-18.65135955810547,-8.020164489746094,-23.981740951538086
0,1940823,-0.9020876288414001,21.710599899291992,-21.79955291748047,-11.561084747314453
0,1940825,-9.997047424316406,16.7493896484375,24.428417205810547,15.68053913116455
0,1940827,24.08491325378418,-9.590197563171387,15.311212539672852,-20.014942169189453
0,1940829,-16.33645248413086,9.28882122039795,-14.829710006713867,-12.559125900268555
0,1940831,-12.375195503234863,0.4974198341369629,11.834419250488281,36.3076171875
0,1940833,8.791839599609375,-19.242414474487305,13.340826988220215,10.081888198852539
0,1940836,-20.232074737548828,0.3053189516067505,-24.237224578857422,-27.043771743774414
0,1940837,-4.932416915893555,-7.945921897888184,-28.88660430908203,-2.3660829067230225
0,1940838,20.906082153320312,-3.2665843963623047,5.900681972503662,2.760561943054199
0,1940841,22.91280746459961,33.88937759399414,32.852577209472656,-3.7279231548309326
0,1940842,2.346766233444214,-6.802846908569336,4.233027458190918,0.6287071108818054
0,1940845,-22.926074981689453,-18.865684509277344,-15.282004356384277,-8.373710632324219
0,1940846,0.11144138872623444,10.866405487060547,1.2262365818023682,37.204345703125
0,1940849,8.076390266418457,-24.178773880004883,-6.73843240737915,17.17929458618164
0,1940850,-6.852207183837891,-7.971757888793945,-0.5387446880340576,-53.31765365600586
0,1940853,7.389970779418945,33.95573425292969,-2.520589590072632,-27.38964080810547
0,1940854,-5.154384136199951,-3.468391180038452,9.212410926818848,12.406869888305664
0,1941047,-3.2974960803985596,-15.66175365447998,-23.13397216796875,29.756576538085938
0,1941048,18.520729064941406,14.175995826721191,-42.98155975341797,-0.4081902801990509
0,1941048,2.7757742404937744,-11.231690406799316,42.3012809753418,-2.3591368198394775
0,1941048,-1.8318142890930176,6.650334358215332,33.363853454589844,25.361753463745117
0,1941048,0.2648133635520935,24.692276000976562,-1.972923994064331,-15.990788459777832
0,1941048,3.8977901935577393,-25.23226547241211,4.0283989906311035,-20.691120147705078
0,1941048,11.89735221862793,-20.028602600097656,-20.62613296508789,11.343240737915039
0,1941049,10.73166275024414,13.060395240783691,-20.15089988708496,5.173019886016846
0,1941049,-12.152467727661133,24.968456268310547,17.175521850585938,2.9474029541015625
0,1941049,-15.879432678222656,7.5775532722473145,29.30367660522461,1.6874533891677856
0,1941049,-1.7069871425628662,-8.564112663269043,1.8753089904785156,0.8281452655792236
0,1941049,-13.88382625579834,-18.661096572875977,-10.018864631652832,12.53275203704834
0,1941049,-18.375486373901367,-17.489316940307617,4.54965353012085,-1.24474036693573
0,1941050,-3.5106821060180664,14.448277473449707,14.20523452758789,-11.280613899230957
0,1941050,10.855908393859863,21.450084686279297,-24.352279663085938,0.18590040504932404
0,1941050,-5.729828357696533,-15.779144287109375,-17.976579666137695,-18.618392944335938
0,1941050,-3.580040216445923,-21.433822631835938,29.068336486816406,3.31611704826355
0,1941050,10.154640197753906,9.912288665771484,12.792766571044922,22.622264862060547
0,1941050,14.222000122070312,23.466318130493164,-14.917283058166504,-27.09604835510254
0,1941051,13.57023811340332,1.0742441415786743,-14.47961139678955,-6.625317573547363
0,1941051,10.13773250579834,-23.76171112060547,-5.549507141113281,10.640328407287598
0,1941051,-12.211742401123047,5.93208122253418,10.70654582977295,0.15091167390346527
0,1941051,-31.55336570739746,11.632563591003418,24.586872100830078,23.906652450561523
0,1941051,17.2453670501709,7.438851833343506,-15.5248441696167,2.522454261779785
0,1941052,36.10443115234375,16.842571258544922,-22.827857971191406,-16.81519889831543
0,1941052,2.2407877445220947,-11.32682991027832,13.783308029174805,-5.353895664215088
0,1941052,-15.848747253417969,-6.0991530418396,-10.484131813049316,7.519711017608643
0,1941052,-12.510726928710938,-6.214747905731201,-6.998804569244385,-0.8972038626670837
0,1941052,2.940214157104492,-19.76093864440918,13.350308418273926,-18.029626846313477
0,1941052,17.345754623413086,11.773807525634766,-9.090383529663086,5.230737686157227
0,1941053,-10.24947452545166,-1.4017810821533203,6.240573406219482,21.26203155517578
0,1941053,-32.541236877441406,-13.428675651550293,24.826351165771484,-9.472846031188965
0,1941053,7.742945194244385,12.431035995483398,-10.221907615661621,-21.58111572265625
0,1941053,-12.05013370513916,0.13706818222999573,-11.292255401611328,-4.097397327423096
0,1941053,-36.7950325012207,-10.527390480041504,17.127195358276367,14.49787712097168
0,1941053,16.2683048248291,5.422708034515381,-1.2271593809127808,20.375503540039062
0,1941054,11.121309280395508,12.374112129211426,-12.719627380371094,-16.666322708129883
0,1941054,-24.318214416503906,11.605945587158203,-0.29721248149871826,-15.538978576660156
0,1941054,-12.863136291503906,-21.044357299804688,-2.1216611862182617,16.96308708190918
0,1941054,6.758066654205322,-9.197921752929688,-9.723824501037598,2.51796293258667
0,1941054,16.52711296081543,27.75320816040039,-6.607844352722168,-4.795814037322998
0,1941054,-2.2374002933502197,3.0223307609558105,13.42042350769043,-10.633085250854492
0,1941055,-5.1843953132629395,-10.963213920593262,19.021162033081055,-9.496482849121094
0,1941055,25.698705673217773,-10.440682411193848,-15.942397117614746,11.673664093017578
0,1941055,9.508018493652344,12.39353084564209,-5.143948554992676,17.294904708862305
0,1941055,-23.73630714416504,-14.217499732971191,23.856027603149414,-1.410707950592041
0,1941055,0.7262027859687805,-13.113578796386719,1.4550793170928955,-1.963624358177185
0,1941055,30.790557861328125,35.08279037475586,-16.535804748535156,8.42763900756836
0,1941056,-2.7656853199005127,-5.254443168640137,0.37812235951423645,3.225112199783325
0,1941056,-8.868938446044922,-22.32427406311035,5.503442764282227,14.861465454101562
0,1941056,19.06809425354004,-1.9852818250656128,-13.786211967468262,-9.641796112060547
0,1941056,-3.458944082260132,11.842133522033691,0.01886901445686817,-20.90272331237793
0,1941056,-4.55008602142334,13.370094299316406,11.499373435974121,-5.157052516937256
0,1941057,18.716894149780273,4.513037204742432,-11.042994499206543,-0.5480756163597107
0,1941057,-6.5230913162231445,-8.350420951843262,-29.38698387145996,4.415635108947754
0,1941057,-26.932605743408203,-31.46260643005371,10.818930625915527,1.5206092596054077
0,1941057,1.9620133638381958,7.1739373207092285,29.91685676574707,2.197545051574707
0,1941057,22.5842342376709,34.3897819519043,-1.8517522811889648,7.422020435333252
0,1941057,3.920520544052124,-20.898218154907227,-7.947507381439209,-1.9298726320266724
0,1941058,-8.383927345275879,-17.300670623779297,1.7122254371643066,-17.68358039855957
0,1941058,5.955395221710205,38.07036209106445,5.622973442077637,17.284507751464844
0,1941058,8.971343040466309,14.502063751220703,7.828033924102783,25.282405853271484
0,1941058,2.6841659545898438,-26.149965286254883,7.949171543121338,-21.008447647094727
0,1941058,-5.398263454437256,-26.905517578125,-11.439728736877441,-7.445132732391357
0,1941058,-3.972686290740967,-1.3130663633346558,-14.606351852416992,10.003962516784668
0,1941059,-1.4649628400802612,32.31977844238281,3.055100679397583,-12.684438705444336
0,1941059,-9.221868515014648,10.311148643493652,5.096457004547119,14.083316802978516
0,1941059,6.9999775886535645,-22.6690673828125,3.3094265460968018,-5.291121959686279
0,1941059,13.339171409606934,4.799795627593994,-7.710055351257324,-36.96220779418945
0,1941059,-17.703067779541016,7.083003044128418,-11.593567848205566,16.29131507873535
0,1941059,-13.523664474487305,-25.2694091796875,8.190690994262695,20.32628059387207
0,1941060,2.8696906566619873,8.209535598754883,9.008713722229004,-3.7049243450164795
0,1941060,3.5591206550598145,21.204994201660156,-2.0517849922180176,5.875519752502441
0,1941060,23.085838317871094,-9.75689697265625,-12.042466163635254,-19.71222686767578
0,1941060,-7.313005447387695,-6.661125659942627,-5.911694049835205,-9.558187484741211
0,1941060,-21.21393394470215,5.589807510375977,10.03467082977295,20.3828067779541
0,1941060,20.20329475402832,5.806544303894043,-7.279296398162842,-3.3643805980682373
0,1941061,5.843587398529053,6.087345123291016,-7.8744611740112305,5.178399085998535
0,1941061,-27.546964645385742,-5.412363529205322,28.358610153198242,22.697587966918945
0,1941061,-2.677672863006592,-7.187893867492676,7.760177135467529,-11.86050033569336
0,1941061,26.578731536865234,-2.0719120502471924,-26.847702026367188,-20.052776336669922
0,1941061,-5.062497615814209,-10.384588241577148,-14.09987735748291,13.191498756408691
0,1941061,-10.257318496704102,15.222291946411133,6.4073357582092285,-6.1466383934021
0,1941062,6.07243537902832,-4.869236946105957,8.272971153259277,-15.118764877319336
0,1941062,-5.108325958251953,-22.11296272277832,3.6685659885406494,13.606062889099121
0,1941062,8.191360473632812,15.688302993774414,1.7066813707351685,2.2588040828704834
0,1941062,-6.235074996948242,2.9328832626342773,-15.222434043884277,-1.2589941024780273
0,1941062,-19.487775802612305,2.2570154666900635,18.2353572845459,22.200178146362305
0,1941062,26.728042602539062,10.457308769226074,16.856245040893555,-2.125277042388916
0,1941063,16.758020401000977,-12.893269538879395,-25.183177947998047,-17.296791076660156
0,1941063,-28.137638092041016,1.0870680809020996,6.08842658996582,-2.227860927581787
0,1941063,0.3521663546562195,10.403277397155762,21.221149444580078,-0.89202481508255
0,1941063,9.977070808410645,-6.008035659790039,12.33259105682373,1.125855803489685
0,1941063,1.6118532419204712,5.2617506980896,-14.126504898071289,-7.669351577758789
0,1941063,-1.0881962776184082,4.382930278778076,-9.309253692626953,3.296217679977417
0,1941064,-11.21491813659668,-3.3960371017456055,9.377530097961426,17.28229522705078
0,1941065,8.021942138671875,-3.1944947242736816,-27.43120002746582,-1.689767837524414
0,1941065,-2.8886711597442627,-6.190842151641846,-14.326004028320312,-20.182689666748047
0,1941065,-6.717299938201904,0.7903116941452026,22.58544158935547,-5.979917526245117
0,1941065,15.126777648925781,6.548300266265869,8.988241195678711,8.597217559814453
0,1941066,8.613469123840332,11.630495071411133,-20.20461082458496,0.9772085547447205
0,1941066,-15.283761978149414,-3.193053722381592,9.248437881469727,3.417055368423462
0,1941066,-12.853992462158203,-7.776273250579834,26.891489028930664,6.931947231292725
0,1941066,22.006345748901367,2.4021880626678467,-26.949249267578125,-2.018247127532959
0,1941066,17.203369140625,-5.240464687347412,-7.2520036697387695,-3.410388946533203
0,1941068,-18.873964309692383,-2.861720323562622,39.2790412902832,12.253828048706055
0,1941069,-3.515815258026123,0.19251284003257751,-15.022199630737305,-1.0320236682891846
0,1941070,6.112375259399414,-16.200532913208008,-31.238178253173828,-42.17630386352539
0,1941073,-8.723660469055176,5.062737464904785,22.094449996948242,-4.653507709503174
0,1941074,-6.323869705200195,29.141462326049805,12.276086807250977,-11.96468448638916
0,1941077,1.4857170581817627,-16.409040451049805,-1.0395485162734985,23.124431610107422
0,1941078,14.130613327026367,-24.564409255981445,2.5835065841674805,89.10812377929688
0,1941081,-23.619670867919922,5.8462042808532715,-11.388461112976074,-44.79631423950195
0,1941082,-30.142963409423828,5.588193893432617,0.48875415325164795,-51.14531707763672
0,1941085,34.210689544677734,-1.8214024305343628,-9.782617568969727,55.69538879394531
0,1941086,30.95002555847168,7.292367935180664,-21.66621971130371,3.7893683910369873
0,1941089,-30.121065139770508,14.919593811035156,27.479389190673828,-33.12026596069336
0,1941090,-1.2028039693832397,-0.8650164604187012,14.24315071105957,15.46079158782959
0,1941093,42.103675842285156,-1.4351859092712402,-17.765771865844727,1.3967360258102417
0,1941094,-27.16621971130371,-11.09404182434082,12.706047058105469,-2.6236212253570557
0,1941097,-24.00513458251953,3.9515953063964844,0.4043879508972168,-15.501945495605469
0,1941098,16.801280975341797,15.680389404296875,-17.021907806396484,-19.77634620666504
0,1941101,-8.211751937866211,-20.18256187438965,-13.042098999023438,37.72537612915039
0,1941102,5.996153831481934,2.2337121963500977,3.989035129547119,6.195248126983643
0,1941105,-5.578661918640137,12.26767349243164,13.297080039978027,-18.863197326660156
0,1941106,4.98270845413208,0.6294001340866089,4.119321346282959,8.737592697143555
0,1941109,17.78622055053711,-6.757045745849609,2.497807502746582,-17.212799072265625
0,1941110,-27.892406463623047,3.0352954864501953,-8.697145462036133,-13.611824035644531
0,1941113,7.03926944732666,12.907916069030762,-1.3115277290344238,33.4260368347168
0,1941114,8.479058265686035,-38.953189849853516,4.0630974769592285,4.068506717681885
0,1941117,-20.48487091064453,15.439104080200195,11.286140441894531,-5.326271057128906
0,1941118,23.225740432739258,24.359420776367188,9.086370468139648,6.151761531829834
0,1941313,55.64072036743164,-42.947654724121094,-29.197879791259766,-5.237265586853027
0,1941314,29.723520278930664,7.11074686050415,-5.553560733795166,-0.627414345741272
0,1941314,-31.197717666625977,10.29312515258789,18.624570846557617,-8.454038619995117
0,1941314,-36.53957748413086,-6.642884731292725,0.8203471302986145,-6.867949962615967
0,1941314,-6.053235054016113,12.719385147094727,-3.282410144805908,-11.225820541381836
0,1941314,3.3624303340911865,-3.5558106899261475,-4.233702659606934,8.897787094116211
0,1941314,-14.474406242370605,-9.360350608825684,19.319589614868164,24.23309326171875
0,1941315,-17.648006439208984,13.825467109680176,-9.1437349319458,-17.09223747253418
0,1941315,-10.802433013916016,-1.0970736742019653,-36.66288375854492,-18.05672264099121
0,1941315,-13.706031799316406,-4.444860935211182,31.88863754272461,10.594600677490234
0,1941315,8.251745223999023,20.648717880249023,22.30006980895996,5.161750793457031
0,1941315,6.558808326721191,1.6236703395843506,-20.267087936401367,-6.274684906005859
0,1941315,-32.360836029052734,-9.4425687789917,13.50241470336914,1.2380598783493042
0,1941316,-3.497067451477051,-6.045925140380859,8.85307502746582,18.320072174072266
0,1941316,24.43120002746582,-6.3071608543396,-9.071782112121582,-0.4710756540298462
0,1941316,-6.460636138916016,-16.18836212158203,-17.615503311157227,-16.778085708618164
0,1941316,20.534961700439453,9.556853294372559,-8.058297157287598,-5.219206809997559
0,1941316,27.219743728637695,17.939353942871094,15.936075210571289,15.907903671264648
0,1941316,-16.184885025024414,-10.971883773803711,10.02259349822998,21.040508270263672
0,1941317,-5.999431133270264,6.318705081939697,-6.7055816650390625,-18.060794830322266
0,1941317,10.688544273376465,10.09378433227539,-21.515460968017578,-12.738471031188965
0,1941317,5.023673057556152,1.8878644704818726,-9.922416687011719,3.1196162700653076
0,1941317,-5.076504230499268,-5.387051105499268,17.53767204284668,12.189440727233887
0,1941317,-2.7359540462493896,-10.361795425415039,22.519994735717773,7.451694488525391
0,1941317,15.085978507995605,-1.587653636932373,-0.6025323271751404,-25.004304885864258
0,1941318,1.7733651399612427,-7.012309551239014,-26.390993118286133,3.916177749633789
0,1941318,-2.9550976753234863,-5.80103874206543,-9.935759544372559,11.15433120727539
0,1941318,10.708037376403809,10.837837219238281,10.567866325378418,-12.571167945861816
0,1941318,-17.28764533996582,6.2321929931640625,-5.363688945770264,-1.7293782234191895
0,1941318,-32.194950103759766,-1.3824512958526611,-1.734032392501831,7.827988147735596
0,1941319,16.03561019897461,0.5272089838981628,23.344135284423828,3.825986623764038
0,1941319,31.174192428588867,-3.8491289615631104,3.66937255859375,-14.802399635314941
0,1941319,-13.529138565063477,-17.80120849609375,-26.491018295288086,-11.69221019744873
0,1941319,-15.501051902770996,9.422927856445312,-7.887511253356934,12.699525833129883
0,1941319,15.357583999633789,30.381263732910156,19.844181060791016,6.3907084465026855
0,1941319,3.6127753257751465,-11.921053886413574,23.005706787109375,0.19714771211147308
0,1941320,-6.597927570343018,-2.076403856277466,-10.597169876098633,4.359175205230713
0,1941320,-3.837468147277832,-1.0256187915802002,-14.131532669067383,2.986292600631714
0,1941320,10.460190773010254,-26.173782348632812,9.32742691040039,5.336973667144775
0,1941320,21.927589416503906,17.788358688354492,-0.9114866256713867,-8.945548057556152
0,1941320,-8.451668739318848,23.87101173400879,9.935340881347656,11.793512344360352
0,1941320,-13.84977912902832,-5.3726935386657715,-1.8913800716400146,19.149883270263672
0,1941321,-1.1184475421905518,-3.8332011699676514,-29.933332443237305,-49.86840057373047
0,1941321,-20.477764129638672,-13.306315422058105,-4.247478485107422,-20.70756721496582
0,1941321,-2.3074538707733154,2.3931031227111816,21.188764572143555,60.23067092895508
0,1941321,32.050167083740234,8.07497787475586,9.44703197479248,12.496147155761719
0,1941321,-5.473042011260986,-4.388945579528809,-3.5327022075653076,-10.596416473388672
0,1941321,-26.95165252685547,13.974656105041504,-6.118866443634033,9.806709289550781
0,1941322,11.323585510253906,-5.930996417999268,-16.827707290649414,-44.59662628173828
0,1941322,8.288093566894531,-37.41210174560547,-0.10608384758234024,-12.61191177368164
0,1941322,-11.54622745513916,-4.45032262802124,12.429622650146484,29.093034744262695
0,1941322,-2.4119505882263184,20.15871238708496,5.479811191558838,1.8447564840316772
0,1941322,-7.012084484100342,3.771986961364746,1.5774550437927246,8.080097198486328
0,1941322,13.677863121032715,6.26162576675415,-17.80399513244629,-14.457014083862305
0,1941323,18.236480712890625,12.841001510620117,10.082380294799805,-22.825759887695312
0,1941323,-12.022751808166504,-8.511399269104004,30.601850509643555,10.23003101348877
0,1941323,-5.16542911529541,-15.94192123413086,-23.648914337158203,24.254573822021484
0,1941323,5.167572975158691,9.214922904968262,-29.293731689453125,-19.76679801940918
0,1941323,2.6682419776916504,4.0313239097595215,19.164831161499023,-32.938297271728516
0,1941323,6.34222412109375,-5.525843143463135,26.849964141845703,23.28531265258789
0,1941324,-0.46854016184806824,12.944419860839844,-7.762304782867432,28.356975555419922
0,1941324,-26.374631881713867,5.011084079742432,-2.0307843685150146,-9.299579620361328
0,1941324,7.813679218292236,-10.585028648376465,7.068142414093018,-20.04891014099121
0,1941324,31.474454879760742,-9.584366798400879,-9.006470680236816,7.406510353088379
0,1941324,-14.085151672363281,4.823268413543701,7.018420696258545,26.83047866821289
0,1941324,2.111602544784546,7.0976152420043945,8.931320190429688,-9.716448783874512
0,1941325,20.704771041870117,-1.756551742553711,-10.613795280456543,-14.854884147644043
0,1941325,-23.316749572753906,9.713868141174316,-18.06925392150879,22.697673797607422
0,1941325,-21.126949310302734,0.30106788873672485,2.4610447883605957,4.72278356552124
0,1941325,27.3635196685791,-13.306949615478516,15.040079116821289,-15.516175270080566
0,1941325,17.915660858154297,-3.407581090927124,-12.659868240356445,-11.499505996704102
0,1941325,-17.191795349121094,9.80252742767334,-18.799959182739258,7.921804904937744
0,1941326,-5.318575859069824,7.5394697189331055,11.572956085205078,5.283729553222656
0,1941326,-12.883564949035645,-28.83930778503418,19.49066162109375,-11.33594036102295
0,1941326,-11.929032325744629,-2.188703775405884,-0.6704304218292236,25.296037673950195
0,1941326,20.343496322631836,26.030548095703125,-26.70118522644043,15.74306583404541
0,1941326,-8.80240535736084,-28.69461441040039,-6.427027702331543,-19.514110565185547
0,1941326,-7.782881736755371,-1.9164055585861206,20.426515579223633,-9.143138885498047
0,1941327,19.67049789428711,25.594675064086914,7.08413028717041,4.000704288482666
0,1941327,-3.4344234466552734,-10.822452545166016,12.131340026855469,2.6235976219177246
0,1941327,2.593919038772583,-8.559624671936035,2.864875555038452,-7.864563941955566
0,1941327,8.22431755065918,5.349828720092773,-22.39274787902832,-15.870692253112793
0,1941327,-24.83137321472168,0.5819374322891235,-14.976849555969238,-8.385673522949219
0,1941327,-3.039027690887451,11.802809715270996,20.09804344177246,2.9091241359710693
0,1941328,24.56540298461914,3.888613700866699,7.34169864654541,-6.23484468460083
0,1941328,-6.8770527839660645,-21.090465545654297,-19.104494094848633,7.670746803283691
0,1941328,-8.299641609191895,13.46456241607666,18.60326385498047,7.930781364440918
0,1941328,-5.292893409729004,16.474828720092773,-3.0947787761688232,-0.35587984323501587
0,1941328,4.567295551300049,-4.204796314239502,-23.372373580932617,-3.036041259765625
0,1941328,12.400240898132324,-12.331931114196777,19.14517593383789,-12.926616668701172
0,1941329,-6.7724738121032715,-5.217397212982178,3.352139711380005,21.460819244384766
0,1941329,-12.582435607910156,10.03501033782959,-11.533307075500488,26.53424072265625
0,1941329,1.6708730459213257,7.719354152679443,6.8835906982421875,-14.590518951416016
0,1941329,33.00703811645508,24.322399139404297,-3.97114896774292,-27.82537078857422
0,1941329,-10.98082447052002,-21.011655807495117,-16.321130752563477,27.507110595703125
0,1941329,-36.77427673339844,-35.991302490234375,22.93991470336914,35.36250686645508
0,1941330,19.5750789642334,5.995386600494385,10.669502258300781,-29.45356559753418
0,1941331,17.308595657348633,0.5151163339614868,-29.709121704101562,-8.480786323547363
0,1941331,3.7293074131011963,22.042306900024414,9.859010696411133,8.4301118850708
0,1941331,0.22740529477596283,0.3273566961288452,5.756014347076416,-12.050824165344238
0,1941331,-21.508541107177734,-37.34813690185547,-8.704647064208984,8.177894592285156
0,1941332,-13.080544471740723,24.71873664855957,17.68382453918457,-0.49672362208366394
0,1941332,15.182631492614746,19.434133529663086,1.536048412322998,-19.568622589111328
0,1941332,13.032771110534668,-25.94056510925293,-7.968368053436279,-5.94564151763916
0,1941332,-7.051869869232178,4.733458518981934,14.467058181762695,7.920512676239014
0,1941332,3.7300658226013184,4.283277988433838,-6.635331630706787,16.055496215820312
0,1941334,3.441201686859131,-1.109790325164795,-12.284941673278809,-10.307394981384277
0,1941335,-34.96858596801758,10.639636993408203,13.373637199401855,-12.533256530761719
0,1941336,-25.76279067993164,6.680792808532715,-5.023887634277344,17.147634506225586
0,1941339,35.69270706176758,-4.010931491851807,-2.188397169113159,0.34635689854621887
0,1941340,27.273164749145508,-3.0129172801971436,6.687470436096191,-4.382146835327148
0,1941343,-14.145450592041016,-2.5415642261505127,1.3081961870193481,16.467905044555664
0,1941344,-14.220970153808594,-18.432395935058594,-18.982242584228516,-3.716240167617798
0,1941347,3.172403335571289,7.037252902984619,-37.29838180541992,-31.699321746826172
0,1941348,43.4291877746582,19.987117767333984,10.04761791229248,-15.78195571899414
0,1941351,1.288622498512268,-20.596935272216797,48.76776123046875,17.49033546447754
0,1941352,-42.853797912597656,-4.521214485168457,16.031970977783203,19.162647247314453
0,1941355,8.365691184997559,25.397377014160156,-17.312679290771484,8.544047355651855
0,1941356,12.089776039123535,-2.9550137519836426,-14.472898483276367,2.9099526405334473
0,1941359,12.338635444641113,-8.207115173339844,-14.549575805664062,-28.299453735351562
0,1941360,4.15604829788208,0.012848589569330215,7.612328052520752,9.671720504760742
0,1941363,-34.67919921875,-4.8413801193237305,6.368905067443848,43.04795455932617
0,1941364,12.25424861907959,-4.236398696899414,-6.534940719604492,-18.005104064941406
0,1941367,-9.275323867797852,4.451949119567871,27.428569793701172,-39.95429229736328
0,1941368,-55.31535339355469,14.31004524230957,-4.271130561828613,6.636932373046875
0,1941371,39.75148010253906,-2.307095527648926,10.265210151672363,34.26957321166992
0,1941372,18.12783432006836,-14.411750793457031,40.44963836669922,5.827105522155762
0,1941375,-41.668514251708984,-10.822518348693848,-73.44702911376953,-31.274951934814453
0,1941377,-18.08316421508789,4.532606601715088,-23.22745704650879,-28.5677433013916
0,1941379,57.87506103515625,27.743499755859375,45.3154296875,18.554088592529297
0,1941381,46.47929382324219,-8.034319877624512,-61.55952453613281,8.3278169631958
0,1941383,45.11639404296875,-32.84614944458008,-27.927040100097656,-3.8816885948181152
0,1941385,196.59544372558594,30.61301040649414,47.45886993408203,41.06038284301758
0,1941580,-164.2906951904297,5.1100921630859375,52.611026763916016,25.1021785736084
0,1941580,-317.17730712890625,-31.00197410583496,24.677576065063477,-7.057806968688965
0,1941580,157.45022583007812,36.44590759277344,-45.76004409790039,-18.669450759887695
0,1941580,112.91439056396484,3.8521199226379395,-14.540409088134766,-19.159191131591797
0,1941580,-78.82752990722656,-30.10598373413086,41.517250061035156,-2.523947238922119
0,1941580,-12.685891151428223,0.6427152156829834,-5.159469127655029,-15.968552589416504
0,1941581,-12.648465156555176,6.172618389129639,-8.9207124710083,-12.72789478302002
0,1941581,-32.659507751464844,4.317240238189697,7.242410182952881,12.361980438232422
0,1941581,-17.14625358581543,-14.511168479919434,-9.160821914672852,3.347071647644043
0,1941581,24.266748428344727,-4.836575984954834,0.08457482606172562,-13.595118522644043
0,1941581,22.101455688476562,16.56211280822754,-15.561683654785156,-28.598407745361328
0,1941581,16.838315963745117,2.546961545944214,-18.63986587524414,-14.055928230285645
0,1941582,22.262834548950195,-8.883892059326172,-1.3844388723373413,20.859012603759766
0,1941582,12.82480239868164,1.3806426525115967,0.6949828267097473,22.79584312438965
0,1941582,26.714963912963867,4.620674133300781,12.993584632873535,6.062708377838135
0,1941582,-4.645274639129639,1.8054053783416748,11.868382453918457,12.508487701416016
0,1941582,-35.99501419067383,3.5456061363220215,-16.791786193847656,20.292591094970703
0,1941583,-2.932873487472534,4.816730499267578,9.240762710571289,1.737650752067566
0,1941583,-2.561030626296997,12.230605125427246,44.7846565246582,-5.7342753410339355
0,1941583,-22.862382888793945,-14.0763521194458,-11.747554779052734,11.23359203338623
0,1941583,-1.8710681200027466,-12.138812065124512,-36.49053192138672,2.7331173419952393
0,1941583,30.45551109313965,21.341352462768555,-3.531824827194214,-39.01350784301758
0,1941583,15.128812789916992,-6.573586463928223,3.9374823570251465,-14.231719017028809
0,1941584,1.6063003540039062,-15.202544212341309,-5.52155065536499,28.20216941833496
0,1941584,-11.621583938598633,-2.5127627849578857,-4.615386486053467,8.156176567077637
0,1941584,-13.437137603759766,-0.26833006739616394,14.523080825805664,-11.512093544006348
0,1941584,8.235699653625488,19.983356475830078,3.8394992351531982,-10.5014009475708
0,1941584,-14.080806732177734,1.4255768060684204,-13.126729011535645,0.28904563188552856
0,1941584,-5.462636947631836,-26.194292068481445,14.49039077758789,4.877624988555908
0,1941585,14.610723495483398,7.361207485198975,-1.9489597082138062,0.21605221927165985
0,1941585,4.3958258628845215,12.272482872009277,-38.02119827270508,1.315856695175171
0,1941585,-0.6660918593406677,-2.9102258682250977,8.990234375,2.856902837753296
0,1941585,9.650482177734375,5.905168056488037,16.014490127563477,10.198966979980469
0,1941585,25.455265045166016,2.7699735164642334,-3.5822739601135254,-5.606257915496826
0,1941585,2.5736513137817383,-14.12623405456543,32.69248580932617,-14.54689884185791
0,1941586,-35.65290069580078,-10.502318382263184,-5.703500270843506,15.332618713378906
0,1941586,-25.333209991455078,11.81634521484375,-16.004802703857422,20.183147430419922
0,1941586,6.344925403594971,-6.262011528015137,29.824634552001953,-5.1116743087768555
0,1941586,1.5350420475006104,4.940678119659424,-13.845203399658203,-23.41381072998047
0,1941586,15.11974811553955,7.0491180419921875,-5.100735664367676,-8.004728317260742
0,1941586,15.48902416229248,-17.474016189575195,25.018268585205078,16.50440788269043
0,1941587,-14.909775733947754,6.295650482177734,-10.776805877685547,25.26204490661621
0,1941587,3.214566230773926,7.970098972320557,-17.3891658782959,-9.051716804504395
0,1941587,20.72705078125,-2.5876975059509277,-8.230045318603516,-39.6342887878418
0,1941587,-5.529210567474365,5.151930809020996,5.218661785125732,-1.9139900207519531
0,1941587,-0.284657746553421,-6.263627052307129,-5.847545146942139,22.447473526000977
0,1941588,-15.90141487121582,-27.655672073364258,-14.040342330932617,-5.400022506713867
0,1941588,-25.03362464904785,12.370889663696289,13.569314002990723,-23.825056076049805
0,1941588,18.76976776123047,29.12848472595215,0.17453628778457642,-11.62236213684082
0,1941588,2.2612948417663574,-41.34404754638672,-7.5205230712890625,16.98859977722168
0,1941588,-17.88196563720703,6.842654705047607,14.918978691101074,20.111072540283203
0,1941588,-5.686446666717529,39.17699432373047,-5.124594211578369,-16.929418563842773
0,1941589,11.23801326751709,-21.138866424560547,7.13218879699707,1.2890468835830688
0,1941589,0.5232715010643005,19.08111000061035,15.015480995178223,13.449084281921387
0,1941589,-12.1827392578125,-9.737054824829102,-19.51787757873535,-3.4653120040893555
0,1941589,17.443347930908203,-26.448360443115234,4.302613258361816,11.907872200012207
0,1941589,22.460243225097656,28.52390480041504,6.448349952697754,-6.397612571716309
0,1941589,-8.730668067932129,3.662003993988037,-10.047532081604004,3.7536513805389404
0,1941590,-19.93543815612793,-11.690516471862793,13.744216918945312,21.296875
0,1941590,5.031605243682861,0.6121212840080261,-8.644181251525879,-7.586036682128906
0,1941590,-1.686113953590393,9.861188888549805,-15.206748008728027,4.126404762268066
0,1941590,13.587061882019043,-4.481053352355957,28.260793685913086,7.948756694793701
0,1941590,31.16889190673828,-9.243436813354492,15.122784614562988,-19.67792320251465
0,1941590,-9.422197341918945,6.613836288452148,-33.47319793701172,2.788792133331299
0,1941591,-17.591144561767578,6.538903713226318,-6.549802780151367,-0.3151217997074127
0,1941591,-5.838302135467529,4.641364574432373,33.24362564086914,-39.68268585205078
0,1941591,5.979744911193848,-2.270360231399536,-21.361730575561523,-16.049869537353516
0,1941591,-5.776823043823242,-9.143287658691406,-14.38701057434082,27.45713233947754
0,1941591,-13.561991691589355,-11.525934219360352,30.380083084106445,7.762855529785156
0,1941591,7.586801052093506,5.41063117980957,-7.290943145751953,-15.65275764465332
0,1941592,11.313718795776367,6.870866298675537,-22.042560577392578,10.867774963378906
0,1941592,3.702208995819092,1.4575071334838867,6.5839762687683105,12.425960540771484
0,1941592,-14.955562591552734,2.4839301109313965,-5.220066070556641,8.30551528930664
0,1941592,-6.519045352935791,-18.705408096313477,-13.701362609863281,-0.19829697906970978
0,1941592,-3.335049867630005,11.36546802520752,14.08469295501709,-3.2854976654052734
0,1941592,0.19411472976207733,12.449186325073242,8.493653297424316,9.866653442382812
0,1941593,23.885347366333008,-21.45647621154785,8.092772483825684,-0.8063488602638245
0,1941593,4.084117889404297,16.6825008392334,2.0328307151794434,-8.542207717895508
0,1941593,-12.330831527709961,25.703615188598633,-12.372054100036621,-10.551218032836914
0,1941593,1.941050410270691,-22.061357498168945,-5.422915935516357,-7.292988300323486
0,1941593,-3.9428207874298096,-30.29155158996582,-2.1046571731567383,-4.257195949554443
0,1941593,-12.779388427734375,1.491943359375,2.0702099800109863,-6.78122615814209
0,1941594,21.836341857910156,10.551580429077148,-0.24504074454307556,-10.393091201782227
0,1941594,5.3678741455078125,2.585063934326172,-4.76175594329834,6.278995513916016
0,1941594,-26.569244384765625,11.325700759887695,3.9085612297058105,31.429067611694336
0,1941594,3.5731310844421387,-0.8797000646591187,5.139797687530518,7.740864276885986
0,1941594,8.223220825195312,-12.342074394226074,-6.419492721557617,-24.125410079956055
0,1941594,1.952695369720459,10.25882339477539,-2.5206050872802734,-5.429328918457031
0,1941595,-8.602288246154785,-3.629401683807373,1.1965489387512207,20.576494216918945
0,1941595,-4.29090690612793,-6.337824821472168,11.784512519836426,22.175731658935547
0,1941595,15.099926948547363,24.646085739135742,2.3685736656188965,-2.2227649688720703
0,1941595,-3.151597738265991,-3.101962089538574,-7.545292377471924,-10.78579044342041
0,1941595,-4.423239231109619,-16.660322189331055,5.95838737487793,2.3431761264801025
0,1941595,-1.8273950815200806,-3.500208616256714,-4.267370223999023,6.7797369956970215
0,1941596,-5.4456353187561035,-21.632661819458008,3.8956518173217773,13.752396583557129
0,1941596,13.524571418762207,12.12376594543457,2.4294393062591553,-12.840940475463867
0,1941596,0.19520795345306396,24.410789489746094,12.06798267364502,0.7767035365104675
0,1941597,-11.289127349853516,-15.070209503173828,2.0623369216918945,28.79230308532715
0,1941597,10.833524703979492,-5.375117778778076,-28.61053466796875,-23.953893661499023
0,1941598,9.448339462280273,9.33811092376709,3.5922305583953857,-26.413787841796875
0,1941598,-16.137775421142578,9.90280818939209,16.239980697631836,8.348126411437988
0,1941598,-8.169501304626465,-8.671612739562988,15.87376880645752,2.357083797454834
0,1941598,13.227612495422363,-14.629366874694824,-17.397403717041016,-18.222848892211914
0,1941598,-8.176033020019531,22.243337631225586,-25.012853622436523,-16.622243881225586
0,1941599,4.39731502532959,21.429452896118164,18.94623374938965,-1.4573040008544922
0,1941599,22.370712280273438,-13.58755111694336,-7.009815216064453,-13.64986515045166
0,1941600,-35.64310836791992,-31.130521774291992,-21.154064178466797,-1.3240690231323242
0,1941601,-28.16629981994629,8.172602653503418,33.437225341796875,17.82654571533203
0,1941603,45.68852615356445,32.17192459106445,44.17208480834961,23.649595260620117
0,1941605,-9.814184188842773,-22.417627334594727,-48.26959228515625,-3.4870071411132812
0,1941607,-43.679351806640625,-26.821876525878906,-39.55060958862305,-33.17050552368164
0,1941609,93.62242126464844,19.254226684570312,25.211423873901367,16.634862899780273
0,1941611,83.3423843383789,-0.17886380851268768,-23.08635711669922,43.980926513671875
0,1941613,-18.385852813720703,-8.140541076660156,-4.868853569030762,3.770015239715576
0,1941615,-41.53823471069336,15.048513412475586,36.04472732543945,-21.593894958496094
0,1941617,-52.72761917114258,-21.12017822265625,19.55487823486328,3.8597915172576904
0,1941619,-32.650634765625,-9.91792106628418,-1.8697967529296875,9.546719551086426
0,1941621,-39.97953414916992,36.97120666503906,-7.476507186889648,-3.234653949737549
0,1941623,-1.219844937324524,14.201951026916504,2.777492046356201,-36.401607513427734
0,1941625,30.622140884399414,-5.255589962005615,11.743608474731445,-47.56943130493164
0,1941627,1.1313263177871704,-4.863899230957031,12.792689323425293,62.25243377685547
0,1941629,-27.560571670532227,-16.84236717224121,-41.06503677368164,-17.412357330322266
0,1941631,-5.1538004875183105,-12.066996574401855,-31.01722526550293,-96.4498519897461
0,1941634,43.6849365234375,20.652612686157227,49.74488067626953,108.64981079101562
0,1941635,23.558095932006836,40.414451599121094,17.71246337890625,84.16297149658203
0,1941636,-2.1711714267730713,-15.450340270996094,-29.824974060058594,-69.06624603271484
0,1941639,24.491039276123047,-52.188114166259766,-12.698573112487793,-10.683682441711426
0,1941640,28.00187110900879,-1.894989252090454,-5.042158603668213,52.094825744628906
0,1941643,-22.40623664855957,23.493885040283203,-1.1758065223693848,4.119048118591309
0,1941644,-24.112672805786133,9.879942893981934,7.032751083374023,-15.295646667480469
0,1941647,0.7582876086235046,-15.689966201782227,24.91195297241211,0.5365540385246277
0,1941648,-16.26213836669922,-23.482004165649414,-1.3062849044799805,-23.234081268310547
0,1941651,-28.960145950317383,20.4421443939209,-14.245116233825684,15.220685958862305
0,1941845,10.634713172912598,32.37392807006836,10.048440933227539,-10.269416809082031
0,1941845,24.633264541625977,3.838941812515259,-3.5386807918548584,-70.15245056152344
0,1941845,-1.4158774614334106,-11.048083305358887,-12.01533317565918,4.644229888916016
0,1941845,0.10382553935050964,-16.066423416137695,1.9333282709121704,26.772716522216797
0,1941845,14.88163948059082,-1.284857153892517,-2.2205936908721924,-19.050710678100586
0,1941845,28.334062576293945,0.33197301626205444,-6.840270042419434,-15.509354591369629
0,1941846,-8.327055931091309,0.7325826287269592,25.36728858947754,40.29670715332031
0,1941846,-25.8505916595459,3.471606969833374,15.64561939239502,43.239532470703125
0,1941846,-0.025699343532323837,2.4142963886260986,-13.09814167022705,-15.213456153869629
0,1941846,-11.830155372619629,8.702530860900879,-9.794299125671387,-8.87894058227539
0,1941846,-12.363576889038086,-14.77424430847168,-10.970305442810059,1.2390154600143433
0,1941846,9.858678817749023,-3.9410181045532227,-8.032840728759766,-16.742706298828125
0,1941847,-3.6906845569610596,7.495494842529297,2.0466578006744385,-0.6115795373916626
0,1941847,-1.5995056629180908,-16.902938842773438,13.296377182006836,28.9071102142334
0,1941847,28.264616012573242,15.680274963378906,-9.936727523803711,7.300175666809082
0,1941847,5.12901496887207,9.232038497924805,-27.149242401123047,-24.903079986572266
0,1941847,-24.341650009155273,-21.582481384277344,7.347751140594482,7.635831832885742
0,1941847,1.6633998155593872,19.498231887817383,26.96622657775879,-3.6073901653289795
0,1941848,16.345043182373047,13.968006134033203,7.3506622314453125,-22.441408157348633
0,1941848,-21.561372756958008,-12.387077331542969,3.1508638858795166,21.93979835510254
0,1941848,-11.33206844329834,-4.276301860809326,-1.9095863103866577,-1.3891834020614624
0,1941848,21.2409610748291,-4.374574661254883,-6.548481464385986,-21.080041885375977
0,1941848,2.348764657974243,-9.509013175964355,12.246238708496094,19.017616271972656
0,1941849,-1.1952552795410156,2.321577310562134,13.127206802368164,11.529545783996582
0,1941849,23.42200469970703,17.536470413208008,-8.582562446594238,-16.358945846557617
0,1941849,8.131378173828125,6.666600704193115,-23.261432647705078,-15.261795997619629
0,1941849,-13.162261962890625,-15.955242156982422,4.571037769317627,8.872916221618652
0,1941849,-5.308320045471191,-14.54577350616455,18.092931747436523,34.04362106323242
0,1941849,1.2360656261444092,17.88810157775879,-10.997098922729492,1.0369735956192017
0,1941850,-10.287714004516602,-4.230448246002197,-14.115267753601074,-8.71117115020752
0,1941850,-20.181591033935547,-21.81765365600586,15.871197700500488,-0.6644389629364014
0,1941850,10.399236679077148,5.837835311889648,-0.7193682193756104,-19.868318557739258
0,1941850,5.652915000915527,12.17999267578125,-22.308189392089844,6.8652520179748535
0,1941850,-14.864816665649414,1.888756513595581,15.14775276184082,18.673816680908203
0,1941850,-5.973494052886963,3.1350836753845215,16.41883659362793,-26.187891006469727
0,1941851,2.008976936340332,13.7333402633667,-18.194732666015625,-39.07183837890625
0,1941851,7.665738582611084,-15.881340026855469,-7.641500473022461,33.88325119018555
0,1941851,6.6399617195129395,-0.703255295753479,16.514263153076172,22.83700942993164
0,1941851,-3.163501501083374,17.99663734436035,2.971076726913452,-17.559036254882812
0,1941851,-2.325275421142578,-23.46791648864746,-11.666265487670898,4.577864646911621
0,1941851,12.90626049041748,3.88224458694458,-3.8324058055877686,-7.300430774688721
0,1941852,-10.031368255615234,6.603701114654541,13.71750259399414,0.617755651473999
0,1941852,-11.656864166259766,-36.543922424316406,5.282219409942627,1.9238405227661133
0,1941852,37.26852798461914,11.7174072265625,-9.873581886291504,10.720669746398926
0,1941852,-0.7491679787635803,32.93931198120117,2.0602951049804688,11.146607398986816
0,1941852,-42.92811584472656,-9.835203170776367,3.8838143348693848,-19.763975143432617
0,1941852,19.043041229248047,-3.1501288414001465,-6.9477996826171875,0.3785397410392761
0,1941853,22.61530113220215,15.543429374694824,7.847101211547852,17.641115188598633
0,1941853,-28.140167236328125,-16.048986434936523,9.536508560180664,-4.00149393081665
0,1941853,-9.961358070373535,-20.694005966186523,-16.066417694091797,-17.537691116333008
0,1941853,16.22119140625,24.831764221191406,-9.254051208496094,-3.2642500400543213
0,1941853,-0.4241272807121277,-1.5690662860870361,17.55941390991211,37.481388092041016
0,1941853,-8.08907413482666,-16.151123046875,4.980964183807373,1.3900846242904663
0,1941854,11.976322174072266,20.45279884338379,-22.476980209350586,-32.06169509887695
0,1941854,3.79584002494812,-3.099600315093994,-14.536547660827637,20.318147659301758
0,1941854,-12.687531471252441,-8.176495552062988,18.888675689697266,0.9962812066078186
0,1941854,6.3788838386535645,-5.563555717468262,20.234149932861328,-22.900005340576172
0,1941854,9.041682243347168,-3.715423822402954,-17.543729782104492,-8.717909812927246
0,1941854,-3.5492141246795654,24.54420280456543,-10.1054105758667,0.08901702612638474
0,1941855,-11.815413475036621,-0.5642796754837036,13.572482109069824,8.411412239074707
0,1941855,-2.228292226791382,-9.206194877624512,3.9330852031707764,-7.073889255523682
0,1941855,-6.417971134185791,14.851181983947754,3.116793632507324,15.700180053710938
0,1941855,-7.499687671661377,17.73465919494629,11.034658432006836,0.7996869087219238
0,1941855,23.469465255737305,-6.956793308258057,-11.30787467956543,-35.06856155395508
0,1941855,2.163980007171631,-34.12508010864258,-16.556007385253906,-4.52255916595459
0,1941856,-10.639912605285645,-0.8354054093360901,-0.4224204421043396,17.88062858581543
0,1941856,7.547531604766846,28.159940719604492,8.54274845123291,18.41939926147461
0,1941856,-9.59253215789795,-9.363271713256836,8.7263822555542,-5.637300491333008
0,1941856,-6.873932838439941,-17.459474563598633,-13.581831932067871,-12.719025611877441
0,1941856,1.0318059921264648,9.684758186340332,-12.625038146972656,17.736230850219727
0,1941856,9.02054214477539,1.8406028747558594,13.718544006347656,6.911285400390625
0,1941857,-0.9820226430892944,-6.960939407348633,4.113376140594482,-12.037297248840332
0,1941857,-2.648918390274048,1.948283314704895,-16.055561065673828,5.671693801879883
0,1941857,10.474194526672363,-0.3106898069381714,13.877663612365723,-0.042935434728860855
0,1941857,-7.258042335510254,-20.461929321289062,14.102887153625488,-1.81960129737854
0,1941857,7.748247146606445,19.14618492126465,-15.647378921508789,10.648832321166992
0,1941857,13.593783378601074,19.277795791625977,-10.724817276000977,-2.613896369934082
0,1941858,3.0677602291107178,-39.21943283081055,12.261923789978027,-11.628832817077637
0,1941858,-8.44023323059082,-3.9625935554504395,10.453167915344238,-6.405033588409424
0,1941858,-4.143735408782959,32.854759216308594,-7.78008508682251,17.538578033447266
0,1941858,11.105172157287598,7.937160491943359,4.051430702209473,13.21640396118164
0,1941858,-11.319684028625488,-5.799383163452148,-7.645401954650879,-24.57111167907715
0,1941858,-26.81632423400879,0.3059464395046234,-6.429155349731445,11.14339542388916
0,1941859,18.41246223449707,3.369722843170166,7.602451801300049,31.234655380249023
0,1941859,21.231029510498047,-3.009446382522583,18.444311141967773,-2.8975367546081543
0,1941859,-16.577194213867188,-6.788809776306152,14.158904075622559,-10.881848335266113
0,1941859,3.928854465484619,-1.3333381414413452,-49.308006286621094,3.067424774169922
0,1941859,-7.926964282989502,-11.723182678222656,-11.856886863708496,12.94739818572998
0,1941859,-18.079240798950195,4.114548683166504,52.23693084716797,-3.7122066020965576
0,1941860,20.86138343811035,1.8612866401672363,-15.257928848266602,-9.977766036987305
0,1941860,3.0067901611328125,-3.234127998352051,-20.13722038269043,-18.441333770751953
0,1941860,-15.424518585205078,17.61357307434082,8.189398765563965,-13.110107421875
0,1941860,18.805320739746094,-5.060922145843506,-21.19944190979004,12.967734336853027
0,1941860,2.573172092437744,-5.763245105743408,15.263978958129883,0.49880000948905945
0,1941860,-2.8902881145477295,1.9828578233718872,24.281906127929688,-30.543935775756836
0,1941861,9.052029609680176,4.362048625946045,-9.226712226867676,-3.8930110931396484
0,1941861,-2.791612386703491,-3.3188400268554688,-4.679790496826172,30.085981369018555
0,1941862,-3.6397745609283447,-14.477972984313965,6.430903434753418,-4.54400634765625
0,1941862,-10.983256340026855,15.988757133483887,-9.948707580566406,-29.29967498779297
0,1941862,9.671692848205566,11.620009422302246,-14.511956214904785,-9.349058151245117
0,1941863,-0.13229434192180634,-21.14765167236328,29.381967544555664,15.916996002197266
0,1941863,-24.989938735961914,-9.023659706115723,12.28089714050293,19.25589942932129
0,1941863,10.314092636108398,17.164363861083984,-28.94171714782715,-12.019599914550781
0,1941863,10.58005142211914,8.148218154907227,-8.740269660949707,-7.186308860778809
0,1941863,-5.431158065795898,-1.138339638710022,11.280479431152344,14.73092269897461
0,1941865,-15.85554027557373,-5.1475043296813965,-6.722158432006836,-5.2469611167907715
0,1941865,-8.638520240783691,-7.460935592651367,-11.193906784057617,-5.99025821685791
0,1941867,29.11913299560547,7.930996894836426,19.153697967529297,19.675785064697266
0,1941869,20.51238441467285,10.727677345275879,2.5882909297943115,14.524685859680176
0,1941871,-5.806445121765137,3.227696657180786,-4.343577861785889,16.840377807617188
0,1941873,-11.047465324401855,-17.9012508392334,11.256373405456543,2.872971534729004
0,1941875,13.509600639343262,-9.67419719696045,-10.791158676147461,-57.94915008544922
0,1941877,5.073265552520752,23.12091636657715,7.122753620147705,-5.921425819396973
0,1941879,-20.6575984954834,-6.641321659088135,8.080543518066406,49.300636291503906
0,1941881,-3.6214993000030518,-18.704954147338867,-3.5650439262390137,-14.910348892211914
0,1941883,-7.359025478363037,25.122112274169922,10.08255386352539,-23.042879104614258
0,1941885,-5.365133285522461,-1.2773959636688232,-12.920340538024902,9.736513137817383
0,1941888,11.24945068359375,-34.69796371459961,-32.5049934387207,12.74588394165039
0,1941889,-10.961709022521973,8.996001243591309,8.100089073181152,21.303468704223633
0,1941890,5.659646987915039,14.891921997070312,28.62677001953125,-6.924514293670654
0,1941893,20.539451599121094,-21.989381790161133,-30.066789627075195,-36.265289306640625
0,1941894,-15.35671329498291,0.4399859309196472,-4.719277381896973,12.710923194885254
0,1941897,1.9565585851669312,31.58243179321289,49.8703727722168,33.6541748046875
0,1941898,13.219442367553711,0.5344845056533813,3.63848876953125,-26.310216903686523
0,1941901,-31.340423583984375,-12.870694160461426,-11.073925018310547,-27.172643661499023
0,1941902,-30.582019805908203,7.910943984985352,8.043992042541504,42.82099533081055
0,1941905,32.57262420654297,-1.336511254310608,-61.501708984375,24.244457244873047
0,1941906,62.18747329711914,4.712216377258301,-32.39956283569336,-52.49827575683594
0,1941909,39.704410552978516,6.470920562744141,66.77299499511719,-21.32852554321289
0,1941910,-12.226859092712402,-8.752095222473145,24.399524688720703,6.3644537925720215
0,1942105,-81.22703552246094,4.613909721374512,-18.950185775756836,-0.27469944953918457
0,1942105,-60.7324333190918,-17.93950080871582,-13.473163604736328,27.77104377746582
0,1942105,29.864274978637695,-7.458629608154297,18.118776321411133,12.82679557800293
0,1942105,52.46650695800781,25.420204162597656,1.5879051685333252,2.430859327316284
0,1942106,1.9010270833969116,-4.358213901519775,-31.80513572692871,-23.34908676147461
0,1942106,-28.040193557739258,-19.985132217407227,8.07441520690918,-4.930744647979736
0,1942106,-1.0726395845413208,-6.582661151885986,27.461891174316406,42.38449478149414
0,1942106,6.980809688568115,16.89036750793457,6.494568824768066,-12.13022232055664
0,1942106,-13.751983642578125,16.992481231689453,2.419034481048584,-36.99701690673828
0,1942107,4.885655879974365,-0.29896026849746704,-11.141768455505371,-7.6618733406066895
0,1942107,14.559225082397461,-14.25791072845459,-29.54293441772461,26.147098541259766
0,1942107,-4.754671573638916,-23.378841400146484,12.593804359436035,21.630104064941406
0,1942107,10.80537223815918,12.285202980041504,16.69411277770996,-23.290876388549805
0,1942107,7.092712879180908,26.144838333129883,-30.721189498901367,-21.18988037109375
0,1942107,-1.4722155332565308,-19.18047332763672,2.0479867458343506,1.6061310768127441
0,1942108,-4.123234748840332,-12.77452564239502,32.16199493408203,20.76058006286621
0,1942108,-13.391725540161133,6.936726093292236,5.506068706512451,0.9507479667663574
0,1942108,6.237396240234375,3.826993703842163,2.3338851928710938,-25.038280487060547
0,1942108,8.249126434326172,14.369903564453125,-12.170957565307617,-4.684476852416992
0,1942108,-13.745749473571777,-0.029593542218208313,-27.41449737548828,16.764026641845703
0,1942108,-17.597715377807617,-15.085285186767578,11.53620433807373,29.314340591430664
0,1942109,23.378103256225586,4.816420555114746,12.787859916687012,-14.398114204406738
0,1942109,31.67609977722168,-0.32809707522392273,-15.263405799865723,-8.186505317687988
0,1942109,-16.36016845703125,-15.84969711303711,2.705915927886963,30.035680770874023
0,1942109,-16.055503845214844,26.968544006347656,-9.753320693969727,-13.533349990844727
0,1942109,9.179121971130371,22.05531883239746,-4.127312660217285,3.503321409225464
0,1942109,-11.697892189025879,-26.98149871826172,7.985069751739502,15.956480979919434
0,1942110,-18.435138702392578,-17.477659225463867,-7.220935344696045,-8.574102401733398
0,1942110,14.98314380645752,6.382810592651367,23.67505645751953,-0.4435238540172577
0,1942110,-1.1992740631103516,8.098076820373535,19.504858016967773,0.14327456057071686
0,1942110,-7.162262916564941,10.78005599975586,-24.02578353881836,-9.476173400878906
0,1942110,22.008010864257812,-8.56548023223877,-16.48234748840332,-20.563234329223633
0,1942111,-4.259707450866699,-16.610713958740234,12.744641304016113,14.69249153137207
0,1942111,2.0756678581237793,5.410830974578857,4.510573387145996,5.551985740661621
0,1942111,9.421819686889648,7.2023701667785645,0.2853344976902008,-19.06911277770996
0,1942111,-18.885461807250977,-3.071091651916504,-1.8533744812011719,15.478168487548828
0,1942111,7.775755882263184,-0.34696975350379944,-9.431074142456055,-21.193811416625977
0,1942111,12.22080135345459,-0.8654977679252625,2.9138660430908203,-5.532779693603516
0,1942111,-9.441908836364746,-4.918614864349365,13.133674621582031,39.43686294555664
0,1942112,-13.807771682739258,11.790167808532715,6.023321151733398,-6.964252471923828
0,1942112,-8.248029708862305,16.296648025512695,-6.801387786865234,-7.730709075927734
0,1942112,25.389869689941406,-3.0367088317871094,-11.289923667907715,0.4718347489833832
0,1942112,5.138924598693848,-16.060239791870117,-2.974109172821045,-23.300018310546875
0,1942112,-29.404193878173828,-2.6415352821350098,20.551799774169922,4.478442668914795
0,1942112,18.570436477661133,7.039870738983154,5.801616668701172,36.338592529296875
0,1942113,12.267248153686523,0.27678564190864563,-16.730613708496094,-4.113619804382324
0,1942113,-26.080154418945312,-2.155301094055176,-5.615822792053223,-35.077274322509766
0,1942113,10.044953346252441,-4.966829776763916,7.736663341522217,-3.6557846069335938
0,1942113,3.771121025085449,-11.030235290527344,9.386462211608887,22.848112106323242
0,1942113,-20.10660743713379,4.551334857940674,0.9219711422920227,-3.4616246223449707
0,1942113,22.70401382446289,17.608997344970703,-27.01136016845703,-4.3330979347229
0,1942114,19.46304702758789,-6.029153347015381,-20.8092041015625,12.643468856811523
0,1942114,-36.81117630004883,-2.515307664871216,31.60977554321289,-9.735390663146973
0,1942114,4.774794578552246,6.029030799865723,8.074759483337402,-22.773332595825195
0,1942114,24.223604202270508,-14.775503158569336,-16.16666603088379,0.6004948019981384
0,1942114,-30.899860382080078,13.311685562133789,17.842260360717773,26.839143753051758
0,1942115,4.908585071563721,18.542516708374023,10.252553939819336,-3.8342125415802
0,1942115,13.235211372375488,-35.15062713623047,-13.079307556152344,-11.412508010864258
0,1942115,-11.567776679992676,-13.248444557189941,-5.18601131439209,-11.051827430725098
0,1942115,9.537413597106934,46.12530517578125,6.553854465484619,-18.724586486816406
0,1942115,5.106822967529297,7.633618354797363,-3.218229293823242,6.153357028961182
0,1942115,-6.210709095001221,-36.82075500488281,-12.029845237731934,13.635693550109863
0,1942116,-17.702531814575195,-13.08452033996582,8.352545738220215,8.482641220092773
0,1942116,15.344588279724121,14.800329208374023,-2.623570680618286,-12.54198932647705
0,1942116,23.167024612426758,17.471040725708008,-1.911233901977539,20.06449317932129
0,1942116,-31.19638442993164,-6.215145587921143,24.15500831604004,19.63277816772461
0,1942116,-1.3430906534194946,-6.297804832458496,-23.317474365234375,-25.378726959228516
0,1942116,26.88023567199707,-1.485735297203064,-36.83069610595703,25.949092864990234
0,1942117,-17.734516143798828,7.341464042663574,28.275114059448242,12.977015495300293
0,1942117,-2.776012897491455,13.77852725982666,29.99106216430664,-31.34801483154297
0,1942117,19.420881271362305,-12.7114896774292,-13.401126861572266,18.239526748657227
0,1942117,-6.464548587799072,-23.289243698120117,-4.553066730499268,21.14191246032715
0,1942117,-7.610577583312988,10.205860137939453,12.024554252624512,-1.0980721712112427
0,1942117,-1.8879162073135376,22.659330368041992,7.529595851898193,2.7443933486938477
0,1942118,5.296585559844971,-3.524044990539551,-15.17412281036377,-25.404890060424805
0,1942118,-14.691154479980469,-8.62889289855957,-15.173563003540039,-5.06411600112915
0,1942118,-13.378372192382812,-7.2054829597473145,33.55460739135742,12.764076232910156
0,1942118,27.542612075805664,11.237380027770996,0.5212942957878113,-22.274917602539062
0,1942118,3.007883310317993,11.225628852844238,-38.07931137084961,4.33647346496582
0,1942118,-6.396244049072266,-16.344276428222656,17.80809783935547,7.058419227600098
0,1942119,9.835227966308594,-3.0465962886810303,-4.849875450134277,-23.036699295043945
0,1942119,-24.700044631958008,2.867974042892456,-11.605626106262207,8.102750778198242
0,1942119,-1.6871565580368042,-0.40237778425216675,19.350671768188477,9.481647491455078
0,1942119,27.523176193237305,6.398616313934326,-23.71547508239746,-20.996868133544922
0,1942119,-6.254232406616211,-11.008572578430176,11.730567932128906,0.17617690563201904
0,1942119,-17.070890426635742,-6.530354976654053,13.482487678527832,3.996448040008545
0,1942120,-4.023768424987793,8.260641098022461,-31.318607330322266,2.481417417526245
0,1942120,13.395426750183105,2.759566068649292,9.21031665802002,28.305503845214844
0,1942120,2.1889209747314453,-5.7010722160339355,26.07063865661621,-16.662294387817383
0,1942120,-4.256955623626709,-2.283074140548706,9.642965316772461,-21.914175033569336
0,1942120,-1.6645095348358154,20.151269912719727,-5.410406589508057,24.136581420898438
0,1942120,7.762454032897949,2.003086566925049,-15.782217025756836,-8.957804679870605
0,1942121,13.444450378417969,-40.93120193481445,-23.671714782714844,-1.5327694416046143
0,1942121,-28.0481014251709,-6.323922157287598,2.4117095470428467,22.205638885498047
0,1942121,-1.9671417474746704,44.1603889465332,33.13534927368164,-18.017915725708008
0,1942121,48.12497329711914,-4.103480815887451,-1.813922643661499,-9.461687088012695
0,1942121,-17.99636459350586,-33.697601318359375,-17.192235946655273,18.771446228027344
0,1942123,-28.26460838317871,10.891152381896973,-2.3656651973724365,4.614031791687012
0,1942123,24.97715187072754,27.023279190063477,2.4017627239227295,11.357986450195312
0,1942123,-2.691643238067627,-5.71354341506958,16.94938850402832,11.151688575744629
0,1942123,-16.273286819458008,-6.916330814361572,3.763345241546631,-23.31974220275879
0,1942123,2.054668426513672,10.131876945495605,-18.03980255126953,-24.28704261779785
0,1942123,-10.286149978637695,-12.497836112976074,-2.2828943729400635,-3.0213735103607178
0,1942124,14.554790496826172,2.0371875762939453,15.693937301635742,6.533620357513428
0,1942124,28.19058609008789,11.003939628601074,-4.45572566986084,-14.435882568359375
0,1942124,-36.40711975097656,-8.231722831726074,-12.009553909301758,-24.014320373535156
0,1942125,-6.126351833343506,8.17393684387207,6.043349742889404,14.604009628295898
0,1942127,26.238632202148438,11.805099487304688,12.43657398223877,14.59329605102539
0,1942129,-21.72441291809082,-8.382097244262695,19.256881713867188,16.64537811279297
0,1942131,-20.414445877075195,-15.845590591430664,-10.431156158447266,35.41385269165039
0,1942133,53.995513916015625,-0.38731813430786133,-56.21664047241211,-23.32300567626953
0,1942135,48.62838363647461,2.1327970027923584,-8.139885902404785,-27.96040153503418
0,1942137,-78.0711441040039,-13.211612701416016,70.03643798828125,50.57802963256836
0,1942139,-24.110620498657227,-0.843456506729126,22.168306350708008,36.16952896118164
0,1942141,45.19732666015625,17.4294490814209,-43.46037292480469,-68.0341567993164
0,1942143,-22.16701889038086,-2.2540664672851562,-16.73849868774414,-56.86659240722656
0,1942145,-8.357622146606445,-12.085705757141113,-1.7159373760223389,48.57411575317383
0,1942147,5.5774431228637695,12.85295581817627,7.813487529754639,8.038736343383789
0,1942149,2.3451759815216064,5.638444900512695,17.993867874145508,-22.379302978515625
0,1942151,-7.105978012084961,-13.843415260314941,-2.7842564582824707,44.46882629394531
0,1942153,14.836389541625977,-5.536062717437744,-11.333806991577148,7.3523268699646
0,1942155,41.85908126831055,24.12306785583496,-8.040424346923828,-62.86647415161133
0,1942157,-48.474815368652344,11.700006484985352,17.344850540161133,-1.4149740934371948
0,1942159,-42.82528305053711,-22.306556701660156,15.713141441345215,62.08845138549805
0,1942161,34.246097564697266,4.016226291656494,-31.15286636352539,7.628488063812256
0,1942163,27.08439826965332,6.7174882888793945,-0.36631059646606445,-7.934896945953369
0,1942164,10.886526107788086,-22.484392166137695,12.94899845123291,22.825281143188477
0,1942358,-13.177277565002441,-5.574977874755859,-12.570036888122559,-32.59346389770508
0,1942358,-16.145549774169922,13.580760955810547,22.215606689453125,-48.53921890258789
0,1942358,-7.112578392028809,4.3151021003723145,11.774101257324219,31.85535430908203
0,1942358,2.171137571334839,-1.3663244247436523,-24.782947540283203,3.6620609760284424
0,1942358,25.12043571472168,-2.8732144832611084,-14.232340812683105,-31.64276885986328
0,1942359,-9.323172569274902,8.180325508117676,13.113970756530762,28.911502838134766
0,1942359,-18.540796279907227,8.091230392456055,0.6445991396903992,20.78531265258789
0,1942359,25.47013282775879,-1.703238606452942,-11.762190818786621,-19.1303768157959
0,1942359,5.351078987121582,2.975231885910034,12.872973442077637,-9.605192184448242
0,1942359,-29.73491859436035,-16.84743881225586,-2.692587375640869,5.276299953460693
0,1942359,-3.6510086059570312,-13.1819429397583,3.2431230545043945,-0.9256204962730408
0,1942360,21.240991592407227,11.7205810546875,11.256219863891602,-9.028597831726074
0,1942360,-2.51739764213562,-8.962566375732422,-21.74425506591797,12.011896133422852
0,1942360,-7.125852584838867,-3.401400089263916,0.007888877764344215,-2.6156728267669678
0,1942360,12.802539825439453,16.45229148864746,6.0835700035095215,-18.643770217895508
0,1942360,3.8728506565093994,1.958817958831787,2.414973258972168,22.55546760559082
0,1942361,-15.674856185913086,-3.635096788406372,19.346328735351562,7.416593074798584
0,1942361,6.953871250152588,-3.7112348079681396,1.1881142854690552,-19.645355224609375
0,1942361,8.35304069519043,-5.3011155128479,-7.643636703491211,-2.511162519454956
0,1942361,-13.81074333190918,1.8493131399154663,-20.878908157348633,0.5792403817176819
0,1942361,8.687559127807617,8.831692695617676,-16.27260971069336,7.02618932723999
0,1942361,-1.632307529449463,3.827775001525879,13.47247314453125,12.779952049255371
0,1942362,-18.466798782348633,0.9425488114356995,15.940543174743652,-18.40243148803711
0,1942362,13.218048095703125,17.66179084777832,6.3437418937683105,-20.501909255981445
0,1942362,10.70179271697998,5.809440612792969,-3.896514415740967,24.55263328552246
0,1942362,-18.049427032470703,-31.78699493408203,-7.711431503295898,30.36014747619629
0,1942362,9.11404037475586,-8.416687965393066,-5.375107765197754,-11.777677536010742
0,1942362,17.823558807373047,25.3714656829834,7.736886501312256,-29.742095947265625
0,1942363,-12.41419506072998,3.2493600845336914,3.704892635345459,2.596782684326172
0,1942363,5.4726762771606445,-6.365997314453125,-10.520652770996094,16.84122657775879
0,1942363,0.5541647672653198,-4.4265241622924805,7.158478736877441,7.7002272605896
0,1942363,-18.9661922454834,-13.444887161254883,18.56500244140625,-1.948967695236206
0,1942363,7.643216609954834,-1.8745994567871094,-18.114439010620117,-18.704296112060547
0,1942363,-8.281781196594238,12.53835391998291,-11.191152572631836,-1.6374907493591309
0,1942364,-10.297392845153809,-3.9702095985412598,13.806378364562988,9.141217231750488
0,1942364,6.199363708496094,-23.08428955078125,-32.36641311645508,-13.811715126037598
0,1942364,-1.858358383178711,6.105065822601318,7.420204162597656,-1.5195659399032593
0,1942364,26.935216903686523,25.668912887573242,54.429500579833984,30.1874942779541
0,1942364,8.379768371582031,1.4164882898330688,-23.203771591186523,15.340202331542969
0,1942364,-16.671680450439453,-3.5036230087280273,-27.42579460144043,-24.3085880279541
0,1942365,3.7908129692077637,-6.347043037414551,8.828161239624023,-5.549314498901367
0,1942365,-15.589948654174805,-9.400716781616211,-2.7940690517425537,27.540369033813477
0,1942365,-3.701219081878662,12.882784843444824,14.934768676757812,-14.673067092895508
0,1942365,23.315431594848633,-2.597522258758545,-4.609714984893799,-24.972858428955078
0,1942365,-12.436375617980957,-14.26871395111084,-12.096124649047852,47.576377868652344
0,1942365,-4.549419403076172,13.320062637329102,26.67243003845215,20.227275848388672
0,1942366,13.97281265258789,2.2769343852996826,-11.378432273864746,-40.78598403930664
0,1942366,-23.764036178588867,-7.907580852508545,-18.478717803955078,0.600203275680542
0,1942366,-8.868192672729492,-0.6695647835731506,25.971832275390625,-20.497087478637695
0,1942366,33.23662567138672,-4.254235744476318,-3.936487913131714,-12.267284393310547
0,1942366,2.7442421913146973,0.028208766132593155,-2.188246488571167,51.50180435180664
0,1942366,-19.979610443115234,0.27182790637016296,16.288366317749023,-11.136188507080078
0,1942367,-7.800500392913818,5.719681262969971,-9.53930950164795,-19.85264778137207
0,1942367,9.859664916992188,14.945296287536621,-1.5342626571655273,18.522396087646484
0,1942367,18.506698608398438,2.4237077236175537,1.6705212593078613,-13.416328430175781
0,1942367,-11.381662368774414,-16.132673263549805,-15.525816917419434,-8.79008960723877
0,1942367,-4.992417812347412,-1.0721806287765503,-13.43730640411377,-2.1296465396881104
0,1942367,15.552473068237305,22.522823333740234,10.806596755981445,-4.991333961486816
0,1942368,-11.359514236450195,-0.4686947762966156,15.599720001220703,20.048213958740234
0,1942368,-16.990921020507812,-16.74688148498535,0.14963175356388092,-5.301552772521973
0,1942368,20.466367721557617,5.302099227905273,-6.946252346038818,-18.81859016418457
0,1942368,17.75474739074707,-1.6832551956176758,-1.782525897026062,17.596908569335938
0,1942368,-22.525110244750977,5.170360565185547,4.306639671325684,5.556972026824951
0,1942368,-9.598776817321777,3.0642571449279785,-4.703866481781006,-31.67412757873535
0,1942369,26.32661247253418,-17.160663604736328,1.1100112199783325,-13.394367218017578
0,1942369,-12.760598182678223,10.254847526550293,1.162966012954712,37.570350646972656
0,1942369,-20.79315185546875,5.534878253936768,-2.967249631881714,13.156929969787598
0,1942369,10.99284553527832,-20.371681213378906,-9.820432662963867,-19.10141944885254
0,1942369,-13.545524597167969,-17.581130981445312,-6.014614582061768,-5.8648457527160645
0,1942369,-5.3723249435424805,14.06893539428711,15.886484146118164,17.39922332763672
0,1942370,13.49870491027832,19.920011520385742,0.9214772582054138,5.9038405418396
0,1942370,6.0932745933532715,-7.6008172035217285,-4.776094913482666,-16.47027015686035
0,1942370,0.11397538334131241,-5.696717739105225,1.8502953052520752,15.647197723388672
0,1942370,2.5069732666015625,10.28159236907959,-4.872617721557617,-0.15953528881072998
0,1942370,7.921804428100586,-0.7567728161811829,8.222517967224121,-20.311538696289062
0,1942371,-6.968174457550049,-18.647794723510742,9.897279739379883,11.090598106384277
0,1942371,-13.72860050201416,8.421337127685547,-8.616395950317383,13.335593223571777
0,1942371,15.765902519226074,24.07420539855957,-8.462667465209961,-7.47756814956665
0,1942371,17.605039596557617,1.1015647649765015,14.89365291595459,-12.232991218566895
0,1942371,0.33542460203170776,-11.98507022857666,1.258436918258667,-15.510013580322266
0,1942371,10.083497047424316,0.9060766100883484,-13.312703132629395,4.486545562744141
0,1942372,-19.95794677734375,-0.844585657119751,25.872783660888672,26.272531509399414
0,1942372,-15.360920906066895,-12.122414588928223,1.7364710569381714,-24.482967376708984
0,1942372,11.146459579467773,1.3388056755065918,-24.837629318237305,-8.585738182067871
0,1942372,-12.80949878692627,-11.811150550842285,2.695032835006714,16.081378936767578
0,1942372,-2.274383783340454,-8.357583999633789,3.288283109664917,-34.63762283325195
0,1942372,12.404414176940918,17.2005615234375,-3.0692405700683594,3.5799996852874756
0,1942373,-13.910585403442383,-1.062421202659607,-6.7967424392700195,34.01726150512695
0,1942373,-15.542498588562012,3.394415855407715,-5.504698753356934,3.254495143890381
0,1942373,21.254526138305664,22.258752822875977,3.4061696529388428,-14.286829948425293
0,1942373,9.459307670593262,-3.925588369369507,10.427018165588379,1.9766972064971924
0,1942373,-6.747274398803711,-14.159506797790527,-11.384472846984863,22.85807228088379
0,1942373,4.267247200012207,1.444226861000061,-11.165164947509766,-2.72283673286438
0,1942374,-3.951725721359253,-4.426548957824707,18.68128776550293,2.2437779903411865
0,1942374,6.704131126403809,-13.793584823608398,7.139435291290283,11.44180679321289
0,1942374,6.904858112335205,1.8274438381195068,0.7205308675765991,2.5428404808044434
0,1942375,-11.899900436401367,20.445980072021484,3.8122549057006836,-0.4395601749420166
0,1942375,7.537831783294678,14.380366325378418,1.313132882118225,-13.885932922363281
0,1942375,13.228161811828613,-16.073863983154297,-12.171452522277832,-21.7442684173584
0,1942376,-12.80199146270752,-18.9028377532959,-16.58389663696289,-10.931026458740234
0,1942376,-18.467456817626953,11.689529418945312,25.100088119506836,19.8270263671875
0,1942376,-5.398213863372803,1.2598353624343872,-6.58385705947876,7.977471828460693
0,1942376,21.88414764404297,15.932879447937012,-31.90389060974121,-11.652650833129883
0,1942376,-2.9731805324554443,15.344836235046387,29.49725341796875,5.809775352478027
0,1942377,-20.797962188720703,-27.863567352294922,8.472441673278809,-0.3236836791038513
1,1942378,25.304948806762695,9.614278793334961,-10.235248565673828,10.438151359558105
1,1942379,-4.971373081207275,15.156534194946289,24.494592666625977,45.277156829833984
1,1942380,-23.71293830871582,-34.494598388671875,-5.067564010620117,-10.534619331359863
1,1942383,24.73405647277832,-6.410201549530029,-32.583316802978516,-87.14524841308594
1,1942384,15.188441276550293,20.79079818725586,-3.6466224193573,-4.017632961273193
1,1942387,10.5906982421875,6.178136825561523,11.05815601348877,80.41969299316406
1,1942388,-11.617583274841309,-10.468897819519043,15.598076820373535,15.232170104980469
1,1942391,-25.193096160888672,-1.34105384349823,14.343995094299316,-30.912158966064453
1,1942392,7.510980606079102,12.745392799377441,-32.20091247558594,-5.271137237548828
1,1942395,-8.262078285217285,-34.05683898925781,-9.92054557800293,-4.615885257720947
1,1942397,-0.6497853994369507,-21.041946411132812,23.109939575195312,-21.62350845336914
1,1942399,10.96324634552002,26.907602310180664,-12.788832664489746,5.180631637573242
1,1942401,0.38845357298851013,20.631452560424805,11.060742378234863,-20.19731903076172
1,1942403,4.665882110595703,13.175280570983887,3.901268482208252,-31.756698608398438
1,1942405,-8.994080543518066,-1.0620640516281128,-18.450963973999023,46.329864501953125
1,1942407,4.436122417449951,-13.383024215698242,13.585440635681152,63.61729049682617
1,1942409,8.730145454406738,-0.7585556507110596,18.873939514160156,-8.09383773803711
1,1942411,-10.982247352600098,7.288285255432129,9.267333984375,-67.80059814453125
1,1942413,-11.025154113769531,-18.59080696105957,-17.614055633544922,-43.54197692871094
1,1942415,7.995964050292969,17.520587921142578,-15.873679161071777,55.3926887512207
1,1942417,24.445165634155273,15.47314167022705,-6.959149360656738,95.67147064208984
1,1942419,-9.417154312133789,-43.1152458190918,5.8437395095825195,-48.76516342163086
1,1942421,-13.429740905761719,11.108184814453125,16.98395347595215,-88.04375457763672
1,1942423,-1.0896937847137451,24.8815975189209,-5.243921279907227,48.590885162353516
1,1942425,-8.554057121276855,-17.57543182373047,0.9597634673118591,46.757911682128906
1,1942427,2.295516014099121,-29.78898048400879,-13.052868843078613,-38.05172348022461
1,1942429,8.475081443786621,11.542257308959961,-8.055336952209473,-33.60733413696289
1,1942621,14.329355239868164,33.614463806152344,26.09503936767578,3.1936755180358887
1,1942622,2.44669508934021,-15.271646499633789,-1.1358909606933594,7.703333377838135
1,1942622,-3.6782968044281006,17.20965576171875,-19.36513900756836,8.144850730895996
1,1942622,2.2051126956939697,12.105650901794434,8.602478981018066,9.557723045349121
1,1942622,-14.276345252990723,-34.66407012939453,17.409542083740234,19.275808334350586
1,1942622,-11.873052597045898,-4.127850532531738,-10.847564697265625,12.983359336853027
1,1942622,1.9798240661621094,13.073688507080078,-27.403453826904297,-17.648454666137695
1,1942623,9.185359001159668,1.8406507968902588,6.170706748962402,-15.788728713989258
1,1942623,-8.082793235778809,-12.75444507598877,22.755985260009766,13.834199905395508
1,1942623,-11.29350471496582,-17.91400909423828,-16.702102661132812,2.1728756427764893
1,1942623,11.91855525970459,10.941311836242676,-20.358427047729492,-15.973880767822266
1,1942623,-7.636192798614502,19.857471466064453,24.4118709564209,12.792960166931152
1,1942623,-3.988554000854492,-1.2132606506347656,7.822157859802246,-2.39064884185791
1,1942624,12.51062297821045,-2.2864270210266113,-13.149261474609375,-0.722412109375
1,1942624,5.584289073944092,2.446319580078125,17.798948287963867,9.106133460998535
1,1942624,8.07703971862793,0.8688176870346069,10.687167167663574,-17.5560302734375
1,1942624,3.683772563934326,-13.287833213806152,-1.704233169555664,24.252321243286133
1,1942624,-10.530088424682617,-1.661598563194275,-8.478547096252441,4.478753089904785
1,1942624,-1.33659029006958,-0.43254444003105164,-16.8424129486084,-31.00583267211914
1,1942625,0.8290536403656006,-9.932311058044434,4.593450546264648,13.651328086853027
1,1942625,2.7425785064697266,18.80621337890625,2.002671241760254,10.487339973449707
1,1942625,21.351398468017578,28.034564971923828,-16.34967613220215,-24.257465362548828
1,1942625,-1.541774034500122,-12.65489387512207,-7.808913230895996,-20.239582061767578
1,1942625,-15.690436363220215,-33.117454528808594,17.868070602416992,10.33225154876709
1,1942625,-6.98292875289917,-5.591534614562988,31.93047523498535,11.391304969787598
1,1942626,8.029134750366211,19.892467498779297,-5.021784782409668,-3.4816555976867676
1,1942626,13.527506828308105,14.377201080322266,-22.606096267700195,-16.273073196411133
1,1942626,1.0758388042449951,-8.437220573425293,15.763713836669922,3.726004123687744
1,1942626,-10.377140045166016,5.889718532562256,0.35649701952934265,22.4316463470459
1,1942626,-9.218840599060059,-1.1378697156906128,-20.586410522460938,-6.342030048370361
1,1942627,1.0198700428009033,-22.242626190185547,18.382266998291016,-2.4608874320983887
1,1942627,-20.220571517944336,5.24467658996582,14.953125953674316,4.326947212219238
1,1942627,3.1501832008361816,22.497304916381836,-15.354251861572266,-5.526816368103027
1,1942627,24.67603302001953,-7.634176731109619,-15.437292098999023,11.137113571166992
1,1942627,-16.831796646118164,-12.094267845153809,-2.0417423248291016,15.6829195022583
1,1942627,-1.4782724380493164,25.4394588470459,10.118971824645996,1.630569577217102
1,1942628,16.479032516479492,4.579258918762207,-7.876160144805908,-14.55237102508545
1,1942628,-20.00130844116211,-19.705366134643555,-6.479580402374268,-7.362409591674805
1,1942628,-22.387325286865234,-11.007621765136719,10.424999237060547,16.8904972076416
1,1942628,13.379979133605957,-7.992125988006592,11.871054649353027,8.2133150100708
1,1942628,15.375971794128418,25.998098373413086,20.94034194946289,-1.2324236631393433
1,1942628,9.974802017211914,25.330299377441406,-12.217893600463867,-4.5220537185668945
1,1942629,3.8609137535095215,-24.16272735595703,-27.00033950805664,-32.190269470214844
1,1942629,-7.840258598327637,-14.980734825134277,-4.6605305671691895,-20.8811092376709
1,1942629,0.8628160953521729,14.482844352722168,17.3334903717041,23.93800163269043
1,1942629,4.807625770568848,2.0421063899993896,4.079640865325928,9.720458030700684
1,1942629,-3.443239212036133,-16.377403259277344,-35.986202239990234,16.626422882080078
1,1942629,1.8128767013549805,3.2298693656921387,8.957192420959473,20.78675079345703
1,1942630,6.498153209686279,5.639106750488281,32.15678024291992,-21.019433975219727
1,1942630,-25.30304527282715,-9.498316764831543,0.7143731117248535,-6.53220796585083
1,1942630,-2.54522442817688,19.028152465820312,-11.031266212463379,-10.648343086242676
1,1942630,18.341079711914062,-4.476385593414307,-13.969993591308594,-17.852130889892578
1,1942630,-6.177464485168457,-36.31587219238281,-6.91182279586792,25.398937225341797
1,1942630,8.9459228515625,0.8813135027885437,30.320297241210938,16.556020736694336
1,1942631,14.440756797790527,30.131248474121094,16.786762237548828,-31.681882858276367
1,1942631,-5.440826892852783,12.27578353881836,-35.72672653198242,-19.22613525390625
1,1942631,-8.17036247253418,-18.78133773803711,11.316917419433594,21.870262145996094
1,1942631,1.0342707633972168,-12.56364631652832,25.75594139099121,-2.466036319732666
1,1942631,3.666818618774414,22.097537994384766,-34.005096435546875,-26.464008331298828
1,1942631,-9.8312406539917,16.424856185913086,-22.681013107299805,13.591714859008789
1,1942632,-20.52000617980957,-33.45844268798828,19.36162567138672,31.350629806518555
1,1942632,11.190021514892578,-15.478111267089844,5.004993915557861,5.318665027618408
1,1942632,17.323169708251953,16.712188720703125,-1.003941535949707,-12.722616195678711
1,1942632,-20.481618881225586,-5.329909324645996,8.410343170166016,-9.666391372680664
1,1942632,-12.251922607421875,7.3179426193237305,-0.859582781791687,4.260656833648682
1,1942632,15.48065185546875,3.393974542617798,1.2413272857666016,8.81056022644043
1,1942633,11.012585639953613,-7.572418212890625,-12.500015258789062,-11.681879997253418
1,1942633,2.965078353881836,8.396064758300781,-4.670843124389648,-14.655984878540039
1,1942633,0.8655568957328796,11.597413063049316,18.300472259521484,10.25810718536377
1,1942633,7.956782341003418,13.080368995666504,-10.299209594726562,0.22425857186317444
1,1942633,-9.813501358032227,-21.4154109954834,-4.572903633117676,8.942636489868164
1,1942633,-3.817200183868408,-4.971786975860596,16.38357925415039,4.882731914520264
1,1942634,20.32032585144043,18.929845809936523,-8.046740531921387,-32.1795654296875
1,1942634,-20.368253707885742,-11.536263465881348,-1.5613882541656494,25.854494094848633
1,1942634,-10.428783416748047,13.071259498596191,7.25184440612793,24.263622283935547
1,1942634,8.60180377960205,8.644133567810059,-2.671455144882202,-26.30123519897461
1,1942634,-9.066555976867676,-30.868207931518555,6.201537132263184,4.148044586181641
1,1942634,13.329821586608887,-8.348155975341797,-0.7587881088256836,18.301904678344727
1,1942635,5.231131076812744,11.52894115447998,-0.10105428844690323,5.038891792297363
1,1942635,-10.533498764038086,-7.519698619842529,-0.9944338798522949,-15.140619277954102
1,1942635,14.986958503723145,-10.371919631958008,-9.739681243896484,-6.185795783996582
1,1942635,-3.5604991912841797,23.075849533081055,3.589035987854004,3.5576813220977783
1,1942635,-21.9667911529541,12.699780464172363,2.631732940673828,1.966528296470642
1,1942635,2.587935447692871,-33.324562072753906,-3.541858434677124,26.386672973632812
1,1942636,14.871614456176758,17.417560577392578,0.23958006501197815,4.279220104217529
1,1942636,10.859965324401855,30.776020050048828,-6.070611000061035,-26.278831481933594
1,1942636,-24.001440048217773,-34.79364013671875,-3.3273260593414307,10.920666694641113
1,1942636,-2.481790781021118,-0.32231029868125916,-1.7643667459487915,15.259904861450195
1,1942636,26.238121032714844,19.1871280670166,-9.787841796875,-6.501938343048096
1,1942636,-15.693441390991211,-17.277362823486328,19.611562728881836,0.9254963397979736
1,1942637,-3.6133947372436523,4.690029621124268,21.9815616607666,-1.8118953704833984
1,1942637,15.111846923828125,14.353126525878906,-9.945945739746094,-22.49351692199707
1,1942637,-1.263161301612854,-11.311945915222168,-17.41045379638672,-12.951019287109375
1,1942637,-4.687039852142334,-6.639798641204834,2.3901662826538086,27.11591911315918
1,1942637,-9.885326385498047,7.167819023132324,13.965134620666504,1.0453343391418457
1,1942637,6.24083137512207,3.8422181606292725,-10.161880493164062,-40.39395523071289
1,1942639,1.4618253707885742,-16.547317504882812,-17.179025650024414,-34.247154235839844
1,1942639,-29.348678588867188,-16.665485382080078,4.881463050842285,0.1671174168586731
1,1942639,3.031468152999878,19.369441986083984,23.444717407226562,16.530649185180664
1,1942639,29.128833770751953,14.674601554870605,2.24395751953125,-8.621010780334473
1,1942639,-11.19132137298584,-5.362271785736084,-7.4921112060546875,14.365682601928711
1,1942640,-9.857623100280762,-8.542253494262695,-0.18211981654167175,7.863402366638184
1,1942640,24.57235336303711,-2.1869475841522217,-23.685148239135742,-16.64763641357422
1,1942640,1.0759754180908203,8.612356185913086,-2.5303144454956055,32.60654067993164
1,1942640,-18.611928939819336,-0.48830997943878174,21.77427864074707,24.334474563598633
1,1942641,2.963630199432373,-6.253663063049316,-1.6000089645385742,-14.161298751831055
1,1942643,12.974963188171387,-1.2259612083435059,4.315239906311035,-2.563843011856079
1,1942645,11.882439613342285,13.451834678649902,-13.579621315002441,-12.21010971069336
1,1942647,0.22329193353652954,-10.094297409057617,-23.410478591918945,17.64120864868164
1,1942649,-10.614005088806152,-20.383283615112305,33.17915344238281,41.764583587646484
1,1942651,0.12359130382537842,9.475193977355957,22.79657745361328,-17.825782775878906
1,1942653,-4.949926376342773,21.290952682495117,-12.361522674560547,-29.547712326049805
1,1942655,-15.551212310791016,5.170680046081543,-11.827374458312988,15.022224426269531
1,1942657,2.697779417037964,-32.57366943359375,-1.052150011062622,9.898343086242676
1,1942659,13.895181655883789,-15.527002334594727,12.95386028289795,-24.337783813476562
1,1942660,4.72418212890625,45.42079162597656,1.5236449241638184,-16.31875228881836
1,1942663,-12.804872512817383,31.293027877807617,-4.844058513641357,-12.550336837768555
1,1942664,-8.822279930114746,-22.759902954101562,-2.3992557525634766,10.307258605957031
1,1942667,11.449524879455566,-6.152810573577881,-1.1452041864395142,35.697425842285156
1,1942668,8.542795181274414,-10.962897300720215,-18.26181983947754,-9.882301330566406
1,1942671,-15.490975379943848,-13.903200149536133,-0.09730719774961472,-15.050899505615234
1,1942672,-2.905742883682251,18.260330200195312,16.355791091918945,15.160199165344238
1,1942675,18.749916076660156,-2.9375128746032715,-7.104480743408203,-17.647428512573242
1,1942676,1.109126329421997,-3.769327163696289,-8.902142524719238,-36.94558334350586
1,1942679,-4.376339912414551,8.147856712341309,-1.6430760622024536,10.03378963470459
1,1942680,-15.158416748046875,-20.197845458984375,26.6174259185791,52.880950927734375
1,1942683,4.7816667556762695,-16.739627838134766,14.860108375549316,30.77815055847168
1,1942684,20.11219596862793,15.828239440917969,-18.789329528808594,-28.022071838378906
1,1942687,-16.6641845703125,16.764636993408203,-1.3553175926208496,-36.4417724609375
1,1942688,0.13527558743953705,6.847953796386719,14.783365249633789,11.262934684753418
1,1942691,4.315635681152344,-19.099899291992188,-14.923251152038574,5.285444736480713
1,1942692,-12.105447769165039,-0.9003893136978149,-23.090211868286133,-24.195560455322266
1,1942947,5.863643646240234,31.744108200073242,7.32898473739624,19.415586471557617
1,1942950,-8.102275848388672,-23.979530334472656,13.62880802154541,24.98362922668457
1,1942951,8.868017196655273,-20.02353858947754,1.1339584589004517,-26.988561630249023
1,1942954,27.134199142456055,33.57407760620117,-11.323336601257324,-2.648289203643799
1,1942955,-21.912914276123047,-3.2945396900177,2.007171869277954,27.4025821685791
1,1942958,-23.627971649169922,-14.089548110961914,-0.03164053335785866,-21.38983726501465
1,1942959,23.693126678466797,2.5989980697631836,9.212328910827637,-20.31594467163086
1,1942962,19.184913635253906,-0.3184920847415924,3.836845636367798,36.87200164794922
1,1942963,-22.259984970092773,10.610358238220215,-25.34632110595703,20.77176284790039
1,1944679,-12.794346809387207,-11.532039642333984,17.20081901550293,-36.141719818115234
1,1944679,9.516106605529785,2.1394248008728027,13.902612686157227,-25.13783836364746
1,1944679,1.3147180080413818,15.235246658325195,-20.715173721313477,13.438941955566406
1,1944679,6.298883438110352,-16.57986831665039,0.8869706392288208,8.287875175476074
1,1944679,-17.657325744628906,-9.047611236572266,9.452371597290039,8.496767044067383
1,1944680,1.0253143310546875,27.044811248779297,3.101346731185913,14.590456008911133
1,1944680,17.152414321899414,2.525408983230591,-1.5465152263641357,-5.038189888000488
1,1944680,-14.53130054473877,-24.17128562927246,-9.052340507507324,-3.1745781898498535
1,1944680,8.454439163208008,11.878260612487793,0.3974338173866272,10.20527172088623
1,1944680,7.901967525482178,-5.465295314788818,1.497054100036621,-10.83556842803955
1,1944680,9.937986373901367,-2.4119648933410645,-9.466331481933594,-17.978757858276367
1,1944681,-2.3799283504486084,15.020099639892578,3.605494260787964,4.928591251373291
1,1944681,-17.50437355041504,-15.428630828857422,9.542586326599121,15.999192237854004
1,1944681,6.51623010635376,3.362433671951294,6.164346694946289,-6.295881271362305
1,1944681,-8.569122314453125,6.9201836585998535,-7.2228827476501465,-8.315176963806152
1,1944681,-0.998529314994812,-3.681572437286377,-8.347200393676758,-2.973798990249634
1,1944681,13.39905834197998,8.772068977355957,13.079957962036133,-25.73834991455078
1,1944682,0.23550374805927277,-16.943187713623047,-2.481142282485962,7.183763027191162
1,1944682,-1.315678596496582,-17.08266830444336,-4.1204400062561035,26.4638614654541
1,1944682,3.271235227584839,12.699827194213867,14.558672904968262,-1.1123764514923096
1,1944682,1.5335346460342407,4.84524393081665,-2.4630510807037354,-0.24416863918304443
1,1944682,-5.927407741546631,14.025521278381348,-9.605476379394531,-0.17555250227451324
1,1944682,3.6318888664245605,1.0223667621612549,-1.070684790611267,5.640506267547607
1,1944683,-0.22448724508285522,-21.973331451416016,-3.4913980960845947,-0.48529544472694397
1,1944683,-10.955473899841309,16.119888305664062,-6.452260494232178,-14.217869758605957
1,1944683,-4.721497535705566,7.147933483123779,2.843125104904175,-0.34666192531585693
1,1944683,2.786256790161133,-20.405933380126953,4.638603210449219,9.773404121398926
1,1944683,13.408340454101562,0.2388746738433838,-3.6205222606658936,-1.98177969455719
1,1944684,-2.3885209560394287,19.14912986755371,-6.434145450592041,-22.48317527770996
1,1944684,-19.71831512451172,1.1667544841766357,6.035407543182373,24.1294002532959
1,1944685,0.3739194869995117,-17.358842849731445,17.402921676635742,22.8021183013916
1,1944685,3.3897852897644043,5.242407321929932,-3.9035909175872803,-25.458250045776367
1,1944685,9.459903717041016,-4.066641330718994,-9.304171562194824,20.042848587036133
1,1944687,18.898130416870117,-12.125852584838867,4.321944236755371,0.994830846786499
1,1944689,-15.80988597869873,21.012300491333008,3.8080365657806396,-19.314388275146484
1,1944691,-9.719496726989746,-8.844850540161133,14.51017951965332,18.331884384155273
1,1944693,10.960392951965332,-15.880231857299805,-10.902227401733398,-12.390639305114746
1,1944695,-13.659480094909668,23.32958984375,-37.355796813964844,-4.9885149002075195
1,1944697,-1.9050110578536987,2.4445340633392334,21.03447151184082,6.996213912963867
1,1944699,15.872952461242676,-2.3996684551239014,31.517868041992188,-10.067212104797363
1,1944701,-10.966226577758789,11.907926559448242,-6.580854415893555,-3.364450454711914
1,1944703,-6.110779762268066,-8.359066009521484,-17.312665939331055,-10.082953453063965
1,1944705,21.98160743713379,-21.191612243652344,-25.533737182617188,16.545228958129883
1,1944707,11.10118579864502,6.269947052001953,7.140095233917236,-3.5706825256347656
1,1944710,-9.059564590454102,11.553471565246582,19.563447952270508,-21.656892776489258
1,1944711,-7.0832953453063965,-2.3992645740509033,4.970083236694336,8.30203628540039
1,1944712,-4.308446407318115,4.6025004386901855,2.9264914989471436,14.24571418762207
1,1944715,2.2053585052490234,3.612685203552246,-13.359073638916016,22.91409683227539
1,1944786,2.1271798610687256,-8.196748733520508,-1.9403955936431885,-5.782931804656982
1,1944787,-15.39957332611084,-4.68343448638916,3.2212142944335938,-13.685441970825195
1,1944787,10.669983863830566,11.859246253967285,5.79123592376709,3.9159812927246094
1,1944787,15.82340145111084,2.670253038406372,15.94279956817627,-14.049371719360352
1,1944787,-14.265376091003418,-5.627482891082764,-11.528189659118652,-1.1997394561767578
1,1944787,-4.515216827392578,-12.476667404174805,-14.365925788879395,34.03167724609375
1,1944787,-10.54930591583252,-13.691169738769531,6.837881565093994,-12.520292282104492
1,1944788,7.233034133911133,10.619575500488281,-4.900407791137695,-30.544775009155273
1,1944788,10.837199211120605,30.149154663085938,-3.5369818210601807,29.974348068237305
1,1944788,-4.997283458709717,9.73759937286377,10.419947624206543,2.9468581676483154
1,1944788,13.696320533752441,-23.78047752380371,-9.042536735534668,-38.09190368652344
1,1944788,-11.297286033630371,-22.330575942993164,-3.4884166717529297,-6.887091159820557
1,1944788,-17.780054092407227,-11.150096893310547,4.3728203773498535,38.41260528564453
1,1944789,20.994443893432617,36.13449478149414,1.2074421644210815,22.783374786376953
1,1944789,22.096323013305664,23.33246612548828,6.467001914978027,-25.32225227355957
1,1944789,-19.60186767578125,-40.729156494140625,-8.963162422180176,-13.418612480163574
1,1944789,-26.6876163482666,5.528889179229736,-2.5488076210021973,2.5873961448669434
1,1944789,10.377517700195312,15.78060245513916,6.453131675720215,14.323240280151367
1,1944790,23.46350860595703,-17.306570053100586,12.106021881103516,-1.4242205619812012
1,1944790,2.738438606262207,0.24596011638641357,1.3483225107192993,-17.0513916015625
1,1944790,-11.803420066833496,-4.9912896156311035,-22.419858932495117,3.8025028705596924
1,1944790,0.8418408036231995,6.4605631828308105,7.247216701507568,-7.2993855476379395
1,1944790,-1.0839180946350098,24.608718872070312,25.9611873626709,-8.093631744384766
1,1944790,-7.285676956176758,-8.312029838562012,-2.597090721130371,17.08205223083496
1,1944791,1.243196964263916,-30.003707885742188,-11.98127269744873,3.808892250061035
1,1944791,-14.418110847473145,-7.4853835105896,-2.9896154403686523,-11.050481796264648
1,1944791,4.729875087738037,25.679841995239258,-2.065230131149292,-8.205048561096191
1,1944791,14.76887035369873,-1.8831045627593994,2.2263922691345215,-0.8080955147743225
1,1944791,-15.736448287963867,-22.13127326965332,3.643148422241211,28.50930404663086
1,1944791,14.617975234985352,31.091917037963867,-7.443110942840576,5.839846611022949
1,1944792,19.29203987121582,3.0130577087402344,-7.164679050445557,-19.34959602355957
1,1944792,-27.443870544433594,-35.695587158203125,14.780444145202637,3.361273765563965
1,1944792,-18.18672752380371,9.497196197509766,-0.4228874146938324,9.902565956115723
1,1944792,26.226863861083984,24.971912384033203,-26.734207153320312,3.5940816402435303
1,1944792,10.334010124206543,-6.3939290046691895,3.7196531295776367,16.620037078857422
1,1944793,-28.879810333251953,-7.276136875152588,23.777976989746094,12.699122428894043
1,1944794,10.460844993591309,13.863997459411621,1.1119763851165771,-35.35484313964844
1,1944794,28.90346908569336,-7.796177387237549,-9.5018949508667,-9.162856101989746
1,1944794,-16.758853912353516,-7.006263256072998,-16.115001678466797,19.493913650512695
1,1944796,-5.931103229522705,10.837448120117188,0.2239181250333786,-11.872306823730469
1,1944797,-0.06630494445562363,0.7852252125740051,18.970624923706055,-21.6037654876709
1,1944798,-7.279629230499268,-10.910445213317871,2.858947277069092,0.17875082790851593
1,1944801,23.447982788085938,3.0824851989746094,0.21429428458213806,44.840789794921875
1,1944802,-4.250232219696045,17.68730354309082,-8.812522888183594,-10.144634246826172
1,1944805,-28.014009475708008,-14.88914680480957,10.886219024658203,-48.01274871826172
1,1944806,-3.6183700561523438,-12.694265365600586,15.514209747314453,19.254972457885742
1,1944809,3.5338566303253174,10.574416160583496,-25.57737922668457,6.096050262451172
1,1944810,10.652216911315918,-4.9680867195129395,-4.36317253112793,0.02588912472128868
1,1944813,10.471038818359375,10.930071830749512,28.316991806030273,9.061785697937012
1,1944814,-1.4898507595062256,0.5194224715232849,-12.83092212677002,-22.634130477905273
1,1944817,-12.985173225402832,-23.476638793945312,-33.93720245361328,34.71171951293945
1,1944818,-3.512596607208252,12.661157608032227,3.034844398498535,26.287921905517578
1,1944821,24.700864791870117,9.55660629272461,18.563804626464844,-12.439959526062012
1,1944822,-0.7435758113861084,-10.518961906433105,16.14221954345703,5.1094770431518555
1,1944825,-17.874404907226562,9.421141624450684,-16.46944808959961,-66.108154296875
1,1944826,17.959186553955078,15.036900520324707,-21.187850952148438,-31.23149871826172
1,1944910,8.146265029907227,-12.65584659576416,22.40666961669922,67.87569427490234
1,1944910,-17.989336013793945,-13.968426704406738,14.329833030700684,10.907633781433105
1,1944911,-13.615962028503418,3.0966222286224365,0.5504230856895447,-37.52225112915039
1,1944911,1.3188759088516235,0.5661107301712036,15.032745361328125,10.723739624023438
1,1944911,12.392959594726562,9.57997989654541,-16.019250869750977,5.932409763336182
1,1944911,3.319978713989258,-8.077259063720703,-34.80878829956055,-18.17768096923828
1,1944911,-18.59405517578125,-19.00339698791504,-0.051607195287942886,4.772298336029053
1,1944911,-6.707513332366943,20.001094818115234,16.82644271850586,11.416372299194336
1,1944912,19.438291549682617,4.132976531982422,13.039050102233887,23.695043563842773
1,1944912,7.391635894775391,-9.36502456665039,4.455450057983398,10.94697093963623
1,1944912,0.02862527221441269,10.688941955566406,-2.3780813217163086,-13.979954719543457
1,1944912,0.6902452111244202,-4.763409614562988,-6.264656066894531,0.3276093304157257
1,1944912,8.04013442993164,-2.386897087097168,-15.328450202941895,17.20086097717285
1,1944913,-6.078067779541016,6.735445499420166,13.207321166992188,2.452226400375366
1,1944913,-21.392677307128906,-1.5178546905517578,17.64530372619629,-31.18905258178711
1,1944913,11.59217643737793,-8.840121269226074,-24.34574317932129,-22.349727630615234
1,1944913,16.164033889770508,6.4958319664001465,-6.789468288421631,23.665996551513672
1,1944913,-16.365276336669922,-5.815567493438721,16.129087448120117,32.468048095703125
1,1944913,2.0287222862243652,-9.538969993591309,16.876949310302734,-1.6870485544204712
1,1944913,9.361607551574707,30.947141647338867,-4.534724712371826,-17.265533447265625
1,1944914,-18.0605411529541,-4.603471279144287,-27.49481773376465,-9.584349632263184
1,1944914,1.639339566230774,-30.47950553894043,2.6760413646698,8.387808799743652
1,1944914,3.4332385063171387,13.354386329650879,7.201688766479492,4.148555278778076
1,1944914,9.513965606689453,35.49124526977539,5.8545989990234375,-19.946014404296875
1,1944914,7.852488040924072,-7.642856121063232,12.666861534118652,-13.271093368530273
1,1944915,-15.094478607177734,-31.689838409423828,-2.2054824829101562,-16.29008674621582
1,1944915,-1.4481755495071411,5.7187113761901855,-5.097012996673584,-2.7961955070495605
1,1944915,-2.2140326499938965,11.068170547485352,-6.527612686157227,26.479549407958984
1,1944915,-6.7357635498046875,5.975271224975586,7.325156211853027,3.508998394012451
1,1944915,23.089632034301758,-3.601017475128174,2.802347421646118,-13.373485565185547
1,1944915,7.8521599769592285,-15.063328742980957,-17.44614028930664,3.3633487224578857
1,1944916,-15.160492897033691,2.752922296524048,-9.285542488098145,8.229631423950195
1,1944916,-8.190067291259766,3.7608425617218018,10.621248245239258,4.908905506134033
1,1944916,-9.390242576599121,-10.816171646118164,12.029705047607422,2.4608328342437744
1,1944916,11.693037986755371,-6.400671482086182,1.9419991970062256,2.174342632293701
1,1944916,2.397955894470215,12.925806045532227,-6.18842887878418,-8.930487632751465
1,1944916,-1.4252458810806274,13.900897026062012,-17.4880313873291,-2.0769591331481934
1,1944917,-0.9959672689437866,-22.262941360473633,0.47064390778541565,25.38531494140625
1,1944917,-5.879093170166016,-16.223106384277344,6.460151195526123,-11.77323055267334
1,1944917,-2.9595818519592285,13.83896255493164,-3.1084518432617188,-16.65234375
1,1944917,-3.9866139888763428,26.060623168945312,2.0977654457092285,4.5238142013549805
1,1944917,5.353724002838135,9.904297828674316,-0.9637569785118103,-9.867303848266602
1,1944919,-4.92544412612915,-27.40575408935547,-0.04547034204006195,-1.2807021141052246
1,1944919,11.103328704833984,13.117999076843262,6.596007347106934,-11.271527290344238
1,1944919,18.901592254638672,19.001842498779297,0.3326495289802551,0.6065681576728821
1,1944919,-21.673524856567383,-36.948829650878906,-5.535970211029053,34.48831558227539
1,1944920,-5.66701078414917,12.902478218078613,21.678443908691406,7.188229084014893
1,1944923,28.322208404541016,31.063772201538086,15.046807289123535,-42.77989959716797
1,1944924,1.6959137916564941,-45.295806884765625,-34.824371337890625,7.353821754455566
1,1944927,-9.563689231872559,-15.094377517700195,-11.892507553100586,26.83183479309082
1,1944928,-1.5620895624160767,43.17619323730469,23.712892532348633,-24.07094955444336
1,1944931,4.580225467681885,-14.648332595825195,8.815871238708496,22.5028018951416
1,1944933,-3.908842086791992,-25.11646270751953,-5.188487529754639,19.736967086791992
1,1944935,-18.735376358032227,27.038957595825195,3.6859993934631348,-9.068552017211914
1,1944937,-2.369061231613159,7.1754469871521,-2.2262179851531982,-10.949640274047852
1,1944939,2.0905191898345947,-14.423971176147461,-27.013620376586914,-29.215923309326172
1,1944941,0.20674997568130493,-0.2472781091928482,14.545061111450195,30.23025131225586
1,1944943,14.544455528259277,8.988869667053223,22.84432601928711,9.156302452087402
1,1944945,1.7836384773254395,18.5040283203125,-20.815385818481445,-36.68851089477539
1,1944947,-10.78771686553955,4.866282939910889,3.568272590637207,22.951078414916992
1,1944949,-5.999815464019775,-43.03275680541992,-3.2252421379089355,-6.961613655090332
1,1944951,-0.0089939646422863,-13.279841423034668,-33.00954818725586,4.586882591247559
1,1944953,17.92031478881836,13.164376258850098,6.741428852081299,35.473045349121094
1,1945048,9.586885452270508,10.666194915771484,35.80414962768555,-23.620479583740234
1,1945048,-7.611392021179199,26.17728614807129,1.2048141956329346,-5.761078357696533
1,1945049,-3.3153727054595947,-11.336041450500488,-23.55390167236328,-10.952123641967773
1,1945049,-5.008684158325195,-13.05904769897461,7.097087383270264,10.48732852935791
1,1945049,-6.846639633178711,3.449826955795288,21.29882049560547,21.01178550720215
1,1945049,-0.8786857724189758,-0.4838390350341797,-15.921792984008789,-19.75786781311035
1,1945049,-2.481581449508667,-14.44005298614502,-21.08270835876465,10.23858642578125
1,1945049,-1.1885360479354858,-6.565922260284424,26.451812744140625,-8.987648010253906
1,1945050,10.821357727050781,24.550373077392578,10.017271041870117,-26.548660278320312
1,1945050,11.295137405395508,3.705497980117798,-21.840576171875,13.080523490905762
1,1945050,-10.878684043884277,-25.37509536743164,1.1376590728759766,18.934009552001953
1,1945050,-28.098039627075195,-3.5804450511932373,9.306177139282227,-6.942701816558838
1,1945050,10.95721435546875,20.93678855895996,-3.3214633464813232,-6.431148052215576
1,1945050,27.809694290161133,3.104585886001587,-17.710628509521484,12.766790390014648
1,1945051,-1.8664847612380981,-7.972265243530273,0.6796847581863403,-9.342684745788574
1,1945051,1.8877986669540405,5.411960601806641,17.419490814208984,-26.24643325805664
1,1945051,-6.029730796813965,4.657782554626465,3.0402724742889404,17.263193130493164
1,1945051,-18.372039794921875,-0.3542563021183014,2.512863874435425,24.57318878173828
1,1945051,3.751511573791504,6.721237659454346,10.556256294250488,-17.404361724853516
1,1945051,15.486721992492676,9.79384708404541,-7.867406845092773,-16.820486068725586
1,1945052,1.324095368385315,-13.16058349609375,-22.161224365234375,-12.97897720336914
1,1945052,-14.073542594909668,-20.963836669921875,0.4467151463031769,13.673251152038574
