Aktueller Finger,timestamp_ms,sensor_0,sensor_1,sensor_2,sensor_3
0,117340,-14.730645179748535,-15.626179695129395,-24.09701919555664,-11.263294219970703
0,117340,-13.326658248901367,-35.723514556884766,-48.33427810668945,-17.64107894897461
0,117341,2.1772260665893555,33.08816909790039,17.26991081237793,23.841754913330078
0,117342,6.7383317947387695,27.46696662902832,29.500843048095703,7.262460708618164
0,117345,12.04736042022705,6.891297817230225,19.506750106811523,1.195724606513977
0,117346,14.076324462890625,-19.90159797668457,-16.16481590270996,7.133831977844238
0,117349,-8.108560562133789,-51.23590850830078,-25.20661735534668,-37.86766815185547
0,117350,-0.9799455404281616,19.641658782958984,14.723601341247559,-2.072092294692993
0,117353,15.702190399169922,34.90195846557617,1.788604974746704,34.1707649230957
0,117354,-3.4008381366729736,1.0478447675704956,5.802677154541016,-7.259275436401367
0,117357,-2.951115608215332,-3.109835624694824,-2.550853729248047,-3.5480875968933105
0,117358,-13.008874893188477,-11.411070823669434,-22.43198585510254,-8.347103118896484
0,117361,-20.53434181213379,-2.478252649307251,8.033803939819336,-23.592580795288086
0,117362,19.673812866210938,0.09429604560136795,6.5228471755981445,-4.353320121765137
0,117365,-6.94513463973999,-5.143946647644043,-6.812150001525879,41.23599624633789
0,117366,-30.513961791992188,-2.0637285709381104,0.8102591037750244,29.94569969177246
0,117369,22.28830337524414,21.884620666503906,12.434897422790527,-29.290884017944336
0,117370,18.65639305114746,25.814571380615234,2.4743096828460693,-36.058902740478516
0,117373,-19.645078659057617,-42.96641159057617,-6.483381748199463,3.2489635944366455
0,117374,2.7314727306365967,-69.1418228149414,-2.679450273513794,54.626670837402344
0,117377,34.02939987182617,35.25783157348633,-1.5698940753936768,20.677692413330078
0,117378,13.120708465576172,85.55876922607422,6.2800421714782715,-72.04518127441406
0,117381,-38.691497802734375,-35.396854400634766,-0.18665486574172974,-19.952184677124023
0,117382,-9.844078063964844,-81.55130004882812,11.453522682189941,71.2887954711914
0,117385,30.288551330566406,58.79887008666992,-6.122799396514893,-12.42946720123291
0,117386,-2.802961826324463,59.612815856933594,-4.892704010009766,-54.13961410522461
0,117389,-3.9956531524658203,-51.918033599853516,12.104110717773438,30.51927375793457
0,117390,-9.454534530639648,-10.641419410705566,-31.886581420898438,11.239075660705566
0,117393,-12.664302825927734,14.302947998046875,-16.390844345092773,-33.440250396728516
0,117394,4.645399570465088,9.536017417907715,28.659496307373047,24.9638729095459
0,117397,5.212569713592529,14.77273941040039,14.403494834899902,18.381263732910156
0,117398,13.965520858764648,-45.586307525634766,-9.53702449798584,-29.821928024291992
0,117653,29.765687942504883,23.011749267578125,34.95005798339844,43.56003189086914
0,117654,33.966102600097656,92.85405731201172,63.85158920288086,56.25343322753906
0,117657,-21.342931747436523,-54.18722152709961,-64.0237045288086,-50.42860794067383
0,117658,-18.05560874938965,-43.416969299316406,-52.39292907714844,-55.50286865234375
0,117661,-8.0313081741333,49.974361419677734,75.36756896972656,26.95311737060547
0,117662,17.913864135742188,-14.09073543548584,-18.168241500854492,22.291030883789062
0,135116,11.786273956298828,-19.99606704711914,-57.82487487792969,4.405335903167725
0,135117,-81.16158294677734,-26.065553665161133,12.465222358703613,28.566558837890625
0,135119,-15.528082847595215,5.102786064147949,49.830570220947266,-71.55025482177734
0,135121,22.65802574157715,19.85142707824707,4.799211025238037,-28.294700622558594
0,135123,-8.088204383850098,-26.984718322753906,-75.53739166259766,65.16981506347656
0,135125,3.4457430839538574,18.494699478149414,-5.298351287841797,-20.657367706298828
0,135127,16.989036560058594,6.706541061401367,16.114131927490234,-8.051496505737305
0,135129,-22.581562042236328,-47.5018196105957,-9.497061729431152,9.546056747436523
0,135131,-33.2034797668457,-16.528799057006836,15.145567893981934,-18.81986427307129
0,135133,63.18904495239258,43.81576919555664,8.431334495544434,15.439193725585938
0,135135,26.66312026977539,19.74611473083496,3.970801591873169,8.758917808532715
0,135137,-37.41456985473633,-10.979081153869629,10.65871810913086,-40.5888671875
0,135139,10.526972770690918,4.183724403381348,-21.76423454284668,-18.79437828063965
0,135141,11.04820728302002,-30.2941837310791,-38.184967041015625,-27.28310775756836
0,135143,-23.819059371948242,-1.5532281398773193,21.135398864746094,15.84655475616455
0,135145,-3.8804237842559814,31.867326736450195,31.305429458618164,64.1740951538086
0,135147,9.005724906921387,-11.376660346984863,-6.611236095428467,6.300796031951904
0,135149,-16.818784713745117,-22.61104393005371,-19.90315055847168,0.9577991962432861
0,135151,5.563084125518799,5.81382942199707,11.41483211517334,-17.34577751159668
0,135153,1.8399765491485596,21.3644962310791,6.202505111694336,-34.71079635620117
0,135155,-12.682799339294434,4.995845317840576,-15.907682418823242,5.690369606018066
0,135157,28.710744857788086,4.861187934875488,35.54357147216797,61.951786041259766
0,135159,16.720884323120117,22.422189712524414,26.02399253845215,-3.2732338905334473
0,135161,-31.64238739013672,-10.615053176879883,-42.496612548828125,-39.0861930847168
0,135163,-9.32315731048584,-21.12399673461914,-25.815650939941406,18.586448669433594
0,135165,31.643733978271484,4.830201625823975,16.72585105895996,-22.0391788482666
0,135167,20.90624237060547,-4.544215202331543,15.980613708496094,32.711307525634766
0,135169,-9.461152076721191,-1.9260309934616089,-10.402252197265625,37.65314865112305
0,135171,-28.466245651245117,16.442543029785156,23.690107345581055,-51.18766784667969
0,135173,-14.336338996887207,-14.475061416625977,11.807601928710938,-8.332362174987793
0,135175,29.70226287841797,-11.747872352600098,-55.993534088134766,14.095189094543457
0,135177,14.205330848693848,4.8713765144348145,-1.25081205368042,-6.54405403137207
0,135179,-18.30036163330078,-5.785548210144043,44.438194274902344,-11.899822235107422
0,135181,-3.886009693145752,29.116233825683594,29.680009841918945,20.480592727661133
0,135183,-12.39286994934082,-13.252643585205078,-28.14954376220703,-7.635735034942627
0,135185,3.5556042194366455,-9.452425956726074,-36.792972564697266,-46.664302825927734
0,135187,13.573965072631836,11.692296028137207,6.063070774078369,25.34178352355957
0,135189,-0.7764384150505066,-31.284454345703125,-5.039245128631592,26.874061584472656
0,135191,23.104806900024414,23.442935943603516,11.062315940856934,-27.276180267333984
0,135193,-19.841493606567383,7.410421371459961,3.8778576850891113,25.429853439331055
0,135195,-42.96198272705078,-28.400726318359375,-24.794260025024414,19.616670608520508
0,135197,39.45064163208008,49.411319732666016,19.446748733520508,-40.422264099121094
0,135199,25.184600830078125,-2.0349647998809814,22.59685516357422,13.5377197265625
0,135201,-11.468857765197754,-40.104454040527344,-15.909348487854004,-3.826598882675171
0,135204,3.0168826580047607,40.64599609375,17.53850555419922,4.071985721588135
0,135205,-19.051748275756836,-6.982082366943359,-0.754342257976532,10.14769172668457
0,135206,-58.18817901611328,-51.804874420166016,-48.80111312866211,-20.89027976989746
0,135208,-6.697440147399902,29.65976333618164,15.343708992004395,24.086322784423828
0,135211,100.87261199951172,34.29038619995117,48.336814880371094,2.419281244277954
0,135212,13.781025886535645,-37.956111907958984,-9.582808494567871,8.450948715209961
0,135215,-72.22076416015625,-22.031869888305664,-31.940858840942383,-42.74607849121094
0,135216,83.8575210571289,61.62440872192383,7.3254570960998535,-11.193164825439453
0,135219,11.877449989318848,9.359281539916992,12.284146308898926,55.737876892089844
0,135220,-139.58743286132812,-76.69496154785156,-18.740314483642578,-45.94801330566406
0,135223,31.519033432006836,9.061466217041016,-22.003934860229492,-11.08004093170166
0,135224,58.92497253417969,12.356904983520508,8.818854331970215,43.791954040527344
0,135227,-26.6125431060791,-15.780843734741211,20.5747013092041,-9.073409080505371
0,135228,-7.766263008117676,47.199344635009766,14.475860595703125,-28.67661476135254
0,135231,-7.5939249992370605,17.4967041015625,-3.0017573833465576,27.181142807006836
0,135232,1.3211374282836914,-25.149961471557617,-19.776708602905273,12.115750312805176
0,135235,18.16719627380371,1.586787223815918,20.555767059326172,-32.63185501098633
0,135236,-20.261558532714844,-7.551838397979736,-7.911681652069092,4.026454925537109
0,135239,-7.378253936767578,-8.718968391418457,-2.378112554550171,16.342618942260742
0,135240,32.513328552246094,2.2806074619293213,23.486068725585938,-7.115090370178223
0,135243,9.32792854309082,-4.713318824768066,-44.10511016845703,-10.126054763793945
0,135244,-16.91706085205078,-4.388547420501709,-6.389601230621338,35.07087326049805
0,135247,-10.52502727508545,5.709936141967773,40.65690612792969,11.765535354614258
0,135248,23.646194458007812,14.192645072937012,-17.112773895263672,-34.79036331176758
0,135251,-8.36975383758545,-11.465948104858398,-10.340293884277344,17.03594970703125
0,135252,-7.4796552658081055,8.35566520690918,20.292522430419922,1.4692268371582031
0,135255,10.656472206115723,12.687041282653809,-17.867279052734375,-46.76807403564453
0,135256,-36.09294128417969,-39.46709442138672,-11.444883346557617,-3.078195571899414
0,135259,6.163116455078125,-4.3090901374816895,29.87742042541504,48.201045989990234
0,135260,45.46217346191406,41.35849380493164,-0.14718815684318542,13.742316246032715
0,135263,-27.53785514831543,7.083508014678955,-20.732019424438477,-31.030935287475586
0,135264,-12.55694580078125,-17.13069725036621,11.310576438903809,-19.723472595214844
0,135267,52.805259704589844,-4.635457992553711,22.755815505981445,17.230165481567383
0,135268,6.267215251922607,9.657371520996094,12.351556777954102,35.71630859375
0,135271,-61.50489807128906,-37.28924560546875,-56.79047775268555,-54.34598922729492
0,135272,-15.731884956359863,-13.085963249206543,-21.173154830932617,-22.94662857055664
0,135275,26.180879592895508,78.18244171142578,75.25715637207031,36.547874450683594
0,135276,12.155834197998047,-3.9402318000793457,-1.9607102870941162,16.822261810302734
0,135279,11.773174285888672,-58.17757797241211,-42.19362258911133,51.275428771972656
0,135280,-15.0355806350708,43.74149703979492,18.128774642944336,-61.59870529174805
0,135283,-6.451842308044434,33.30829620361328,20.537031173706055,-53.64739227294922
0,135284,6.714959621429443,-37.79640579223633,-4.457676410675049,108.91021728515625
0,135287,24.53942108154297,-9.447197914123535,-14.573841094970703,0.31496018171310425
0,135288,14.040423393249512,1.8460339307785034,-19.694442749023438,-86.31138610839844
0,135291,-49.71159744262695,-27.92456817626953,5.559154987335205,0.4326646625995636
0,135292,-28.91280746459961,11.731757164001465,30.84148597717285,30.106698989868164
0,135295,38.14960479736328,32.611385345458984,1.5838934183120728,22.539352416992188
0,135296,17.725963592529297,-40.07419967651367,-30.94605255126953,34.35259246826172
0,135299,-8.164685249328613,-23.408775329589844,-10.157188415527344,-11.092448234558105
0,135300,-8.230612754821777,42.6918830871582,12.744545936584473,-59.48512649536133
0,135303,-32.1099739074707,4.878448009490967,-12.464858055114746,4.676443576812744
0,135304,12.02913761138916,-12.782108306884766,1.883736491203308,1.8092836141586304
0,135307,39.427730560302734,-4.705382347106934,32.52227020263672,14.398226737976074
0,135308,8.252693176269531,-0.6580114364624023,-16.27814483642578,17.18183708190918
0,135311,-4.000302791595459,28.394062042236328,-21.733491897583008,-44.498573303222656
0,135312,-13.556496620178223,-1.7033066749572754,41.35380172729492,23.217824935913086
0,135315,-14.502429962158203,-39.054744720458984,-4.8293890953063965,23.512636184692383
0,135317,-2.9128458499908447,-1.3414174318313599,-47.19108200073242,-35.86899948120117
0,135319,-0.7044309377670288,47.01502227783203,17.84329605102539,-9.348615646362305
0,135321,14.454582214355469,0.8172439932823181,35.39580154418945,10.935172080993652
0,135323,8.030838966369629,-47.087276458740234,-3.6361186504364014,0.4189227223396301
0,135325,-26.475324630737305,1.8811911344528198,-28.85300636291504,4.844945430755615
0,135327,1.9496722221374512,35.684814453125,10.260588645935059,15.202213287353516
0,135329,13.22005844116211,-11.661788940429688,-1.5188281536102295,-36.62933349609375
0,135331,0.8159525990486145,-14.79638957977295,-29.971799850463867,0.3287215530872345
0,135333,24.94073486328125,23.608163833618164,34.19697189331055,68.95480346679688
0,135335,-33.11000442504883,-10.22622299194336,22.196218490600586,-41.23323059082031
0,135337,-19.069026947021484,-23.431922912597656,-29.08034896850586,-36.86228561401367
0,135339,36.44129943847656,22.45780372619629,4.20927095413208,73.17630767822266
0,135341,-23.63141441345215,39.41803741455078,29.8582706451416,-4.352987289428711
0,135343,-4.833770751953125,-22.462730407714844,-26.544265747070312,-33.85508728027344
0,135345,9.149211883544922,-55.60884094238281,-28.19086456298828,-0.057766079902648926
0,135347,-15.779693603515625,19.66204261779785,27.242965698242188,-7.679218769073486
0,135349,19.175994873046875,57.60393142700195,-8.646828651428223,27.043790817260742
0,135351,22.248022079467773,0.6513764262199402,-12.028620719909668,-9.681326866149902
0,135353,-27.562902450561523,-33.73940658569336,-9.181903839111328,-16.764738082885742
0,135355,-9.140904426574707,-11.727680206298828,18.042654037475586,19.635467529296875
0,135357,18.900720596313477,-0.7675090432167053,30.882965087890625,-23.1580867767334
0,135359,-27.16958236694336,-5.910889625549316,-55.19407272338867,-18.63102912902832
0,135361,17.11795425415039,5.167373180389404,15.741548538208008,33.612464904785156
0,135363,19.495471954345703,9.430296897888184,48.55967330932617,-5.868991374969482
0,135365,-12.460297584533691,-28.725582122802734,-41.700138092041016,7.640805244445801
0,135367,36.68663024902344,12.203290939331055,-13.678131103515625,24.983240127563477
0,135369,-8.333671569824219,50.49183654785156,32.87255096435547,-31.764780044555664
0,135371,-48.31665802001953,-23.835763931274414,7.036325931549072,-16.748687744140625
0,135373,6.46852445602417,-45.78496170043945,-10.595184326171875,16.78690528869629
0,135375,44.5146484375,23.05864906311035,-4.913614273071289,37.57493209838867
0,135377,-9.034143447875977,28.15978240966797,5.352437973022461,-16.749650955200195
0,135379,-23.093400955200195,-27.852447509765625,-8.270153999328613,-33.39799880981445
0,135381,14.09836196899414,5.242339611053467,-18.377614974975586,26.14097785949707
0,135383,-17.90835189819336,2.864790201187134,34.266117095947266,12.489956855773926
0,135385,-25.373435974121094,-4.255766868591309,-5.264963150024414,-41.16127395629883
0,135387,15.963713645935059,27.514493942260742,-13.09611988067627,-9.542925834655762
0,135389,50.171226501464844,1.8199681043624878,39.91068649291992,42.87247085571289
0,135391,-2.3803188800811768,-43.775814056396484,-17.290029525756836,-19.048208236694336
0,135393,-58.3875846862793,7.317094326019287,-19.898073196411133,-29.160736083984375
0,135395,1.2702250480651855,71.4999771118164,14.725813865661621,30.024484634399414
0,135397,37.75320053100586,-21.839719772338867,4.6037516593933105,12.381549835205078
0,135399,-4.010222911834717,-62.368751525878906,-28.588932037353516,-12.831847190856934
0,135401,-6.728927135467529,7.197133541107178,-4.310378551483154,13.401904106140137
0,135403,25.541650772094727,42.2681884765625,43.2231559753418,-4.8156352043151855
0,135405,-13.291454315185547,13.954147338867188,-7.662600517272949,-21.309293746948242
0,135407,-36.49644470214844,-68.0158920288086,-39.5443000793457,29.52791404724121
0,135409,20.516918182373047,-39.67997360229492,-7.371609687805176,-13.092738151550293
0,135411,23.705577850341797,80.0118408203125,35.052337646484375,-5.915486812591553
0,135413,-47.74977111816406,22.77705955505371,37.21037292480469,10.87489128112793
0,135415,-22.54505729675293,-55.26256561279297,-33.53750991821289,-63.54787063598633
0,135417,44.1607780456543,12.72249698638916,-38.28934097290039,35.95118713378906
0,135419,15.757842063903809,27.36400604248047,18.59063148498535,86.61254119873047
0,135421,-7.0339436531066895,-9.920632362365723,-9.878114700317383,-41.82377624511719
0,135423,-13.754656791687012,1.1807143688201904,-0.10435301810503006,-50.15389633178711
0,135425,5.9498515129089355,-15.66231918334961,18.593708038330078,38.84357452392578
0,135427,18.673688888549805,-11.96667194366455,-9.503456115722656,2.0891664028167725
0,135429,-19.649921417236328,36.46936798095703,13.044890403747559,-46.51617431640625
0,135431,-19.93572425842285,-10.496416091918945,-15.934388160705566,6.714377403259277
0,135433,21.738067626953125,-1.238037347793579,4.7441511154174805,52.51931381225586
0,135435,18.590219497680664,-2.112668037414551,25.928789138793945,-8.424830436706543
0,135438,4.202298164367676,-24.095081329345703,-36.616363525390625,-56.194828033447266
0,135440,-1.6198718547821045,19.85587501525879,-23.34595489501953,58.779327392578125
0,135441,-8.522736549377441,6.557456016540527,36.131927490234375,23.061168670654297
0,135443,-10.259716033935547,10.854896545410156,21.64327049255371,-90.90129089355469
0,135445,-12.424361228942871,-27.18600082397461,-21.298688888549805,11.828238487243652
0,135447,2.9943857192993164,2.929205894470215,21.755664825439453,73.84584045410156
0,135449,2.433241605758667,24.110074996948242,4.44790506362915,-9.354331016540527
0,135451,3.9954347610473633,-21.456939697265625,-26.094640731811523,-52.07524871826172
0,135453,74.25395965576172,52.18756103515625,47.592952728271484,17.062297821044922
0,135455,19.602903366088867,-13.530439376831055,9.461141586303711,57.267276763916016
0,135457,-142.13771057128906,-80.30657958984375,-55.56410217285156,-4.378375053405762
0,135459,-13.97954273223877,28.265249252319336,-10.892313957214355,-60.39898681640625
0,135461,89.66777801513672,55.762508392333984,-2.3040480613708496,-47.5078239440918
0,135463,-27.08161735534668,-15.528894424438477,-11.882465362548828,25.065662384033203
0,135465,-20.96025276184082,-69.73312377929688,-6.1960248947143555,28.222089767456055
0,135467,16.705596923828125,10.758556365966797,19.221776962280273,-3.9434306621551514
0,135469,-15.28699779510498,48.045833587646484,29.636436462402344,31.83949089050293
0,135471,5.788585186004639,-2.0496268272399902,20.529191970825195,21.587905883789062
0,135473,11.07517147064209,-19.917667388916016,-30.45771598815918,-48.25608825683594
0,135475,-8.835991859436035,-19.487316131591797,-59.563514709472656,-45.41244888305664
0,135477,10.836043357849121,32.062232971191406,45.40229415893555,26.00621223449707
0,135479,15.617901802062988,22.66276741027832,56.414215087890625,24.55923080444336
0,135481,-2.607309341430664,-2.756326198577881,-11.014589309692383,9.204693794250488
0,135483,15.923957824707031,-7.349481582641602,-17.373790740966797,6.118708610534668
0,135485,11.98288631439209,-3.507775068283081,-12.581707954406738,-9.171785354614258
0,135487,-56.07565689086914,-5.790608882904053,-0.9944343566894531,-2.220391035079956
0,135489,-17.932004928588867,-32.927772521972656,-10.34560775756836,1.9416847229003906
0,135491,26.52442741394043,16.34406852722168,-18.669193267822266,12.605321884155273
0,135493,4.638132572174072,42.85478973388672,-8.496197700500488,-6.326633453369141
0,135495,-1.1520828008651733,-13.473222732543945,22.99822998046875,-4.761597156524658
0,135497,2.3219034671783447,-18.864261627197266,26.008460998535156,16.936100006103516
0,135499,33.08058166503906,18.200511932373047,-3.6034066677093506,-24.621349334716797
0,135501,9.789654731750488,-14.629983901977539,-18.51279640197754,-18.162158966064453
0,135503,-35.355838775634766,-8.89974308013916,-15.965091705322266,35.41638946533203
0,135505,-16.486574172973633,13.212586402893066,16.805299758911133,-8.7196044921875
0,135507,-2.137403726577759,-26.801715850830078,7.5788893699646,-39.50352478027344
0,135509,6.8936052322387695,30.594343185424805,14.616250038146973,7.282528400421143
0,135511,19.307092666625977,45.09360122680664,11.49126148223877,28.233600616455078
0,135513,-11.019554138183594,-57.76231002807617,-42.22795486450195,19.493154525756836
0,135515,-15.535859107971191,-51.16385269165039,-3.5780751705169678,-27.346973419189453
0,135517,13.833313941955566,34.06596374511719,15.921178817749023,-7.88682222366333
0,135519,2.0606415271759033,68.26575469970703,2.212597608566284,16.766193389892578
0,135521,8.92965030670166,4.051290512084961,36.952449798583984,-14.432846069335938
0,135523,11.417304039001465,-86.57490539550781,7.218859672546387,-4.028445720672607
0,135525,-16.970550537109375,-5.0460004806518555,-37.6664924621582,15.893531799316406
0,135527,-4.1683526039123535,61.64185333251953,-29.534984588623047,22.138526916503906
0,135529,-5.2151384353637695,-22.010547637939453,10.865022659301758,-18.370481491088867
0,135531,-0.49275708198547363,-6.53434419631958,15.999807357788086,-1.4025938510894775
0,135533,26.418235778808594,24.039596557617188,-24.808866500854492,1.6380728483200073
0,135535,-26.706838607788086,-54.594573974609375,-17.40605926513672,-34.61159133911133
0,135537,-28.340312957763672,-11.614873886108398,27.066917419433594,7.085406303405762
0,135539,42.793575286865234,83.38365173339844,35.02260971069336,26.3841495513916
0,135541,-35.2820930480957,-23.569507598876953,-26.35725975036621,12.67717456817627
0,135543,-23.33218765258789,-46.782386779785156,-23.333772659301758,9.348682403564453
0,135545,68.59209442138672,53.45759201049805,45.6782112121582,-30.797279357910156
0,135547,-0.2686152756214142,-17.57965850830078,1.2790446281433105,1.3301109075546265
0,135549,-9.14034652709961,-51.74518585205078,-46.97496795654297,33.80411148071289
0,135551,19.64361572265625,60.92522430419922,31.18025779724121,-73.53621673583984
0,135553,-0.6102914214134216,37.52783203125,36.046966552734375,-27.869943618774414
0,135555,-4.095301151275635,-34.22773742675781,-41.806373596191406,110.06455993652344
0,135557,-14.08468246459961,-26.754056930541992,-17.218219757080078,43.218544006347656
0,135559,-37.7645263671875,-9.254379272460938,22.659683227539062,-83.30978393554688
0,135561,12.116606712341309,52.782470703125,3.2864489555358887,-91.41350555419922
0,135563,47.0908317565918,12.913257598876953,19.177608489990234,29.486818313598633
0,135565,7.168740749359131,-57.3738899230957,6.493711948394775,102.99925231933594
0,135567,0.713589608669281,28.372982025146484,-57.68103790283203,14.041172981262207
0,135569,-43.44416809082031,34.98701095581055,-25.533756256103516,-13.622550964355469
0,135571,-28.334714889526367,-69.76331329345703,30.86569595336914,-6.856716632843018
0,135573,5.73957633972168,-28.118898391723633,27.54966163635254,-26.977209091186523
0,135577,1.2221808433532715,30.273447036743164,6.569941997528076,-7.237929821014404
0,135577,34.176578521728516,13.388712882995605,-18.20084571838379,-11.508551597595215
0,135579,5.501547336578369,12.68593692779541,-4.142596244812012,83.79730987548828
0,135581,-28.3691463470459,-6.689507484436035,0.8002293705940247,27.62803840637207
0,135583,-13.426015853881836,-5.260308265686035,3.8101837635040283,-262.10687255859375
0,135585,24.986957550048828,-5.500861644744873,-7.219551086425781,-3.596381187438965
0,135587,15.421712875366211,-10.516550064086914,-15.872444152832031,349.0306091308594
0,135589,-11.769702911376953,20.100723266601562,33.4566650390625,31.089990615844727
0,135591,16.901079177856445,21.10931396484375,0.4788418412208557,-322.1481018066406
0,135593,6.3027544021606445,21.54705810546875,-11.182421684265137,-191.9215850830078
0,135595,-33.09646987915039,-26.567350387573242,14.365985870361328,211.3896942138672
0,135597,-11.611043930053711,-28.489099502563477,4.251608848571777,121.06166076660156
0,135599,28.226924896240234,46.289588928222656,7.318087100982666,-47.61774444580078
0,135601,13.017534255981445,-8.920099258422852,-34.41450119018555,109.94712829589844
0,135603,-41.03147888183594,-48.7745246887207,-1.0811132192611694,-34.03510284423828
0,135605,-37.261173248291016,-5.36277437210083,15.104580879211426,-108.45310974121094
0,135607,67.7662353515625,38.539310455322266,8.995857238769531,35.24819564819336
0,135609,38.81608963012695,23.308372497558594,21.328636169433594,55.03115463256836
0,135611,-70.22968292236328,-41.61959457397461,-52.63029861450195,32.83763122558594
0,135613,9.869096755981445,-37.000614166259766,-21.846446990966797,10.154590606689453
0,135615,31.8095760345459,7.150323867797852,29.46067237854004,-107.12760162353516
0,135617,-23.57402229309082,37.66471862792969,7.30718469619751,-92.19434356689453
0,135619,3.922333240509033,33.210472106933594,12.238901138305664,59.52836227416992
0,135621,-11.84151840209961,-13.926015853881836,1.9876813888549805,-6.362514019012451
0,135623,15.389984130859375,-36.678688049316406,-11.87562370300293,29.11440658569336
0,135625,27.69141387939453,8.174107551574707,-1.2223362922668457,222.3441162109375
0,135627,-20.322664260864258,24.97237205505371,-8.674898147583008,102.25983428955078
0,135629,15.247010231018066,-3.4510438442230225,-17.870100021362305,-153.42471313476562
0,135631,-18.545759201049805,-11.42647933959961,42.38850021362305,-245.9865264892578
0,135633,-63.257057189941406,-20.284957885742188,13.549437522888184,-268.31195068359375
0,135635,8.98839282989502,-2.397327184677124,-91.46640014648438,233.5567169189453
0,135637,67.23778533935547,37.95729446411133,28.764930725097656,367.2561340332031
0,135639,19.0347900390625,9.788270950317383,99.84656524658203,-187.03466796875
0,135641,-38.88161087036133,-14.051427841186523,-20.317852020263672,47.164608001708984
0,135643,-16.756296157836914,-1.6786288022994995,-53.73969650268555,-103.04296875
0,135645,24.273162841796875,-1.801837682723999,-10.386584281921387,-409.26666259765625
0,135647,4.1513776779174805,0.48162686824798584,25.976016998291016,170.47776794433594
0,135649,-49.62192153930664,-0.4319843649864197,14.563197135925293,385.55902099609375
0,135651,-8.190665245056152,-1.6191414594650269,-0.8753147721290588,232.3961181640625
0,135653,26.13921546936035,-34.5621452331543,-27.202560424804688,143.80178833007812
0,135655,30.07758903503418,16.859952926635742,-30.858610153198242,-166.69068908691406
0,135657,35.19868850708008,17.682525634765625,37.73973083496094,-528.5567626953125
0,135659,-37.196563720703125,-52.75822830200195,6.355133533477783,-270.1499328613281
0,135661,-24.94352149963379,25.920299530029297,-17.61012840270996,382.8253173828125
0,135663,35.115455627441406,39.981056213378906,26.125404357910156,270.5447692871094
0,135665,3.180523157119751,-24.36075782775879,-15.614300727844238,-243.65264892578125
0,135667,-15.699261665344238,-19.939167022705078,-20.120567321777344,-245.41526794433594
0,135669,-22.3316650390625,14.383222579956055,3.8647584915161133,-92.92024230957031
0,135671,18.4190673828125,48.758792877197266,40.429473876953125,227.0640869140625
0,135673,35.55044174194336,19.09703254699707,26.514507293701172,310.954833984375
0,135675,-44.54324722290039,-48.96512222290039,-66.40082550048828,212.82662963867188
0,135677,-27.168373107910156,-45.283634185791016,-40.022865295410156,-84.4393310546875
0,135679,10.21245002746582,-16.012083053588867,21.557783126831055,-558.689697265625
0,135681,17.354814529418945,2.9933693408966064,1.9894288778305054,-22.207378387451172
0,135683,30.160158157348633,60.77703094482422,17.388031005859375,443.19329833984375
0,135685,-18.277362823486328,45.52598571777344,59.36345672607422,34.75918960571289
0,135687,-8.885652542114258,-25.436279296875,0.7667280435562134,-167.13136291503906
0,135689,9.364412307739258,2.8788981437683105,-32.076393127441406,-93.14237976074219
0,135691,2.902949333190918,3.9066083431243896,9.938102722167969,161.6370391845703
0,135693,17.446191787719727,-22.371902465820312,-7.672688007354736,150.7608642578125
0,135695,-32.99441146850586,-17.435081481933594,-11.322907447814941,-353.6060791015625
0,135697,-37.010807037353516,-6.316378593444824,-5.649905204772949,-111.60881042480469
0,135699,45.4991340637207,19.91006851196289,15.960099220275879,579.3271484375
0,135701,-17.210678100585938,-21.360002517700195,9.712647438049316,20.279123306274414
0,135704,-35.180110931396484,-35.909629821777344,-56.84579849243164,-847.7590942382812
0,135705,73.4730453491211,60.60837173461914,19.128551483154297,-334.63348388671875
0,135706,13.049288749694824,39.18955993652344,60.93940353393555,545.4723510742188
0,135709,-35.24177932739258,-52.262847900390625,-37.901954650878906,894.291748046875
0,135710,-6.80078649520874,-26.499847412109375,-47.19680404663086,180.44528198242188
0,135713,-3.4726312160491943,-17.862316131591797,-8.000423431396484,-620.4453125
0,135714,-6.379826545715332,-8.952589988708496,-5.317844867706299,-273.6478576660156
0,135717,-0.5197621583938599,37.800106048583984,42.6129150390625,-295.388916015625
0,135718,37.73412322998047,47.96499252319336,76.0217056274414,8.42072868347168
0,135721,2.213205099105835,-17.943849563598633,-33.147945404052734,682.9542846679688
0,135722,-53.503475189208984,-44.82225036621094,-70.67115783691406,186.8170623779297
0,135727,11.59709644317627,39.42791748046875,44.58811950683594,-411.81915283203125
0,135727,32.65321350097656,29.672035217285156,35.20175552368164,-362.8079833984375
0,135728,-11.862837791442871,-19.23016357421875,-29.311769485473633,13.287500381469727
0,135731,8.791153907775879,-13.031403541564941,-6.601467132568359,252.62722778320312
0,135732,16.78662872314453,-13.288799285888672,10.77284049987793,-26.863866806030273
0,135735,-16.007925033569336,9.905906677246094,-3.9694719314575195,-242.5972900390625
0,135736,-38.652076721191406,-0.7383145093917847,-35.38336181640625,113.5700454711914
0,135739,8.302154541015625,-16.775135040283203,1.548649787902832,402.49652099609375
0,135740,-12.620494842529297,-22.61052894592285,-1.383791208267212,-6.80263090133667
0,135743,9.381258010864258,24.88973045349121,-3.499528646469116,-263.0917663574219
0,135744,38.50965881347656,4.445310592651367,22.828046798706055,94.79533386230469
0,135747,-37.394439697265625,-22.84951400756836,-36.49342346191406,84.35196685791016
0,135748,11.307854652404785,38.05990982055664,25.483789443969727,-25.477840423583984
0,135751,27.84156608581543,8.355445861816406,65.738525390625,-79.41799926757812
0,135752,-4.321239471435547,33.128231048583984,-31.435531616210938,-169.81231689453125
0,135755,-18.526241302490234,-51.43378448486328,-43.42966842651367,-176.91685485839844
0,135756,-26.741241455078125,-65.83908081054688,14.837087631225586,-116.85468292236328
0,135759,61.7437629699707,119.19133758544922,40.41965103149414,525.6902465820312
0,135760,64.2147216796875,42.379764556884766,5.492807388305664,720.1400146484375
0,135763,-55.900909423828125,-92.92428588867188,-23.825237274169922,-375.39324951171875
0,135764,-77.3478775024414,-51.64067077636719,-25.621334075927734,-1140.9437255859375
0,135767,-25.603988647460938,-14.488729476928711,-32.59852600097656,-14.050082206726074
0,135768,27.009140014648438,8.906600952148438,14.412179946899414,1133.27392578125
0,135771,24.30198097229004,13.026932716369629,21.33984375,-58.70902633666992
0,135772,-7.645780563354492,19.809415817260742,8.94140625,-631.6181640625
0,135775,57.288597106933594,87.6514892578125,23.66080093383789,328.7177734375
0,135776,37.05250549316406,15.64064884185791,-7.93910551071167,121.75199890136719
0,135779,-59.47740173339844,-70.91751861572266,-20.004650115966797,-235.96267700195312
0,135780,-9.199463844299316,-1.1237378120422363,6.80293607711792,132.74598693847656
0,135783,-10.126493453979492,25.878929138183594,12.648924827575684,197.30760192871094
0,135784,-51.52216339111328,0.39720913767814636,-25.194042205810547,-373.5627746582031
0,135787,24.11310577392578,-25.209596633911133,-1.6164894104003906,-196.06759643554688
0,135788,44.48268127441406,-10.123048782348633,39.777713775634766,413.8836975097656
0,135791,-8.746590614318848,21.45716094970703,-1.00951087474823,10.137306213378906
0,135792,-14.44871711730957,-7.780803680419922,-15.012934684753418,-188.23516845703125
0,135795,14.18008041381836,-34.32700729370117,-4.7936835289001465,-57.898616790771484
0,135796,-26.067005157470703,-30.171566009521484,-42.366600036621094,85.78917694091797
0,135799,1.9731864929199219,26.197248458862305,16.218767166137695,260.1562194824219
0,135800,29.63079071044922,42.705039978027344,38.6815299987793,-164.40760803222656
0,135803,-19.60035514831543,-10.304055213928223,-22.862478256225586,-87.55699157714844
0,135804,56.301509857177734,-9.132542610168457,5.221185684204102,307.2911376953125
0,135807,17.624948501586914,-22.538808822631836,-14.932469367980957,-216.23419189453125
0,135808,-82.76849365234375,8.76285171508789,-1.8432329893112183,-426.9793395996094
0,135811,4.884500980377197,78.9837646484375,43.84499740600586,164.59889221191406
0,135812,27.06122398376465,-37.03942108154297,-52.650856018066406,151.724609375
0,135815,-49.09342956542969,-112.49057006835938,-135.5364990234375,-148.73342895507812
0,135816,-16.849294662475586,25.62436294555664,37.78936767578125,-84.9905014038086
0,135819,48.35444259643555,76.17404174804688,190.77195739746094,490.9654846191406
0,135820,-1.4440715312957764,-23.028331756591797,27.72617530822754,449.1293640136719
0,135823,3.794661045074463,-15.799241065979004,-50.819095611572266,-723.72314453125
0,135824,60.250038146972656,72.1327133178711,30.10055923461914,-102.93456268310547
0,135827,-45.7744140625,-17.439863204956055,-49.616661071777344,113.40166473388672
0,135828,-68.28068542480469,-75.28795623779297,-55.52558517456055,-461.3811950683594
0,135831,36.081626892089844,17.2890625,65.91808319091797,547.5636596679688
0,135832,19.025205612182617,26.123497009277344,9.685629844665527,265.3570556640625
0,135835,-6.543990612030029,13.920814514160156,-32.2376823425293,-275.95172119140625
0,135836,11.575124740600586,-13.070570945739746,3.608341932296753,90.83731079101562
0,135839,2.5682764053344727,-8.921512603759766,-13.120868682861328,-225.24929809570312
0,135840,-14.07870864868164,5.073023796081543,-11.954451560974121,-341.413330078125
0,135843,1.3076729774475098,-12.302823066711426,-39.01308822631836,457.9953308105469
0,135844,32.170753479003906,51.072349548339844,-47.5364875793457,681.1068725585938
0,135847,-23.86116600036621,-9.443451881408691,74.23316192626953,-373.299072265625
0,135848,-26.607858657836914,-56.39301681518555,83.35498809814453,-612.433349609375
0,135851,49.204750061035156,43.411964416503906,-58.52785873413086,332.50714111328125
0,135852,1.7509838342666626,15.501607894897461,-65.68618774414062,151.97625732421875
0,135855,37.737220764160156,17.723278045654297,51.61249923706055,-355.1592102050781
0,135856,39.5340690612793,39.71440887451172,70.3714828491211,58.73814392089844
0,135859,-135.67977905273438,-71.7954330444336,-42.98837661743164,144.8549346923828
0,135860,-40.603431701660156,-40.541290283203125,-28.754562377929688,107.0989761352539
0,135863,76.19426727294922,6.2123894691467285,-3.3152596950531006,116.18850708007812
0,135864,-33.52747344970703,-51.49988555908203,-46.57419204711914,-489.1757507324219
0,135867,9.165566444396973,27.4100284576416,38.16351318359375,-642.1317749023438
0,135868,61.99143600463867,79.33885955810547,75.51554107666016,671.3920288085938
0,135871,-19.273120880126953,23.563556671142578,12.8169584274292,1055.8828125
0,135872,-15.404078483581543,-3.1706643104553223,-25.12499237060547,-478.1045837402344
0,135875,-49.04444122314453,-121.91995239257812,-109.61099243164062,-898.2127685546875
0,135876,-68.01437377929688,-134.53067016601562,-69.90487670898438,-71.89676666259766
0,135879,70.04485321044922,126.04991149902344,98.79288482666016,509.4333801269531
0,135880,48.75181198120117,188.081787109375,69.25226593017578,303.756591796875
0,135883,-19.40247917175293,-7.89141321182251,-11.883527755737305,7.4428863525390625
0,135884,54.483558654785156,-64.71442413330078,-0.8620051741600037,268.487548828125
0,135887,37.59918975830078,-13.814165115356445,-13.542555809020996,-130.6328887939453
0,135890,-81.67576599121094,-69.0205307006836,-31.633399963378906,-584.1944580078125
0,135891,-69.42605590820312,-46.81786346435547,0.9376344680786133,-111.35147094726562
0,135893,48.20110321044922,46.98992156982422,30.07482147216797,485.84197998046875
0,135895,21.33372688293457,40.4932975769043,7.429772853851318,-44.894012451171875
0,135897,23.90866470336914,105.83782958984375,30.2672176361084,-370.6946716308594
0,135899,77.71957397460938,41.37450408935547,37.14704895019531,164.10133361816406
0,135901,-61.1719856262207,-123.9337158203125,-50.1367301940918,270.68682861328125
0,135903,-129.03253173828125,-93.53363037109375,-63.56634521484375,126.54931640625
0,135905,18.351869583129883,10.277867317199707,2.1112821102142334,-264.6546936035156
0,135907,78.01876831054688,71.6053466796875,39.67166519165039,-240.2119598388672
0,135909,14.634798049926758,-13.116141319274902,-1.7433171272277832,155.51876831054688
0,135911,-13.595051765441895,-45.07760238647461,-23.534637451171875,72.53301239013672
0,135913,11.6406888961792,71.51226806640625,47.53956985473633,306.4023132324219
0,135915,26.38703727722168,68.53326416015625,42.99030685424805,270.1947021484375
0,135917,-36.14772415161133,-72.45680236816406,-73.62173461914062,-896.9893798828125
0,135919,-51.7491340637207,-104.28726196289062,-84.89840698242188,-569.8140869140625
0,135921,34.924137115478516,27.44036865234375,55.47687911987305,741.8299560546875
0,135923,73.54065704345703,69.68685150146484,37.962337493896484,262.89007568359375
0,135925,-37.07563400268555,7.0037522315979,-21.491384506225586,-216.80062866210938
0,135927,-75.71112060546875,6.280052185058594,49.28935623168945,36.26726150512695
0,135929,24.046140670776367,-24.04591941833496,-28.543537139892578,246.2940216064453
0,135931,10.72997760772705,-53.72579574584961,-49.935733795166016,107.80413818359375
0,135933,-14.901324272155762,46.23255157470703,12.643569946289062,-490.63885498046875
0,135935,2.0353541374206543,-1.6030986309051514,-14.203158378601074,-11.868271827697754
0,135937,19.532752990722656,-16.975509643554688,70.49365997314453,503.74896240234375
0,135939,22.5705623626709,74.00602722167969,63.38779830932617,-126.20608520507812
0,135941,-6.923363208770752,-9.456002235412598,-44.84422302246094,-273.53765869140625
0,135943,-7.351534366607666,-51.3615608215332,-53.31005859375,-15.581793785095215
0,135945,-7.42689847946167,20.622783660888672,-24.829565048217773,63.69253921508789
0,135947,-9.951520919799805,13.697637557983398,16.417402267456055,51.9581184387207
0,135949,13.2230224609375,-26.282503128051758,47.4914436340332,-61.24116897583008
0,135951,16.911060333251953,20.140954971313477,-4.380175590515137,-137.9675750732422
0,135953,12.128486633300781,27.646013259887695,-48.26237869262695,-92.96578979492188
0,135955,6.4036149978637695,-4.086908340454102,50.00286102294922,214.8484344482422
0,135957,-33.192298889160156,-31.8609561920166,26.702953338623047,302.5692138671875
0,135959,-41.23676681518555,-48.510494232177734,-73.04838562011719,18.115163803100586
0,135961,13.156488418579102,10.061674118041992,-14.556527137756348,-117.87521362304688
0,135963,41.37786865234375,44.6277961730957,23.00702667236328,-184.69554138183594
0,135965,-21.15144920349121,-16.283592224121094,-16.51559066772461,-121.87813568115234
0,135967,-26.028759002685547,-16.721542358398438,-16.835723876953125,153.2510986328125
0,135969,50.34364700317383,11.996567726135254,49.74866485595703,105.2521743774414
0,135971,5.825331687927246,4.057725429534912,58.485164642333984,-73.09184265136719
0,135973,-38.32110595703125,10.885917663574219,-24.105098724365234,9.593731880187988
0,135975,16.833251953125,-17.647680282592773,-57.7199592590332,54.46588134765625
0,135977,14.22989273071289,-2.4550459384918213,9.389074325561523,-32.21157455444336
0,135979,-3.420767307281494,68.6357192993164,32.21299362182617,33.07740020751953
0,135981,-24.911197662353516,-7.241108417510986,-29.153427124023438,-104.53019714355469
0,135983,-27.462434768676758,-83.49496459960938,-8.112692832946777,-267.3706359863281
0,135985,14.701223373413086,-38.49494934082031,-2.827486991882324,161.01553344726562
0,135987,31.452903747558594,5.9211931228637695,-18.42562484741211,279.1556396484375
0,135989,21.954166412353516,57.30506896972656,41.43959045410156,-52.86500930786133
0,135991,-15.588423728942871,38.0886344909668,6.4139485359191895,-86.55791473388672
0,135993,-23.017576217651367,13.056487083435059,-21.38974380493164,10.079657554626465
0,135995,3.13043212890625,-4.201244831085205,-2.107609748840332,-41.30001449584961
0,135997,41.87962341308594,-25.063310623168945,-7.060555934906006,-17.394258499145508
0,135999,12.087074279785156,-8.671172142028809,31.1143856048584,70.20000457763672
0,136001,-57.20419692993164,-18.550334930419922,13.36839485168457,-17.412738800048828
0,136003,-15.65804386138916,3.231678009033203,-30.882610321044922,-41.92070770263672
0,136005,26.394872665405273,31.145221710205078,3.80983829498291,35.843719482421875
0,136007,9.0337495803833,9.068428993225098,4.158571243286133,28.399660110473633
0,136009,-11.842720031738281,-29.505754470825195,-18.250619888305664,-12.023415565490723
0,136011,-11.222479820251465,-77.19815063476562,19.821136474609375,-11.61573600769043
0,136013,6.052647590637207,37.40605163574219,4.749087810516357,-24.549760818481445
0,136015,18.525325775146484,102.18631744384766,-29.752328872680664,23.124267578125
0,136017,-8.636870384216309,-40.678897857666016,5.041712760925293,-16.42708396911621
0,136019,-10.780001640319824,-25.683589935302734,19.343158721923828,-47.910186767578125
0,136021,6.646081924438477,-11.218490600585938,25.654916763305664,59.757564544677734
0,136023,-0.3212306797504425,7.591485977172852,18.95427131652832,31.037696838378906
0,136025,15.061356544494629,71.59626007080078,-52.34822082519531,-34.12665557861328
0,136027,-23.41248321533203,-32.4427604675293,-38.65934371948242,-25.55743408203125
0,136029,-14.957873344421387,-59.7857551574707,27.00850486755371,-32.43408966064453
0,136031,13.425573348999023,24.637859344482422,37.1983642578125,-16.923961639404297
0,136033,10.888847351074219,14.465469360351562,-3.6692886352539062,160.1096649169922
0,136035,28.557558059692383,-29.511417388916016,-20.981861114501953,73.74143981933594
0,136037,-44.38082504272461,1.1791603565216064,19.345306396484375,-141.1932830810547
0,136039,-21.902128219604492,36.92623519897461,-11.821675300598145,-65.05806732177734
0,136041,76.59073638916016,8.307353019714355,-20.840246200561523,-41.14704895019531
0,136043,-6.7917985916137695,-49.508323669433594,-5.322164535522461,18.806350708007812
0,136045,-42.68370056152344,-10.715822219848633,-13.808175086975098,83.0051040649414
0,136047,15.554801940917969,66.41706085205078,29.11855125427246,18.713123321533203
0,136049,-8.27668285369873,-1.98867928981781,18.57135772705078,-0.3272712826728821
0,136051,-2.847093343734741,-27.027359008789062,-10.833744049072266,-39.116634368896484
0,136053,3.680346965789795,7.101279258728027,18.191234588623047,-75.66576385498047
0,136055,-8.020356178283691,-22.376882553100586,13.97182846069336,-18.754030227661133
0,136057,11.408137321472168,-3.3727314472198486,-45.236690521240234,181.68392944335938
0,136059,-1.7666774988174438,26.270309448242188,-1.602712631225586,88.84577941894531
0,136062,-26.342145919799805,-20.538833618164062,31.336177825927734,-255.53358459472656
0,136063,12.014053344726562,-38.979610443115234,-37.59558868408203,-56.726871490478516
0,136064,23.14185905456543,0.7218994498252869,4.2282304763793945,186.53517150878906
0,136068,-21.240398406982422,56.971805572509766,38.280181884765625,-32.179405212402344
0,136069,6.635770797729492,57.849796295166016,-20.347087860107422,-117.1037826538086
0,136071,31.307159423828125,-61.040592193603516,-37.66994094848633,131.75527954101562
0,136073,-17.363662719726562,-35.16986846923828,7.629842758178711,183.51528930664062
0,136075,-38.75688934326172,31.343997955322266,15.927276611328125,-160.3165740966797
0,136077,15.9701566696167,-8.608495712280273,9.383393287658691,-215.17796325683594
0,136079,55.990257263183594,-0.537465512752533,32.84054183959961,114.494140625
0,136081,19.88674545288086,13.596393585205078,-17.003997802734375,118.03508758544922
0,136083,-46.676246643066406,-1.514839768409729,-38.20808792114258,-53.43318176269531
0,136085,-34.455902099609375,-4.38715934753418,6.405516147613525,-0.5760655999183655
0,136087,8.140353202819824,6.7538909912109375,18.912620544433594,17.77596664428711
0,136089,-3.0396883487701416,-2.726851463317871,1.6905779838562012,-88.657470703125
0,136091,10.977222442626953,9.286664009094238,7.608485698699951,-18.683929443359375
0,136093,43.352203369140625,-7.194831371307373,28.551904678344727,94.1427993774414
0,136095,-5.886511325836182,-31.303651809692383,-24.792871475219727,11.828158378601074
0,136097,-83.30889129638672,18.050107955932617,-29.69390296936035,-62.37211227416992
0,136099,-4.184352397918701,32.61391830444336,24.50052833557129,-20.8565616607666
0,136101,65.43315887451172,-9.841795921325684,-9.579596519470215,66.059326171875
0,136103,-5.348028659820557,-28.37373924255371,-17.710613250732422,40.70574188232422
0,136105,-12.379222869873047,6.318258762359619,-0.7830103635787964,-33.17594909667969
0,136107,-3.756422281265259,19.917417526245117,-5.6803812980651855,-26.998661041259766
0,136109,4.228322982788086,12.998127937316895,36.299259185791016,9.89750862121582
0,136111,30.182331085205078,-5.865395545959473,19.415767669677734,11.56037425994873
0,136113,-3.3760440349578857,-39.722347259521484,-22.274765014648438,-18.961713790893555
0,136115,-13.172143936157227,-12.377182006835938,-26.801429748535156,-18.928693771362305
0,136117,1.7864207029342651,12.11590576171875,-2.8155360221862793,-12.813187599182129
0,136119,-6.083487033843994,13.244058609008789,37.338985443115234,26.554380416870117
0,136121,-30.8489990234375,-8.104683876037598,-5.030877113342285,3.978717088699341
0,136123,-2.8456625938415527,-27.15473747253418,-13.923646926879883,2.586179256439209
0,136125,51.2827033996582,33.472774505615234,36.54928970336914,50.26704406738281
0,136127,6.523428440093994,26.664947509765625,-5.465391635894775,-19.674245834350586
0,136129,-44.3270263671875,-40.264076232910156,-47.393253326416016,-27.07147789001465
0,136131,-4.777190685272217,-6.971059322357178,-10.134445190429688,4.770891189575195
0,136133,33.8350715637207,30.7499942779541,10.15589427947998,15.38255500793457
0,136135,-1.5442088842391968,15.140042304992676,14.139894485473633,0.5764002203941345
0,136137,-25.137775421142578,1.1790316104888916,14.314610481262207,-54.279842376708984
0,136139,6.9929914474487305,-8.134267807006836,-15.945908546447754,-13.077178955078125
0,136141,16.445219039916992,-10.768102645874023,12.144765853881836,97.43055725097656
0,136143,10.898962020874023,19.740816116333008,1.3435348272323608,17.07101821899414
0,136145,14.06553840637207,1.774693489074707,-46.6532096862793,-129.1217498779297
0,136147,-59.08244323730469,-71.53294372558594,-15.483589172363281,-50.023197174072266
0,136149,-35.70782470703125,-10.182856559753418,30.850618362426758,94.38041687011719
0,136151,126.77642822265625,109.55433654785156,67.499755859375,36.20981979370117
0,136153,16.267826080322266,19.274850845336914,-4.503138542175293,-52.8087158203125
0,136155,-132.2251739501953,-76.4683837890625,-58.89061737060547,32.44652557373047
0,136157,22.03293228149414,-19.22807502746582,23.243793487548828,9.625924110412598
0,136159,62.713478088378906,11.067068099975586,2.873311758041382,0.9638552069664001
0,136161,-53.796871185302734,30.715147018432617,-41.40414047241211,6.190314769744873
0,136163,3.2882871627807617,-3.325422763824463,32.312129974365234,-6.349884986877441
0,136165,43.63610076904297,-43.93790817260742,50.192848205566406,-1.4649301767349243
0,136167,-27.73712730407715,26.593664169311523,-1.0334850549697876,-25.248523712158203
0,136169,-23.08652687072754,42.842567443847656,-39.4727668762207,51.54772186279297
0,136171,-20.031597137451172,-18.441204071044922,-13.984406471252441,-18.779895782470703
0,136173,23.026708602905273,-27.598121643066406,-4.078283786773682,-58.130775451660156
0,136175,59.885345458984375,52.6468505859375,35.253196716308594,85.55184173583984
0,136177,-33.97336959838867,-4.735456943511963,-19.482990264892578,-11.346771240234375
0,136179,-39.81310272216797,-99.99382019042969,-79.99235534667969,-86.653564453125
0,136181,41.77177429199219,51.194923400878906,77.06491088867188,42.66469955444336
0,136183,28.65292739868164,52.543434143066406,46.10093688964844,23.471628189086914
0,136185,-12.49800968170166,-47.75204849243164,-38.33528518676758,4.9075493812561035
0,136187,-6.593254566192627,-9.8643217086792,-14.37281608581543,-15.377253532409668
0,136189,-24.844343185424805,-12.745662689208984,-12.305665969848633,-39.095699310302734
0,136191,-10.7909517288208,10.34358024597168,29.68834686279297,62.161582946777344
0,136193,44.60670852661133,18.917951583862305,24.5360050201416,38.76638412475586
0,136195,-30.699621200561523,-46.339874267578125,-68.99430084228516,-81.01268005371094
0,136197,-44.17762756347656,-8.624882698059082,-67.90867614746094,-33.61307907104492
0,136199,44.22446060180664,79.83553314208984,89.75534057617188,21.44526481628418
0,136201,24.03518295288086,44.86586380004883,78.4520034790039,-34.627132415771484
0,136203,7.008124351501465,-42.885032653808594,-36.49759292602539,-20.101404190063477
0,136205,-17.129858016967773,-38.815223693847656,-51.75189971923828,100.23026275634766
0,136207,-29.031221389770508,8.77287483215332,-13.108746528625488,80.80855560302734
0,136209,-23.247779846191406,-11.775763511657715,42.88064193725586,-82.63854217529297
0,136211,6.466232776641846,-17.56975555419922,-9.903308868408203,-52.20655822753906
0,136213,86.93159484863281,11.187434196472168,-0.26237526535987854,65.72515106201172
0,136215,1.5849169492721558,27.985843658447266,32.52360916137695,9.184313774108887
0,136217,-78.40218353271484,35.893192291259766,-6.603205680847168,-0.8058932423591614
0,136219,24.051130294799805,-38.238407135009766,-19.128435134887695,39.9351692199707
0,136221,23.354129791259766,-68.32357025146484,-54.97195816040039,-83.33309173583984
0,136223,-44.89919662475586,-6.778219699859619,9.748518943786621,-35.44899368286133
0,136225,0.2937129735946655,40.980037689208984,54.00369644165039,93.63320922851562
0,136227,35.45451354980469,61.74864959716797,-46.442047119140625,-68.58033752441406
0,136229,-32.715396881103516,-8.165682792663574,-17.507102966308594,-96.85384368896484
0,136234,-2.695981979370117,-19.899011611938477,69.22896575927734,66.8980484008789
0,136234,75.56179809570312,13.790874481201172,-25.540019989013672,33.222267150878906
0,136235,-12.819000244140625,-7.711478233337402,-30.937273025512695,24.72625160217285
0,136236,-46.083919525146484,-4.190353870391846,56.14348602294922,25.52198028564453
0,136239,-0.07318535447120667,-3.1305227279663086,36.577552795410156,-28.600650787353516
0,136240,7.0008649826049805,27.11210823059082,8.097904205322266,-0.6527118682861328
0,136243,17.7298583984375,-3.3125014305114746,-12.790725708007812,-29.71839141845703
0,136244,-9.3831787109375,-44.143924713134766,-37.337093353271484,57.15846633911133
0,136247,0.2917361259460449,23.686668395996094,-38.37004852294922,17.638904571533203
0,136248,32.32970428466797,-1.2389874458312988,14.53575611114502,-83.09546661376953
0,136251,-53.62271499633789,-32.975215911865234,10.636750221252441,50.7866325378418
0,136252,-49.426239013671875,29.21640396118164,-28.173900604248047,-4.72648811340332
0,136255,-0.47837033867836,-8.54129409790039,2.935708999633789,-63.985042572021484
0,136256,11.961618423461914,-48.59103012084961,-6.539303302764893,44.13129425048828
0,136259,86.37357330322266,46.193199157714844,-76.43534851074219,-40.94327926635742
0,136260,16.210617065429688,42.805171966552734,35.98325729370117,-13.913352966308594
0,136263,-65.13774108886719,-56.78092575073242,1.8445453643798828,70.27739715576172
0,136264,3.204190731048584,-4.094334602355957,-13.895269393920898,-44.96002197265625
0,136267,34.36825942993164,39.41162109375,189.3907928466797,75.17346954345703
0,136268,4.252319812774658,7.970938205718994,-25.546804428100586,25.028656005859375
0,136271,-24.947412490844727,-12.71233081817627,-60.067420959472656,-99.36888885498047
0,136272,-27.251874923706055,-16.51630401611328,62.633270263671875,21.419754028320312
0,136275,3.2171545028686523,-11.664752006530762,-58.696414947509766,-55.36161422729492
0,136276,15.229416847229004,9.87566089630127,-6.237106800079346,-0.46863919496536255
0,136279,26.655731201171875,34.654605865478516,-6.819260120391846,143.71624755859375
0,136280,3.742370367050171,-18.5438232421875,-22.357540130615234,-57.66381072998047
0,136283,-31.985288619995117,-24.31711196899414,79.23202514648438,-38.281463623046875
0,136284,-18.230606079101562,13.8045072555542,-37.69112014770508,79.02337646484375
0,136287,-3.8257415294647217,13.999000549316406,-103.26506805419922,-29.326780319213867
0,136288,4.401066303253174,2.9631307125091553,36.37744903564453,-5.963937282562256
0,136291,28.805971145629883,-23.491195678710938,18.436494827270508,-23.959457397460938
0,136292,36.13840103149414,13.261985778808594,16.067760467529297,-9.349321365356445
0,136295,-17.189430236816406,31.991979598999023,35.21492385864258,51.26921081542969
0,136296,-30.043283462524414,-9.86580753326416,-22.29689598083496,-5.428736686706543
0,136299,-1.9173518419265747,-12.289931297302246,-16.953643798828125,-9.686678886413574
0,136300,9.210275650024414,-25.47378158569336,7.124238014221191,-13.125621795654297
0,136303,16.02638053894043,3.6400976181030273,28.955581665039062,-35.886474609375
0,136304,-19.381851196289062,6.62941837310791,-21.585960388183594,7.469553470611572
0,136307,14.490687370300293,-13.052702903747559,-33.77406692504883,12.616739273071289
0,136308,91.00110626220703,67.03963470458984,46.486595153808594,-14.460273742675781
0,136311,-31.08308219909668,-6.100588798522949,-33.57773208618164,-12.353887557983398
0,136312,-137.35269165039062,-110.19989013671875,-73.4343490600586,15.566341400146484
0,136315,21.25362777709961,9.118499755859375,71.40933990478516,18.59374237060547
0,136316,51.0369873046875,44.94248962402344,39.334381103515625,-4.653212070465088
0,136319,-47.84394836425781,3.5848515033721924,-45.8193244934082,12.517644882202148
0,136320,19.373580932617188,23.04972267150879,25.984724044799805,7.585208415985107
0,136323,2.7413880825042725,-28.482946395874023,16.442625045776367,17.469837188720703
0,136324,-29.574132919311523,11.699263572692871,-19.103321075439453,-47.85391616821289
0,136327,41.60982894897461,44.45057678222656,6.071039199829102,-61.748313903808594
0,136328,25.217844009399414,-65.19469451904297,-23.283266067504883,69.18037414550781
0,136331,4.008540630340576,-1.6464526653289795,11.486590385437012,12.639813423156738
0,136332,-4.215545654296875,56.1922492980957,35.16535186767578,3.797909736633301
0,136335,-23.521686553955078,-27.65842056274414,-12.997596740722656,0.49432727694511414
0,136336,-5.617793560028076,-22.047744750976562,-34.48701477050781,-50.07651138305664
0,136339,17.40031623840332,23.057615280151367,-18.681400299072266,54.697811126708984
0,136340,6.469804763793945,11.770800590515137,35.04829406738281,9.888736724853516
0,136343,-8.972084999084473,-6.209953308105469,25.804275512695312,-23.96295166015625
0,136344,15.96360969543457,10.962030410766602,-14.68503189086914,22.418170928955078
0,136347,-3.764927387237549,-16.064666748046875,-37.23904800415039,-50.777610778808594
0,136348,-40.10880661010742,-55.65336608886719,-13.844494819641113,-19.325315475463867
0,136351,1.2750039100646973,7.761011123657227,22.215824127197266,41.666561126708984
0,136352,18.433740615844727,48.42268371582031,12.436018943786621,-8.775359153747559
0,136355,1.8597750663757324,5.550590991973877,0.9845264554023743,-10.466154098510742
0,136356,12.241479873657227,-27.661556243896484,21.090618133544922,30.480323791503906
0,136359,21.980838775634766,24.623119354248047,21.956186294555664,-1.9838944673538208
0,136360,-9.744084358215332,28.566204071044922,-34.49431610107422,-10.343194007873535
0,136363,-23.356098175048828,-53.99140548706055,-12.577950477600098,15.018400192260742
0,136364,15.867438316345215,-16.462629318237305,11.336193084716797,-37.9061279296875
0,136367,-27.535926818847656,28.081825256347656,-17.462024688720703,17.16383934020996
0,136368,-25.233287811279297,26.68729591369629,12.854898452758789,58.27141571044922
0,136371,43.68536376953125,10.298685073852539,6.022279262542725,-40.204261779785156
0,136372,9.78002643585205,-21.29113006591797,3.8471157550811768,-14.549893379211426
0,136375,-4.948761463165283,-10.23271656036377,3.572420120239258,28.87636947631836
0,136376,11.181889533996582,18.787187576293945,-41.6696662902832,-21.386215209960938
0,136379,-42.381919860839844,-31.636247634887695,2.3969666957855225,-6.701966285705566
0,136380,-28.00251579284668,-34.324920654296875,38.24663162231445,6.614730358123779
0,136383,51.36945343017578,70.60771942138672,33.45978927612305,-2.6058974266052246
0,136384,1.477728247642517,16.294275283813477,-11.017912864685059,15.777626037597656
0,136387,-16.205631256103516,-51.7154541015625,-58.29899215698242,-14.790681838989258
0,136389,18.631980895996094,-15.34604263305664,-15.10799789428711,-20.037670135498047
0,136391,-15.237275123596191,11.691547393798828,-1.438122272491455,-2.0478317737579346
0,136393,10.969501495361328,29.00366973876953,23.082063674926758,-6.667522430419922
0,136395,-6.2179670333862305,-8.418540954589844,40.08910369873047,32.383907318115234
0,136397,-4.581172466278076,-28.434860229492188,20.91989517211914,25.696836471557617
0,136399,56.411109924316406,40.230995178222656,-20.923742294311523,-24.455354690551758
0,136401,-12.797730445861816,6.066756725311279,-66.74942016601562,-25.262584686279297
0,136403,-37.59859848022461,-65.24083709716797,-8.011366844177246,-49.26970291137695
0,136405,-4.793146133422852,37.736026763916016,66.00543212890625,30.693819046020508
0,136408,-21.856422424316406,45.62944793701172,36.08205032348633,75.85767364501953
0,136408,18.548973083496094,-27.7640323638916,-26.172256469726562,-32.940616607666016
0,136411,53.709381103515625,-27.624065399169922,-41.33109664916992,-8.620062828063965
0,136412,-10.753615379333496,-16.56361961364746,24.290729522705078,52.57456588745117
0,136415,-65.39225006103516,0.8694378733634949,9.905780792236328,-44.16640853881836
0,136416,3.367344617843628,12.967379570007324,-43.88500213623047,-40.749908447265625
0,136419,35.31886291503906,35.25738525390625,34.469703674316406,48.221431732177734
0,136420,-25.034446716308594,-13.84640121459961,28.75893783569336,-20.74742317199707
0,136423,-1.6455039978027344,-43.98408889770508,-41.4321403503418,-6.210719585418701
0,136424,46.22520065307617,9.499673843383789,-42.07405471801758,37.229698181152344
0,136427,-14.215699195861816,34.63643264770508,15.232524871826172,13.19620132446289
0,136428,-27.766626358032227,32.49676513671875,25.915212631225586,-22.58611297607422
0,136431,14.934235572814941,-26.147035598754883,18.975522994995117,-1.6122695207595825
0,136432,20.372459411621094,-27.7473201751709,31.809999465942383,2.5595850944519043
0,136435,-10.793008804321289,21.741451263427734,-54.721805572509766,-80.78688049316406
0,136436,-40.72651290893555,-12.21771240234375,-53.082637786865234,-0.5162002444267273
0,136439,23.903892517089844,-3.2572720050811768,64.18106079101562,93.24822235107422
0,136440,12.751595497131348,15.469321250915527,39.96729278564453,37.015525817871094
0,136443,3.918285608291626,-6.3216705322265625,-24.86425018310547,-24.36235809326172
0,136444,23.438257217407227,-8.165122032165527,1.724770426750183,-30.4493350982666
0,136447,-24.060110092163086,46.80852127075195,-4.586828708648682,-38.47601318359375
0,136448,-5.775928020477295,31.482404708862305,-23.29268455505371,22.48513412475586
0,136451,-13.269762992858887,-46.4107551574707,1.2135635614395142,44.55375289916992
0,136452,-3.0947625637054443,-19.245752334594727,24.054134368896484,-28.400638580322266
0,136455,45.80714797973633,-7.783402919769287,16.98105239868164,-22.054615020751953
0,136456,-4.583348274230957,-27.454851150512695,-25.780014038085938,-21.351686477661133
0,136459,-17.683902740478516,14.874807357788086,-30.907054901123047,8.039441108703613
0,136460,-10.298892974853516,34.03633499145508,21.701465606689453,55.38949966430664
0,136463,-19.970508575439453,-20.025737762451172,5.036630630493164,-16.143369674682617
0,136464,34.44386291503906,-35.99666213989258,-39.48139572143555,-47.36515808105469
0,136467,-5.383483409881592,27.598546981811523,27.50973129272461,69.60246276855469
0,136468,-49.33073806762695,17.710493087768555,23.327438354492188,-15.973456382751465
0,136471,14.50393295288086,-27.976221084594727,-54.414180755615234,-115.92010498046875
0,136472,36.89512252807617,28.906335830688477,12.17963981628418,87.19483947753906
0,136475,11.525243759155273,26.043704986572266,41.82532501220703,75.96151733398438
0,136476,-0.26081186532974243,-34.6512565612793,6.136979103088379,-24.636613845825195
0,136479,-12.132378578186035,-8.553902626037598,15.920849800109863,-8.360552787780762
0,136480,0.34449440240859985,23.152671813964844,-17.8459529876709,-40.90351867675781
0,136483,13.624686241149902,-2.288618564605713,-22.34189796447754,12.345486640930176
0,136484,-20.48436164855957,-15.947184562683105,-2.8601980209350586,8.982053756713867
0,136487,-11.110380172729492,-26.018720626831055,3.522923231124878,-75.53009033203125
0,136488,22.299680709838867,-6.6589179039001465,1.0487688779830933,-6.825221538543701
0,136491,-5.458251953125,25.106101989746094,-2.9372005462646484,99.81712341308594
0,136492,-9.413044929504395,17.493993759155273,11.200035095214844,15.496634483337402
0,136495,-4.110654354095459,25.068424224853516,10.949868202209473,-43.78551483154297
0,136496,-20.164093017578125,-4.950952053070068,-11.286681175231934,15.11192798614502
0,136499,19.28171157836914,-12.368109703063965,-16.238935470581055,-51.523746490478516
0,136500,28.571353912353516,12.799225807189941,-19.767045974731445,-24.538848876953125
0,136503,-15.558422088623047,-16.524805068969727,-13.787496566772461,94.10255432128906
0,136504,-25.975971221923828,-15.709859848022461,72.13924407958984,-4.783453941345215
0,136507,-2.547513484954834,-10.767938613891602,18.166868209838867,-65.00839233398438
0,136508,5.436751842498779,2.5853941440582275,-58.45616149902344,2.964372158050537
0,136511,9.456597328186035,28.99525260925293,33.533966064453125,57.1765251159668
0,136512,-1.6128615140914917,-22.22290802001953,22.166173934936523,52.21598434448242
0,136515,-7.576451301574707,-19.99874496459961,-59.68532943725586,-91.4677505493164
0,136516,33.676170349121094,24.45338249206543,-14.018311500549316,-75.71600341796875
0,136519,-6.4954304695129395,-1.8041123151779175,33.99700164794922,95.28839111328125
0,136520,-37.21064758300781,-8.938549041748047,-11.231428146362305,30.57024574279785
0,136523,12.947413444519043,-17.697479248046875,-36.273841857910156,-70.22140502929688
0,136524,30.489965438842773,24.515417098999023,17.452219009399414,15.487287521362305
0,136527,30.038368225097656,51.316650390625,36.75968933105469,39.87772750854492
0,136528,-13.131985664367676,-16.135087966918945,3.1318531036376953,-25.391305923461914
0,136531,-42.98960494995117,-58.13765335083008,-11.816414833068848,-1.9429808855056763
0,136532,-6.688214302062988,-28.38795280456543,-26.387798309326172,25.703426361083984
0,136535,47.69171142578125,84.92045593261719,30.413591384887695,-7.96343469619751
0,136536,5.6162519454956055,29.86529541015625,38.374244689941406,-31.93082046508789
0,136539,-56.7179069519043,-73.34143829345703,-48.460384368896484,22.986370086669922
0,136540,-11.656682014465332,-2.6126885414123535,-23.854597091674805,10.036251068115234
0,136543,17.19083595275879,33.31209182739258,24.25188446044922,-15.940646171569824
0,136544,26.638578414916992,29.70705223083496,18.471240997314453,58.13998794555664
0,136547,0.18824870884418488,-21.186241149902344,11.987555503845215,-24.9095401763916
0,136548,-21.624637603759766,-37.185611724853516,-16.88453483581543,-92.38560485839844
0,136551,-2.091458320617676,10.744426727294922,-18.303110122680664,29.81107521057129
0,136552,10.848976135253906,-7.294131278991699,-14.420382499694824,70.59319305419922
0,136555,19.75688934326172,2.2452821731567383,-0.4907742440700531,-28.3339786529541
0,136556,-33.836341857910156,-25.142494201660156,23.40144920349121,-30.214494705200195
0,136559,-0.38168731331825256,12.588552474975586,0.5103747844696045,31.271467208862305
0,136560,58.76951599121094,73.75415802001953,18.33772087097168,-9.102973937988281
0,136563,-52.30772399902344,-61.05809783935547,14.425992012023926,-5.0445427894592285
0,136565,-40.55980682373047,-84.99860382080078,-33.304264068603516,28.017847061157227
0,136567,57.53314208984375,66.76335906982422,0.9796076416969299,-6.7505669593811035
0,136569,5.546450138092041,79.18126678466797,16.738779067993164,-14.539399147033691
0,136571,-15.529828071594238,-13.667631149291992,-2.273841619491577,-15.515667915344238
0,136573,6.873931884765625,-8.258057594299316,2.771444082260132,-20.816801071166992
0,136575,7.179656505584717,-5.035471439361572,-12.423480033874512,21.697181701660156
0,136577,-0.2574540376663208,-33.097599029541016,-17.057924270629883,6.718082427978516
0,136579,-27.579086303710938,-8.463961601257324,-17.38823890686035,-7.604305744171143
0,136581,-7.614598274230957,9.723710060119629,-1.2132837772369385,22.85972023010254
0,136583,46.56531524658203,18.115156173706055,46.92331314086914,-5.153344631195068
0,136585,-9.317848205566406,-8.972590446472168,21.645753860473633,-16.089588165283203
0,136587,-29.563419342041016,-17.723289489746094,-43.36842346191406,-9.053092956542969
0,136589,18.088050842285156,1.3357304334640503,-3.5031330585479736,24.305700302124023
0,136591,-8.912870407104492,8.422749519348145,21.27134132385254,36.105857849121094
0,136593,4.001589298248291,17.51740837097168,-34.23052215576172,0.2923971712589264
0,136594,14.950325012207031,-20.270278930664062,-23.484167098999023,-35.23653030395508
0,136598,-12.508711814880371,-21.79294776916504,22.268314361572266,-70.3243637084961
0,136599,-21.750404357910156,38.64850997924805,28.40324592590332,32.5033073425293
0,136600,10.585570335388184,55.65320587158203,11.21552562713623,45.299530029296875
0,136603,19.941190719604492,-37.717674255371094,4.25929069519043,-15.334973335266113
0,136604,5.145061492919922,-38.91185760498047,8.781423568725586,26.353822708129883
0,136607,10.015161514282227,28.93403434753418,-24.605337142944336,-45.73292541503906
0,136608,-17.19607925415039,-24.21987533569336,-40.179473876953125,-30.9948787689209
0,136611,0.49809858202934265,-15.607848167419434,19.324636459350586,60.634063720703125
0,136612,9.473955154418945,26.14780616760254,28.056968688964844,4.384605407714844
0,136615,-38.7819938659668,-26.762311935424805,-14.737683296203613,-11.675026893615723
0,136616,8.68747329711914,20.58015251159668,11.38070011138916,3.229407787322998
0,136619,36.29102325439453,60.97927474975586,12.419748306274414,-22.471101760864258
0,136620,-51.56681823730469,-55.71356201171875,-22.869224548339844,-3.6429171562194824
0,136623,-4.409797668457031,-47.62843322753906,-10.424739837646484,34.05811309814453
0,136624,82.63644409179688,80.92962646484375,18.152681350708008,-11.519451141357422
0,136627,-43.74046325683594,10.666285514831543,8.777430534362793,-30.966876983642578
0,136628,-67.5539779663086,-76.61343383789062,-16.068872451782227,36.87419509887695
0,136631,33.52229309082031,10.13465404510498,12.322232246398926,4.506103992462158
0,136632,13.718252182006836,12.74194622039795,-0.014238688163459301,-2.996525764465332
0,136635,20.15342903137207,-8.70020866394043,-19.959489822387695,33.15409851074219
0,136636,27.115999221801758,4.011814594268799,13.050429344177246,7.260805606842041
0,136639,-19.230974197387695,12.660111427307129,-13.006836891174316,-28.982654571533203
0,136640,-8.2874755859375,3.880173444747925,1.517406702041626,-36.22713088989258
0,136643,4.124013900756836,-7.245144844055176,24.19178581237793,18.09247398376465
0,136644,-29.050283432006836,-6.278945446014404,-34.700416564941406,-9.569453239440918
0,136647,2.7160143852233887,-8.744440078735352,-17.526079177856445,-22.18382453918457
0,136648,36.015174865722656,32.18954849243164,26.51148223876953,9.453509330749512
0,136651,7.215391635894775,2.8310983180999756,12.214486122131348,4.9949235916137695
0,136652,-15.883105278015137,-20.29152488708496,-14.823888778686523,40.781517028808594
0,136655,-36.61335754394531,6.176711559295654,18.58510971069336,7.905686855316162
0,136656,11.22879695892334,-8.665106773376465,43.621089935302734,-20.90415382385254
0,136659,36.41450881958008,18.66995620727539,-29.763370513916016,-58.09622573852539
0,136660,-25.77454376220703,-3.2598824501037598,-43.407928466796875,-29.065797805786133
0,136663,-7.428808689117432,-38.075923919677734,29.097925186157227,79.07366180419922
0,136664,11.029461860656738,15.322529792785645,15.163337707519531,27.277647018432617
0,136667,-1.933060884475708,32.576995849609375,-28.008808135986328,-0.7712871432304382
0,136668,7.405189037322998,-18.856428146362305,4.9492878913879395,-3.1908109188079834
0,136671,8.355020523071289,-9.562861442565918,1.7387113571166992,-25.813018798828125
0,136672,-0.43021878600120544,32.205753326416016,-25.854711532592773,-27.19991111755371
0,136675,-21.931278228759766,-7.335747241973877,-0.953492283821106,14.193363189697266
0,136676,-7.202335357666016,-17.18155288696289,27.160654067993164,62.7030143737793
0,136679,16.38918685913086,-26.065574645996094,-3.3416285514831543,-65.04557037353516
0,136680,24.349994659423828,8.127226829528809,-30.833511352539062,-51.847618103027344
0,136683,-15.462618827819824,41.99603271484375,18.067279815673828,66.89683532714844
0,136684,-25.804981231689453,-12.119098663330078,38.10488510131836,18.417593002319336
0,136687,-10.367799758911133,-27.24350357055664,-23.40837860107422,-29.895397186279297
0,136688,-3.5438013076782227,23.87313461303711,-16.263687133789062,11.886204719543457
0,136691,38.278961181640625,25.854816436767578,36.80740737915039,-16.354248046875
0,136692,-6.817054271697998,-43.816009521484375,11.519845008850098,-65.90482330322266
0,136695,-11.422789573669434,0.017193371430039406,-16.37569808959961,71.05743408203125
0,136696,14.318248748779297,43.31827926635742,0.08186136186122894,92.62303924560547
0,136699,-11.927821159362793,-26.537294387817383,-9.736898422241211,-37.41853332519531
0,136700,14.405998229980469,-20.324737548828125,-37.242305755615234,-57.216835021972656
0,136703,2.206491231918335,18.437841415405273,10.032694816589355,2.483316421508789
0,136704,17.963247299194336,10.22794246673584,40.120582580566406,21.87653160095215
0,136707,11.962358474731445,-10.775787353515625,-0.25745347142219543,-0.8123377561569214
0,136708,-58.717952728271484,-18.50237464904785,-28.925338745117188,-15.914490699768066
0,136711,4.671350955963135,13.932352066040039,1.4648573398590088,-1.872347354888916
0,136712,46.778053283691406,10.311331748962402,52.894168853759766,31.264692306518555
0,136715,-36.73126983642578,-27.416589736938477,-40.791831970214844,2.4466938972473145
0,136716,-18.22069549560547,-9.827771186828613,-54.67521667480469,-69.59683990478516
0,136719,25.06633758544922,42.932437896728516,47.12650680541992,-5.49540901184082
0,136720,-11.638935089111328,13.692859649658203,14.082440376281738,70.67485809326172
0,136723,0.800321638584137,-59.58189010620117,0.7710939049720764,-12.722246170043945
0,136724,15.73782730102539,2.4865479469299316,7.303226470947266,-22.714262008666992
0,136727,-8.63681697845459,60.24635696411133,-12.763216018676758,16.81818199157715
0,136728,13.203393936157227,-34.18365478515625,-14.768315315246582,-8.810333251953125
0,136731,2.0405538082122803,-40.61308288574219,-17.709430694580078,-13.579806327819824
0,136732,-46.05115509033203,26.24637794494629,25.906864166259766,12.06550121307373
0,136735,14.18956184387207,12.701735496520996,34.32563781738281,-6.43070125579834
0,136736,30.97355842590332,3.154757022857666,-26.93263816833496,9.534775733947754
0,136739,-3.948945999145508,16.24256706237793,-28.26432228088379,43.511356353759766
0,136740,-6.375629425048828,-1.0001592636108398,18.333744049072266,-36.76130676269531
0,136743,-7.5417585372924805,-4.019896030426025,2.8459746837615967,-33.0802116394043
0,136744,29.215251922607422,9.107890129089355,-17.55229949951172,79.809326171875
0,136747,-10.161770820617676,-33.21926498413086,6.637421131134033,-12.099071502685547
0,136748,-45.35410690307617,-11.43675422668457,27.6812686920166,-97.38727569580078
0,136751,21.954383850097656,47.77294158935547,-1.7189736366271973,23.410690307617188
0,136752,19.745811462402344,16.864606857299805,-24.92987823486328,40.747989654541016
0,136755,1.8186429738998413,-22.932937622070312,16.368412017822266,-34.46268844604492
0,136756,16.44338035583496,-37.93828201293945,1.1137691736221313,1.6637907028198242
0,136759,-16.123071670532227,2.745819091796875,-4.64730167388916,51.95746994018555
0,136760,-35.71742248535156,26.591896057128906,-0.03910500183701515,-15.12711238861084
0,136763,11.218216896057129,-11.462594032287598,-10.680824279785156,-17.812044143676758
0,136764,38.00665283203125,-20.57842254638672,30.109739303588867,23.21847915649414
0,136767,-2.3889689445495605,12.913191795349121,-3.8989038467407227,-7.381598472595215
0,136768,-27.025516510009766,45.59492492675781,-23.586349487304688,-13.658125877380371
0,136771,-7.1287102699279785,-15.602415084838867,-4.361972332000732,-12.883885383605957
0,136772,12.944999694824219,-27.80927085876465,-0.40697669982910156,15.524700164794922
0,136775,-2.7230029106140137,35.71265411376953,31.70563316345215,53.65249252319336
0,136777,-6.701084136962891,-29.232675552368164,-27.563631057739258,-32.540489196777344
0,136779,2.70979380607605,-42.9266471862793,-14.064413070678711,-77.33172607421875
0,136781,-13.293924331665039,23.62381362915039,27.120019912719727,24.768051147460938
0,136783,9.9071044921875,29.52783203125,-27.90889549255371,51.84260940551758
0,136785,26.309383392333984,22.61774253845215,30.02699089050293,16.073699951171875
0,136787,-27.45160484313965,-24.079721450805664,6.7052998542785645,-25.943708419799805
0,136789,0.43606624007225037,-22.771282196044922,-47.684242248535156,-27.07938003540039
0,136791,24.014345169067383,14.608001708984375,46.215335845947266,26.255451202392578
0,136793,-32.56166458129883,10.4419527053833,26.780887603759766,3.8549885749816895
0,136795,-6.301098823547363,-9.51529312133789,-48.30741882324219,-21.447996139526367
0,136797,37.5928955078125,-8.118592262268066,0.3214567005634308,13.891524314880371
1,136802,4.743207931518555,21.338647842407227,22.533584594726562,3.4068329334259033
1,136802,-30.12546730041504,11.180418968200684,-23.590085983276367,-16.74907112121582
1,136804,0.1227431669831276,-12.845329284667969,-3.9201419353485107,29.354822158813477
1,136805,20.016647338867188,-16.32891082763672,24.739686965942383,11.910529136657715
1,136806,1.766253113746643,-9.192559242248535,-11.683070182800293,-43.02244567871094
1,136809,-0.8735633492469788,-0.6003845930099487,-13.82458209991455,-23.84649085998535
1,136810,-14.323952674865723,24.975004196166992,8.21847915649414,-17.587268829345703
1,136813,2.229541778564453,5.280598163604736,19.689899444580078,31.987178802490234
1,136814,16.0,-45.49544143676758,0.5758980512619019,58.02415466308594
1,136817,-16.340435028076172,7.23112154006958,-33.265419006347656,-36.27702713012695
1,136818,-6.975246906280518,60.75736618041992,1.4834189414978027,-6.229884624481201
1,136821,8.626314163208008,-9.642345428466797,5.659882545471191,35.42941665649414
1,136822,14.342975616455078,-21.626089096069336,6.571049213409424,-18.443220138549805
1,136825,-5.6759562492370605,-9.4551420211792,24.7332706451416,-13.042500495910645
1,136826,-18.351215362548828,-2.301424980163574,-1.0804729461669922,-5.893393039703369
1,136829,10.384513854980469,17.564464569091797,-8.665569305419922,7.535078525543213
1,136830,-22.839935302734375,-41.427494049072266,-36.757972717285156,41.38087844848633
1,136833,6.980226516723633,9.82461929321289,-6.747117042541504,-18.441726684570312
1,136834,50.60533142089844,43.17970657348633,44.03209686279297,-47.243003845214844
1,136837,-24.738155364990234,-28.755958557128906,3.0861282348632812,8.273124694824219
1,136838,-36.709068298339844,-12.81031608581543,-11.974372863769531,-3.923647403717041
1,136841,8.6107177734375,2.9129951000213623,1.9995166063308716,9.552872657775879
1,136842,21.380563735961914,-6.78396463394165,16.33473014831543,2.51954984664917
1,136845,11.746282577514648,28.185665130615234,-22.64202308654785,-16.698978424072266
1,136846,-1.1308187246322632,22.03899383544922,-18.012554168701172,33.94279098510742
1,136849,-8.652326583862305,-19.677629470825195,47.38644790649414,12.045222282409668
1,136850,-14.540080070495605,-1.7376295328140259,-8.35386848449707,-38.80133819580078
1,136853,26.46405601501465,29.14963722229004,-34.62038040161133,9.126349449157715
1,136854,14.251568794250488,-15.408090591430664,0.3157595098018646,28.439008712768555
1,136857,-43.80326461791992,-29.570981979370117,10.514570236206055,-19.41999053955078
1,136858,-2.931335926055908,17.901382446289062,8.809202194213867,5.64373779296875
1,136861,15.298507690429688,4.185838222503662,1.0800230503082275,-26.651077270507812
1,136862,-13.991024017333984,-30.52012062072754,10.688334465026855,-41.436614990234375
1,136865,15.9822998046875,1.695749282836914,-4.050379753112793,73.85275268554688
1,136866,16.758390426635742,5.659539222717285,-15.078892707824707,47.94313430786133
1,136869,-15.027880668640137,-3.7591822147369385,-0.5974752306938171,-53.43202209472656
1,136870,1.3922818899154663,37.206939697265625,1.9199317693710327,-25.98955726623535
1,136873,7.407747268676758,-34.82204055786133,-6.5791850090026855,17.365314483642578
1,136874,-3.857628107070923,-48.33952713012695,1.8028978109359741,18.377328872680664
1,136877,-3.7423391342163086,50.352996826171875,9.562928199768066,8.479850769042969
1,136878,4.7750244140625,25.677127838134766,10.720389366149902,2.0823817253112793
1,136881,-4.743982315063477,-15.785520553588867,-8.47641372680664,-16.224851608276367
1,136882,-5.113245010375977,4.174828052520752,-26.725080490112305,-41.33781814575195
1,136885,10.585835456848145,12.619158744812012,3.8054990768432617,0.41663792729377747
1,136886,-6.221980094909668,-17.49308204650879,-11.471025466918945,2.72499942779541
1,136889,1.1444681882858276,-13.1214599609375,-1.1044470071792603,-5.938236713409424
1,136890,-2.697097063064575,9.773340225219727,42.47874450683594,61.49623489379883
1,136893,-28.92169189453125,-0.902458667755127,-8.092123985290527,13.362648010253906
1,136894,-1.4243696928024292,30.517805099487305,4.758945465087891,-47.916751861572266
1,136897,19.283964157104492,18.252527236938477,36.39765930175781,13.085326194763184
1,136898,14.224656105041504,-44.233985900878906,-24.125972747802734,-4.020460605621338
1,136901,2.0931077003479004,-33.91099548339844,-25.80874252319336,-39.632633209228516
1,136902,-16.002914428710938,17.73980712890625,23.16230010986328,35.049278259277344
1,136905,-12.591466903686523,43.3176155090332,0.526813268661499,26.630325317382812
1,136906,2.481863260269165,-38.22071838378906,-31.482154846191406,-39.627662658691406
1,136909,14.46435832977295,-31.66130256652832,19.297054290771484,13.3931884765625
1,136910,-1.8565906286239624,78.77235412597656,28.247751235961914,20.79351043701172
1,136913,22.321298599243164,-0.5292252898216248,-23.225786209106445,-33.111785888671875
1,136914,16.029090881347656,-65.04959869384766,-39.33605194091797,-3.409355640411377
1,136917,-21.85099220275879,9.99600887298584,12.234493255615234,37.510948181152344
1,136918,1.4621450901031494,19.056692123413086,21.72553253173828,3.992241621017456
1,136921,-13.087848663330078,-6.664794921875,-30.05780601501465,-53.94328689575195
1,137176,-14.233146667480469,0.6328975558280945,10.564723014831543,5.495751857757568
1,137178,-0.850256085395813,-5.318313121795654,14.756264686584473,50.475921630859375
1,137180,-4.631340980529785,15.848557472229004,-41.243751525878906,-8.154272079467773
1,137182,9.963956832885742,14.610962867736816,6.417026042938232,-35.69308090209961
1,138891,3.4886155128479004,-9.95896053314209,39.31865310668945,-21.585317611694336
1,138892,-0.004060452803969383,-7.891687870025635,-15.837923049926758,16.71144676208496
1,138893,17.208250045776367,-6.435306549072266,-8.444854736328125,17.701778411865234
1,138894,-2.549506902694702,3.6105635166168213,12.267732620239258,7.8246026039123535
1,138897,-11.661957740783691,-13.869434356689453,-5.052961349487305,-8.976668357849121
1,138898,5.25758171081543,21.124502182006836,12.27708625793457,-14.665905952453613
1,138901,8.425102233886719,23.119338989257812,14.801198959350586,21.556774139404297
1,138902,-0.1610628366470337,-47.07283401489258,-7.566553115844727,46.543701171875
1,138905,-2.161458730697632,-8.290209770202637,10.426567077636719,5.281924724578857
1,138906,-5.4771952629089355,22.698570251464844,0.31695494055747986,-63.48265838623047
1,138909,-25.167400360107422,4.961892604827881,-28.43518829345703,-36.67659378051758
1,138910,-0.2155829817056656,-0.9399024248123169,14.792119026184082,14.55849552154541
1,138913,25.031034469604492,-13.26549243927002,23.551958084106445,54.5645866394043
1,138914,12.388984680175781,17.120182037353516,-5.30003023147583,3.907510995864868
1,138917,-3.227829933166504,26.481813430786133,-33.455055236816406,-41.103004455566406
1,138918,2.998373508453369,4.763900279998779,-23.055158615112305,17.55852508544922
1,138921,0.6123984456062317,-41.23133850097656,5.479852199554443,21.129831314086914
1,138922,-22.451974868774414,-35.35960006713867,21.688953399658203,-12.698206901550293
1,138925,-8.857339859008789,34.8843879699707,22.728370666503906,-9.028820991516113
1,138926,40.51144027709961,18.67711639404297,-15.375826835632324,10.407642364501953
1,138929,6.201525688171387,-9.585101127624512,-17.225088119506836,-23.51097869873047
1,138930,-62.33673858642578,-25.12737464904785,-3.5266709327697754,-13.753860473632812
1,138933,3.996163845062256,16.129024505615234,26.815595626831055,47.111820220947266
1,138934,52.45173645019531,42.35731887817383,21.18593978881836,6.4886956214904785
1,138937,-11.088217735290527,-18.831398010253906,-14.945127487182617,-41.43107223510742
1,138938,-29.787498474121094,-18.63892364501953,-17.059314727783203,2.0953545570373535
1,138941,21.538036346435547,1.115464210510254,16.39221954345703,11.50550365447998
1,138942,-2.8982322216033936,19.453136444091797,5.543201923370361,-22.892623901367188
1,138945,-22.07384490966797,-5.4144606590271,-24.231897354125977,25.315053939819336
1,138946,33.75589370727539,-30.33156394958496,9.514695167541504,33.477508544921875
1,138949,-3.7353639602661133,10.786539077758789,-2.9138290882110596,-37.62520217895508
1,138950,-18.582544326782227,11.736089706420898,-24.556053161621094,-35.03071975708008
1,138953,25.874267578125,-6.069855690002441,18.1331787109375,8.364025115966797
1,138954,-4.512947082519531,-16.500244140625,21.182289123535156,37.372467041015625
1,138957,-23.031944274902344,7.453677654266357,-28.7211856842041,1.218186616897583
1,138958,5.764529705047607,20.818546295166016,6.834103107452393,-18.38446807861328
1,138961,22.596851348876953,4.445954322814941,34.572330474853516,15.257448196411133
1,138962,-15.404746055603027,-4.353954792022705,-28.465660095214844,-3.7380423545837402
1,138965,-9.229470252990723,-27.083723068237305,-19.922792434692383,-0.7241238951683044
1,138966,28.902372360229492,14.793703079223633,16.795211791992188,24.81821632385254
1,138969,-12.008774757385254,24.811634063720703,4.422588348388672,-22.73579978942871
1,138970,-22.167631149291992,-28.543323516845703,7.146701335906982,-24.83732032775879
1,138973,9.236828804016113,1.7175970077514648,2.8052616119384766,32.615272521972656
1,138974,6.868043422698975,21.98029136657715,-1.3450008630752563,12.695197105407715
1,138977,-19.978872299194336,-55.66253662109375,-8.04611587524414,-6.758295059204102
1,138978,-15.149702072143555,-1.0663162469863892,-2.4201109409332275,-67.67760467529297
1,138981,31.07508659362793,71.7875747680664,9.065524101257324,-52.0482292175293
1,138982,22.20810317993164,-21.30717658996582,2.6921231746673584,105.60556030273438
1,138985,-33.842124938964844,-44.86178970336914,-12.023622512817383,65.890869140625
1,138986,-6.5363993644714355,9.637950897216797,-18.059282302856445,-67.47118377685547
1,138989,44.066917419433594,44.82889175415039,7.239135265350342,-30.492645263671875
1,138990,6.471391201019287,17.021207809448242,-6.198166370391846,50.18115997314453
1,138993,-33.257225036621094,-17.60494041442871,9.90507984161377,-4.851902961730957
1,138994,-13.950374603271484,-17.61494255065918,24.448701858520508,-5.903302192687988
1,138997,-1.5924878120422363,-47.91282272338867,-37.042537689208984,4.066597938537598
1,138998,-5.513190269470215,-1.612720251083374,-2.27467942237854,-35.23453140258789
1,139001,39.180686950683594,90.81570434570312,47.191734313964844,17.566457748413086
1,139002,15.66291618347168,5.085342884063721,-3.573928117752075,2.805095911026001
1,139005,-43.182464599609375,-83.32345581054688,-23.46253204345703,-16.945749282836914
1,139006,6.15152645111084,6.015398025512695,4.802539348602295,18.525012969970703
1,139009,21.150264739990234,35.55240249633789,15.199828147888184,31.822525024414062
1,139010,3.7829654216766357,2.5310287475585938,-6.803468704223633,-30.422260284423828
1,139013,-13.964751243591309,-7.5623016357421875,-26.525320053100586,-67.04729461669922
1,139015,-17.70569610595703,-9.831744194030762,18.93233871459961,32.95967102050781
1,139017,20.75712776184082,24.443723678588867,8.207002639770508,63.37425231933594
1,139019,0.7063643932342529,0.4216926693916321,-34.32767105102539,-9.903353691101074
1,139021,-13.895686149597168,-35.112091064453125,13.904068946838379,-30.708946228027344
1,139023,10.148995399475098,1.317118763923645,10.923245429992676,0.8600062131881714
1,139025,-4.063185691833496,37.85933303833008,21.252538681030273,11.588467597961426
1,139027,-23.200721740722656,-28.162349700927734,-9.895544052124023,-9.870115280151367
1,139029,12.559799194335938,-33.000816345214844,-52.284908294677734,-20.322126388549805
1,139031,7.520615100860596,34.75160217285156,25.70665168762207,40.3975944519043
1,139033,-28.260873794555664,-3.8436880111694336,3.8141841888427734,14.56428337097168
1,139035,30.22080421447754,2.5445396900177,-26.906129837036133,-58.01433181762695
1,139036,44.582645416259766,27.373971939086914,35.31682586669922,31.33081817626953
1,139039,-23.44329071044922,-16.865062713623047,45.83358383178711,51.44698715209961
1,139041,-49.892311096191406,-29.11943244934082,-27.341814041137695,-45.59355163574219
1,139043,3.9158146381378174,36.105323791503906,-51.53411865234375,-88.73446655273438
1,139045,18.390066146850586,22.677406311035156,26.0385684967041,27.56839370727539
1,139047,-28.490619659423828,-61.63996887207031,28.759084701538086,101.73271942138672
1,139049,31.41229248046875,-2.66731333732605,-3.5121243000030518,-35.819244384765625
1,139051,41.365230560302734,63.10399627685547,9.555549621582031,-15.033561706542969
1,139053,-7.388626575469971,-16.613264083862305,-5.748047351837158,30.93242073059082
1,139055,-23.744266510009766,-38.46503448486328,-7.375021457672119,-55.81865692138672
1,139057,-35.731300354003906,22.54985237121582,-3.9586849212646484,25.347124099731445
1,139059,27.049503326416016,18.54025650024414,-25.03386878967285,52.62648010253906
1,139061,29.061941146850586,-4.092809200286865,9.440678596496582,-75.58541107177734
1,139063,-23.54901695251465,-20.47350311279297,28.59847640991211,-15.007279396057129
1,139065,-6.024484634399414,-5.360406398773193,-14.446197509765625,75.69168853759766
1,139067,7.409871578216553,34.67830276489258,-22.605024337768555,-19.192668914794922
1,139069,-10.05755615234375,-9.425590515136719,-19.372318267822266,-45.44150924682617
1,139071,-13.518003463745117,-28.511301040649414,6.82084846496582,19.804183959960938
1,139073,1.9074465036392212,21.447324752807617,29.334562301635742,37.50441360473633
1,139075,5.549254894256592,-3.9646928310394287,-9.112075805664062,-37.231468200683594
1,139077,-5.626523494720459,-32.804290771484375,8.296422958374023,-20.597742080688477
1,139079,12.556167602539062,14.558480262756348,11.514999389648438,40.386680603027344
1,139081,12.791668891906738,46.230674743652344,-31.871997833251953,-6.5873026847839355
1,139083,5.340505599975586,-9.842169761657715,6.819510459899902,-6.7888970375061035
1,139085,11.491825103759766,-24.87935447692871,33.26717758178711,-6.476186752319336
1,139087,-18.36781883239746,-13.452521324157715,1.6190707683563232,20.36098289489746
1,139089,-19.0235652923584,-17.39333152770996,-26.153270721435547,-10.184335708618164
1,139091,14.341388702392578,25.365903854370117,16.177217483520508,-30.294448852539062
1,139093,16.97947120666504,8.691408157348633,5.461630821228027,25.18095588684082
1,139095,-7.96326208114624,-17.95244789123535,-46.24886703491211,13.044943809509277
1,139097,-29.507160186767578,5.221944808959961,17.249292373657227,-14.859435081481934
1,139099,-14.769997596740723,10.225873947143555,18.333452224731445,-20.509475708007812
1,139101,15.249269485473633,-11.783323287963867,-24.732803344726562,58.867042541503906
1,139103,53.157318115234375,40.87865447998047,23.1467227935791,12.278555870056152
1,139105,11.085817337036133,10.541648864746094,30.92814064025879,-75.36015319824219
1,139107,-74.99308013916016,-56.212486267089844,-40.6355094909668,16.46247100830078
1,139109,-8.849560737609863,31.761474609375,-17.868099212646484,12.20007038116455
1,139111,14.947891235351562,-11.84432315826416,21.67317008972168,-38.137996673583984
1,139113,5.154905319213867,-21.610267639160156,10.869388580322266,29.716047286987305
1,139115,57.758609771728516,79.36329650878906,13.525758743286133,42.71944046020508
1,139117,-14.49144172668457,-7.941203594207764,-8.662358283996582,-33.916561126708984
1,139119,-32.74494552612305,-74.88306427001953,-24.296123504638672,-26.531566619873047
1,139121,-3.1541478633880615,-20.059871673583984,-26.31261444091797,15.609672546386719
1,139123,-5.925854682922363,15.80023193359375,3.247445583343506,14.42970085144043
1,139125,33.33332824707031,43.707763671875,46.187801361083984,23.466941833496094
1,139127,-29.72028160095215,-25.263153076171875,15.356636047363281,-5.523499965667725
1,139129,-21.770387649536133,-31.211545944213867,-27.020280838012695,-36.23973083496094
1,139131,47.10047149658203,48.73973083496094,7.464056968688965,8.11586856842041
1,139133,-8.682783126831055,19.832300186157227,-9.47803783416748,18.85853385925293
1,139135,-7.3680338859558105,-18.53241539001465,-19.091142654418945,-10.741840362548828
1,139137,1.2553068399429321,-17.831815719604492,18.617687225341797,-1.0294952392578125
1,139139,-6.149620056152344,1.804434895515442,0.3802691400051117,11.182367324829102
1,139141,22.198333740234375,1.5150740146636963,-0.992619514465332,-18.772674560546875
1,139143,-4.40667200088501,5.3591532707214355,1.3425861597061157,-38.1010627746582
1,139145,-1.7563538551330566,33.248138427734375,8.015448570251465,25.488195419311523
1,139147,1.6107914447784424,-6.558979511260986,8.882017135620117,32.233158111572266
1,139149,-7.211605548858643,-59.230812072753906,-22.12761878967285,22.199745178222656
1,139151,20.01849937438965,15.49769401550293,-16.196577072143555,2.3515777587890625
1,139153,-19.12922477722168,37.50248718261719,-4.491888999938965,-61.091033935546875
1,139155,-35.470401763916016,-47.22945785522461,-4.783587455749512,15.530157089233398
1,139157,15.714494705200195,-6.820975303649902,34.774295806884766,18.611814498901367
1,139159,7.247270107269287,56.727691650390625,22.877225875854492,-28.99251365661621
1,139161,17.800954818725586,4.578345775604248,-34.30445098876953,30.295827865600586
1,139163,19.821989059448242,-12.041816711425781,17.04649543762207,18.020116806030273
1,139165,-40.43950653076172,-5.5674872398376465,21.928468704223633,8.17874526977539
1,139167,-8.888339042663574,-46.3475341796875,-44.84967041015625,-46.95735549926758
1,139170,41.87213897705078,7.568227767944336,6.382162570953369,-36.19792556762695
1,139171,-7.488588809967041,29.181856155395508,22.569408416748047,86.94949340820312
1,139172,-41.71445083618164,-20.32459831237793,-39.75775909423828,-4.074761867523193
1,139175,6.843047142028809,53.63261795043945,7.156924724578857,-91.80152130126953
1,139176,34.76802444458008,42.600589752197266,66.69316864013672,25.90732192993164
1,139179,9.414877891540527,-65.41519927978516,-25.564716339111328,66.45341491699219
1,139180,-30.685630798339844,-50.55814743041992,-58.3988037109375,-39.88083267211914
1,139183,-19.568323135375977,17.811031341552734,10.27121639251709,-21.030641555786133
1,139184,21.63438606262207,16.762279510498047,-5.34285831451416,21.0391902923584
1,139187,6.704609394073486,-0.2820069193840027,25.373302459716797,-26.45468521118164
1,139188,5.713166236877441,17.158960342407227,33.74934005737305,7.29128885269165
1,139191,-0.4767807424068451,6.43117618560791,-34.78974533081055,51.69621658325195
1,139192,-15.376208305358887,4.936368465423584,0.31846705079078674,9.324872016906738
1,139195,15.602265357971191,-13.356812477111816,17.9810733795166,-36.578338623046875
1,139196,3.949864625930786,-52.94287872314453,2.470308542251587,-22.255184173583984
1,139199,-18.5307674407959,-11.893415451049805,-5.822985649108887,8.997617721557617
1,139200,-10.842582702636719,66.7752456665039,-11.678897857666016,34.88384246826172
1,139203,5.577489852905273,27.911705017089844,1.832706093788147,-13.793285369873047
1,139204,29.29578399658203,-52.16519546508789,-15.576403617858887,-19.670055389404297
1,139207,-0.666881263256073,-8.275354385375977,14.616808891296387,11.78482723236084
1,139208,-12.529946327209473,25.236530303955078,16.47772979736328,-33.7255859375
1,139211,-15.176445960998535,11.379469871520996,-26.081907272338867,5.361297607421875
1,139212,-31.666105270385742,23.987205505371094,-8.001482009887695,47.559940338134766
1,139215,18.15696907043457,16.718250274658203,21.14973258972168,-25.137060165405273
1,139216,42.254547119140625,-19.599346160888672,0.1540982723236084,-45.98300552368164
1,139219,5.059966564178467,-58.882083892822266,-25.395782470703125,31.771806716918945
1,139220,-2.931622266769409,-17.403568267822266,18.03891944885254,59.200565338134766
1,139223,25.83995819091797,1.2803789377212524,28.59437370300293,-2.417653799057007
1,139224,-19.523229598999023,-37.73085021972656,-21.761024475097656,-43.155723571777344
1,139227,-63.100547790527344,86.39340209960938,-10.577437400817871,-13.662806510925293
1,139228,-2.8057427406311035,102.75950622558594,19.44817543029785,47.01938247680664
1,139231,53.35453796386719,-95.08412170410156,-15.198317527770996,3.3153903484344482
1,139232,46.416099548339844,-105.2480697631836,-25.041481018066406,-77.85102081298828
1,139235,3.612112522125244,5.093392848968506,26.617610931396484,45.9992790222168
1,139236,-73.45388793945312,2.328139066696167,14.71642780303955,44.59138870239258
1,139239,-73.2054443359375,59.43313217163086,-16.852088928222656,-79.5649185180664
1,139240,32.181880950927734,81.82122802734375,3.9120497703552246,8.392187118530273
1,139243,64.70448303222656,-35.145477294921875,-3.849024534225464,66.77676391601562
1,139244,8.971186637878418,-27.70250701904297,-6.202678680419922,-13.326135635375977
1,139247,-59.7238883972168,6.841273784637451,9.45075511932373,-89.1767349243164
1,139248,16.508121490478516,7.849427223205566,5.011181354522705,3.841254949569702
1,139251,60.218788146972656,0.9451685547828674,0.708204984664917,40.94853210449219
1,139252,-38.09375,-7.016869068145752,-12.069944381713867,-16.411283493041992
1,139255,-7.451396465301514,-1.662964105606079,3.4369935989379883,34.63141632080078
1,139256,6.5239410400390625,24.938337326049805,20.358366012573242,2.2151856422424316
1,139259,0.4649368226528168,86.32317352294922,6.571735382080078,-30.031057357788086
1,139260,44.586334228515625,-19.361906051635742,-5.926513671875,21.469482421875
1,139263,-53.37106704711914,-139.2252960205078,-57.0542106628418,-19.024967193603516
1,139264,-120.56973266601562,-25.608741760253906,-35.58406448364258,14.310582160949707
1,139267,93.53556060791016,24.241525650024414,68.42037200927734,98.73809814453125
1,139268,130.55487060546875,3.15641188621521,43.971717834472656,-28.929826736450195
1,139271,-109.26193237304688,47.80325698852539,-29.811155319213867,-90.84844207763672
1,139272,-34.539451599121094,-16.35274887084961,-12.51124095916748,20.81304931640625
1,139275,106.2001724243164,-28.985219955444336,14.514881134033203,40.14274215698242
1,139276,1.9552783966064453,7.997201442718506,3.04508900642395,4.694825172424316
1,139279,-18.689836502075195,1.2051546573638916,-7.814633846282959,-27.63544273376465
1,139280,-11.380514144897461,22.65384292602539,-11.467291831970215,-57.1906852722168
1,139283,-51.305355072021484,21.85226058959961,1.7856403589248657,18.7158260345459
1,139284,34.759620666503906,35.17133331298828,15.631661415100098,58.368900299072266
1,139287,12.624009132385254,3.3807244300842285,-2.419715642929077,-29.677824020385742
1,139288,-4.630261421203613,-26.315752029418945,12.954873085021973,2.1199629306793213
1,139291,28.42048454284668,-49.02468490600586,-14.639107704162598,-16.10771942138672
1,139292,-93.48515319824219,-106.64093017578125,-73.60089874267578,-136.32032775878906
1,139295,-76.55245208740234,27.740982055664062,38.837745666503906,120.20904541015625
1,139296,53.057743072509766,114.1241683959961,68.3753890991211,182.97348022460938
1,139299,58.056060791015625,40.04460525512695,-40.37803268432617,-104.25243377685547
1,139300,-27.56380271911621,11.264056205749512,7.629014492034912,-48.41917419433594
1,139303,8.695402145385742,-49.12748336791992,5.809187412261963,18.037429809570312
1,139304,45.46388244628906,12.931721687316895,-22.113515853881836,-47.52396774291992
1,139307,25.915868759155273,63.65951919555664,14.290216445922852,-7.671522617340088
1,139308,52.478675842285156,-5.047989368438721,2.9640724658966064,66.44380187988281
1,139311,-93.10639190673828,-25.13587760925293,5.755612850189209,20.74758529663086
1,139312,-83.05443572998047,-83.7394790649414,-5.6576080322265625,-53.25186538696289
1,139315,117.77014923095703,-37.51511001586914,-13.560224533081055,-2.1267073154449463
1,139316,76.65363311767578,30.89057159423828,2.02211332321167,83.62797546386719
1,139319,-93.78256225585938,-74.66991424560547,65.2802505493164,52.87763595581055
1,139320,-110.97344970703125,-34.06585693359375,-22.713573455810547,-122.67608642578125
1,139323,70.0445327758789,87.24468994140625,-124.34644317626953,-146.24169921875
1,139324,80.61688232421875,70.2116928100586,63.25246810913086,50.279502868652344
1,139327,-48.609352111816406,7.2582855224609375,75.51582336425781,89.18824005126953
1,139328,3.6020355224609375,-51.26835632324219,-57.58937072753906,-6.834011077880859
1,139331,-63.12372589111328,-7.014944076538086,-32.3106575012207,-3.6536712646484375
1,139332,-97.33767700195312,62.04130935668945,9.365334510803223,17.604480743408203
1,139335,132.3355712890625,60.97061538696289,1.3524802923202515,-8.728185653686523
1,139336,104.7964096069336,-13.471299171447754,9.102143287658691,-45.50508117675781
1,139339,-53.584285736083984,-54.37372970581055,34.582664489746094,10.964396476745605
1,139340,-42.086856842041016,-29.496286392211914,-13.646665573120117,58.77924728393555
1,139343,-40.10950469970703,28.83522605895996,3.359858989715576,0.3177534341812134
1,139344,9.267986297607422,42.135250091552734,26.37284278869629,8.30368709564209
1,139347,62.52391815185547,-73.45516204833984,-36.544525146484375,2.091020107269287
1,139348,-2.7874929904937744,-63.100608825683594,-22.98548126220703,-41.83119201660156
1,139351,0.7348445057868958,12.470294952392578,24.01801300048828,17.28594970703125
1,139353,43.68132781982422,16.933700561523438,18.006454467773438,31.966331481933594
1,139355,-37.306217193603516,7.216561794281006,-0.43804213404655457,-61.09809494018555
1,139357,-47.7855224609375,-10.77154541015625,-4.227298736572266,-5.858851432800293
1,139361,15.503670692443848,68.84866333007812,-12.65964412689209,92.43588256835938
1,139361,0.3068443834781647,36.468421936035156,-27.337894439697266,-35.44256591796875
1,139362,-25.033266067504883,-58.79521942138672,-23.770374298095703,-92.87659454345703
1,139365,7.552319049835205,31.887300491333008,48.890602111816406,-12.370330810546875
1,139366,8.449743270874023,-7.092199325561523,58.747520446777344,30.033931732177734
1,139369,18.642057418823242,-107.88947296142578,-23.774696350097656,66.88350677490234
1,139370,63.45068359375,-39.25870132446289,-27.165863037109375,44.0651741027832
1,139373,-46.02578353881836,54.404502868652344,2.1652543544769287,-20.372291564941406
1,139374,-91.91824340820312,64.27582550048828,-13.914280891418457,-34.008934020996094
1,139377,13.855907440185547,98.33660125732422,-22.823427200317383,-62.55121612548828
1,139378,36.67250442504883,41.95256042480469,-2.35198712348938,-54.496028900146484
1,139381,4.007504463195801,-188.75804138183594,-0.8465225100517273,42.733585357666016
1,139382,-7.669072151184082,-5.3905558586120605,23.305255889892578,117.8953857421875
1,139385,26.037616729736328,151.84210205078125,-7.583551406860352,21.601533889770508
1,139386,-1.4547514915466309,-216.3399658203125,-29.619773864746094,-116.60356140136719
1,139389,-63.062049865722656,-82.691650390625,63.26137161254883,70.19171142578125
1,139390,21.76502227783203,320.79864501953125,37.54798126220703,111.70838928222656
1,139393,99.64215850830078,42.49885940551758,-41.268943786621094,-132.3656768798828
1,139394,29.319873809814453,-217.333984375,-21.870357513427734,-144.98606872558594
1,139397,-60.68783950805664,85.85970306396484,23.494550704956055,12.949950218200684
1,139398,-99.10626983642578,219.27938842773438,27.71026611328125,54.59343719482422
1,139401,-49.57836151123047,-183.4339599609375,-29.282594680786133,37.36127853393555
1,139402,46.922210693359375,-283.8681335449219,-33.84672927856445,101.0149154663086
1,139405,67.66632843017578,-38.799415588378906,-42.70164489746094,23.573963165283203
1,139406,61.380714416503906,82.0660400390625,-26.7591495513916,-32.48259735107422
1,139409,-12.302253723144531,253.09495544433594,89.50763702392578,-16.175596237182617
1,139410,-85.1810302734375,183.18032836914062,60.08908462524414,-124.43012237548828
1,139413,17.0627384185791,-186.1127166748047,-28.947872161865234,-35.25482940673828
1,139414,56.790733337402344,-190.69639587402344,-12.967056274414062,154.28700256347656
1,139417,4.53430700302124,2.1210741996765137,-30.21919822692871,57.28510665893555
1,139418,40.27886962890625,9.965073585510254,17.48545265197754,-2.48039174079895
1,139421,-30.872665405273438,139.6405487060547,18.872488021850586,-80.87305450439453
1,139422,-34.50327682495117,134.9471435546875,-19.662614822387695,-129.27230834960938
1,139425,53.66291046142578,-17.918392181396484,7.411126613616943,67.0947265625
1,139426,-49.0424690246582,-57.39056396484375,-12.19947624206543,36.93069839477539
1,139429,-160.6097412109375,-39.27035140991211,35.99557113647461,-40.88471221923828
1,139430,-63.63724899291992,0.7008298635482788,-4.825865268707275,74.86416625976562
1,139433,199.06533813476562,-78.53382110595703,-53.056297302246094,71.8748779296875
1,139434,105.63423919677734,-57.887229919433594,-6.230323314666748,-9.189979553222656
1,139437,-166.2578887939453,12.925025939941406,-61.62648391723633,-131.81179809570312
1,139438,-19.7445068359375,-146.577880859375,-29.492578506469727,-80.55259704589844
1,139441,192.3003692626953,-68.83220672607422,95.77336883544922,168.8524169921875
1,139442,27.809642791748047,198.03028869628906,44.10469436645508,-6.859096527099609
1,139445,-209.7427215576172,308.4516906738281,24.759544372558594,-59.798458099365234
1,139446,0.588037371635437,41.43476867675781,73.00445556640625,78.70266723632812
1,139449,160.143798828125,-376.8187255859375,-41.51633834838867,-106.37549591064453
1,139450,-79.8067398071289,-50.0506706237793,-81.04945373535156,-51.76505661010742
1,139453,-66.7708969116211,246.4938201904297,-106.02963256835938,121.85354614257812
1,139454,90.25724792480469,-20.111528396606445,-49.85791015625,14.701946258544922
1,139457,-23.948646545410156,-97.64761352539062,145.9219970703125,-112.30792236328125
1,139458,-78.15336608886719,-1.559180736541748,61.96485900878906,11.556469917297363
1,139461,84.9361801147461,89.70948791503906,1.9306045770645142,142.35984802246094
1,139462,68.93659210205078,56.556758880615234,46.09769821166992,14.571674346923828
1,139465,-46.21205139160156,-101.136474609375,-34.94868850708008,-94.502685546875
1,139466,-12.099985122680664,-93.56513214111328,-57.45219802856445,-14.00643253326416
1,139469,-48.10747528076172,76.36915588378906,-30.26889419555664,5.212208271026611
1,139470,0.7592966556549072,64.32563018798828,21.93047332763672,4.70148229598999
1,139473,34.406673431396484,-59.56062698364258,24.19774627685547,1.8689913749694824
1,139474,-62.7783088684082,26.468868255615234,5.194554805755615,4.908729076385498
1,139477,67.3565673828125,25.758840560913086,15.565544128417969,70.39421844482422
1,139478,77.23322296142578,-136.04237365722656,-53.90239715576172,-43.781795501708984
1,139481,-115.6168212890625,-26.32712173461914,-11.738288879394531,-15.93175220489502
1,139482,-90.81595611572266,155.18141174316406,33.69939041137695,27.796646118164062
1,139485,86.30615234375,-5.4309563636779785,-22.767148971557617,-68.69800567626953
1,139486,84.94669342041016,-146.4020233154297,-7.640974998474121,15.30350399017334
1,139489,-42.963863372802734,110.0969467163086,9.376410484313965,13.514452934265137
1,139490,42.90723419189453,187.42282104492188,35.29593276977539,31.45718765258789
1,139493,-71.39334869384766,-214.2798309326172,-51.765464782714844,-98.8109130859375
1,139495,-147.1033935546875,-85.95780944824219,3.312427520751953,-48.48792266845703
1,139497,219.8002166748047,146.13160705566406,108.6650390625,207.05499267578125
1,139499,137.9209747314453,-182.34266662597656,-84.17089080810547,-49.216129302978516
1,139501,-233.87823486328125,175.88941955566406,-22.610151290893555,-73.30866241455078
1,139503,-109.55896759033203,210.6659393310547,81.43675231933594,87.02383422851562
1,139505,99.46540832519531,-326.8873291015625,-81.64656066894531,-45.7116584777832
1,139507,72.52772521972656,-16.580751419067383,-41.15461730957031,-68.12604522705078
1,139509,53.377464294433594,106.41656494140625,54.65044403076172,88.04749298095703
1,139511,-43.6396484375,15.326900482177734,11.545228958129883,43.23512649536133
1,139513,-104.61660766601562,86.7374038696289,-31.11095428466797,-116.5257797241211
1,139515,19.770788192749023,-87.695068359375,-14.041035652160645,-19.42693328857422
1,139517,143.81227111816406,-151.30154418945312,86.89947509765625,106.3350830078125
1,139519,96.18312072753906,39.864532470703125,48.17100524902344,70.416748046875
1,139521,-192.5433807373047,223.12437438964844,-67.28248596191406,-138.5734100341797
1,139523,-134.07797241210938,31.747838973999023,-18.074077606201172,-76.7999267578125
1,139525,134.59738159179688,-196.36721801757812,-18.57417869567871,210.9204864501953
1,139527,35.60563659667969,-127.95823669433594,-45.17725372314453,43.465904235839844
1,139529,-63.70901107788086,112.16871643066406,7.29054594039917,-241.87472534179688
1,139531,-2.648763418197632,147.92774963378906,28.335826873779297,-61.483314514160156
1,139533,28.778947830200195,-99.74877166748047,68.1038589477539,204.63125610351562
1,139535,-13.710531234741211,-78.88872528076172,10.378456115722656,71.30641174316406
1,139537,-20.396196365356445,74.27020263671875,-59.727020263671875,-95.22559356689453
1,139539,1.0450881719589233,88.1744155883789,-9.381659507751465,-90.77153015136719
1,139541,64.28343200683594,55.05230712890625,12.049600601196289,-28.99074363708496
1,139543,44.450965881347656,-150.19744873046875,20.329923629760742,79.291259765625
1,139545,-75.37837982177734,-134.30300903320312,-0.20727789402008057,82.60948181152344
1,139547,-17.76030731201172,94.81777954101562,-24.532880783081055,-76.37452697753906
1,139549,48.246124267578125,36.73527908325195,6.489541053771973,-27.083660125732422
1,139551,-0.8179175853729248,40.829105377197266,31.55082130432129,100.89315795898438
1,139553,-12.832342147827148,28.814302444458008,-1.6262778043746948,-29.013931274414062
1,139555,-18.920106887817383,-74.2464370727539,-35.53217315673828,-38.43383026123047
1,139557,-32.45981979370117,63.19569778442383,-1.9448961019515991,-51.53782653808594
1,139559,-17.865751266479492,70.04527282714844,4.913484573364258,-37.20343780517578
1,139561,21.871976852416992,-168.39712524414062,-41.30069351196289,115.12593841552734
1,139563,69.69581604003906,-70.28865814208984,-6.776615142822266,48.732242584228516
1,139565,16.046463012695312,116.1984634399414,54.89870071411133,-54.82489776611328
1,139567,-60.91867446899414,-6.24349308013916,1.433823585510254,-35.546871185302734
1,139569,-12.78003215789795,-1.3535062074661255,-39.84408950805664,9.444092750549316
1,139571,1.0482038259506226,60.12541198730469,8.508965492248535,-0.34679895639419556
1,139573,40.24309158325195,6.020275592803955,52.21333312988281,-4.040018558502197
1,139575,48.585601806640625,-6.553898334503174,28.390880584716797,16.400619506835938
1,139577,-86.6601791381836,-31.124906539916992,-39.4184684753418,-17.643068313598633
1,139579,-11.872387886047363,-3.8442230224609375,-14.309059143066406,41.20979309082031
1,139581,77.0871353149414,16.167016983032227,18.533466339111328,19.14244270324707
1,139583,-37.37068557739258,-26.98584747314453,-34.82381057739258,-83.15435028076172
1,139585,-28.770212173461914,-12.832411766052246,-11.53064250946045,-18.95956802368164
1,139587,35.52034378051758,2.326228380203247,18.854530334472656,43.55098342895508
1,139589,-25.51321792602539,-12.590127944946289,-15.257654190063477,-27.321142196655273
1,139591,-22.241437911987305,4.500728607177734,-0.1082434132695198,-6.758047103881836
1,139593,22.97966766357422,26.53754234313965,32.493831634521484,54.4438362121582
1,139595,11.158638954162598,27.422401428222656,3.851280689239502,-15.421805381774902
1,139597,-11.406804084777832,-13.155029296875,-9.63024616241455,31.31121063232422
1,139599,-24.098953247070312,-65.11964416503906,-0.15824167430400848,32.44944763183594
1,139601,31.09165382385254,24.099864959716797,-11.746822357177734,-52.28379440307617
1,139603,108.97492218017578,82.71141815185547,14.871240615844727,-28.953550338745117
1,139605,-44.412208557128906,-29.056062698364258,13.383710861206055,31.41813087463379
1,139607,-153.09463500976562,-56.12258529663086,-3.4070188999176025,15.206562995910645
1,139609,62.8730354309082,3.5162460803985596,-4.460283279418945,-32.61037063598633
1,139611,70.54228210449219,18.192584991455078,-5.676825046539307,26.904464721679688
1,139613,-20.06576919555664,19.570453643798828,12.901342391967773,10.373798370361328
1,139615,-5.505980014801025,0.3583061993122101,-1.943167805671692,-35.727535247802734
1,139617,-47.09409713745117,-16.196443557739258,-22.13018226623535,16.421911239624023
1,139619,-19.345172882080078,-16.583724975585938,-26.749765396118164,18.28852653503418
1,139621,16.460723876953125,-34.584739685058594,-7.935727596282959,-55.71807098388672
1,139623,5.65922737121582,16.46966552734375,17.927541732788086,-54.0601806640625
1,139625,10.8466796875,64.60478210449219,29.460996627807617,93.88491821289062
1,139627,28.5213565826416,5.045773029327393,23.456954956054688,70.45671081542969
1,139629,23.480838775634766,-20.224157333374023,-17.941375732421875,-118.56204986572266
1,139631,-11.644227027893066,-21.174026489257812,-28.00010871887207,-10.974238395690918
1,139633,7.277286052703857,0.7237446904182434,20.603429794311523,98.99446868896484
1,139635,-11.551836967468262,10.058464050292969,21.984947204589844,-13.663841247558594
1,139637,-42.1037483215332,2.4495019912719727,-28.145151138305664,-27.669355392456055
1,139639,17.77005958557129,22.151750564575195,-12.909886360168457,-25.326519012451172
1,139641,-8.567068099975586,-4.773979187011719,14.978351593017578,-44.76443099975586
1,139643,-20.13787078857422,-44.989845275878906,-24.558685302734375,29.658950805664062
1,139645,56.6684684753418,6.942236423492432,-5.395349502563477,77.08842468261719
1,139647,10.002848625183105,39.99169921875,33.82447052001953,-6.270511627197266
1,139650,-55.847721099853516,-46.02866744995117,-18.03451156616211,-84.3506088256836
1,139651,16.882526397705078,-4.445745468139648,0.805418074131012,14.152731895446777
1,139652,34.812808990478516,30.05311393737793,27.863840103149414,48.12368392944336
1,139655,-32.54145431518555,-52.68824768066406,-11.49240493774414,-54.54740524291992
1,139656,-22.936004638671875,7.167372226715088,-31.309045791625977,22.271320343017578
1,139659,9.918853759765625,56.513607025146484,5.033380508422852,51.10729217529297
1,139660,8.537856101989746,1.9279041290283203,62.64345169067383,-48.15541076660156
1,139663,12.473788261413574,-21.542016983032227,3.7729203701019287,30.05729103088379
1,139664,5.08990478515625,8.940913200378418,-39.256656646728516,37.4318962097168
1,139667,-1.9043458700180054,40.28800582885742,12.36241626739502,-67.2906723022461
1,139668,-3.8089630603790283,-37.66142272949219,-4.993333339691162,-16.556238174438477
1,139671,-11.739562034606934,-54.472530364990234,-39.053707122802734,61.308349609375
1,139672,-14.822553634643555,16.872573852539062,-15.320144653320312,44.7120475769043
1,139675,-14.642611503601074,33.23494338989258,10.798559188842773,-93.14289855957031
1,139676,27.936613082885742,27.252174377441406,26.868186950683594,-59.7839469909668
1,139679,57.228275299072266,4.111499786376953,21.004467010498047,83.36373138427734
1,139682,-35.073753356933594,-25.165340423583984,-22.63776206970215,-24.596633911132812
1,139683,-34.83083724975586,-24.89666175842285,-10.566665649414062,-35.886966705322266
1,139684,44.14358139038086,20.833492279052734,34.26406478881836,63.032012939453125
1,139687,-8.795557022094727,25.630327224731445,3.507692575454712,35.999961853027344
1,139688,-11.16512680053711,-24.794851303100586,-16.557226181030273,-12.76588249206543
1,139691,8.65847110748291,-20.73409652709961,-5.617107391357422,-54.97683334350586
1,139692,-21.074840545654297,-3.316814661026001,-9.333847999572754,-1.7808637619018555
1,139695,0.2293480783700943,0.33350518345832825,4.027816295623779,21.453689575195312
1,139696,24.018619537353516,11.794100761413574,26.056623458862305,-25.492778778076172
1,139699,7.8245530128479,9.743501663208008,17.683469772338867,41.645729064941406
1,139700,-18.95772361755371,14.4290771484375,-16.20378303527832,10.049897193908691
1,139703,-21.95820426940918,-24.617225646972656,-48.39151382446289,-41.79864501953125
1,139704,6.15539026260376,-30.57890510559082,-5.939591407775879,25.325925827026367
1,139707,18.16774559020996,29.177743911743164,24.16274642944336,-32.8336067199707
1,139708,-6.417201519012451,16.1223201751709,1.2714018821716309,-49.32091522216797
1,139711,-14.592273712158203,-17.280004501342773,18.73259925842285,87.34790802001953
1,139712,8.222658157348633,8.528072357177734,-10.516468048095703,58.4222412109375
1,139715,16.744232177734375,27.913667678833008,3.9504294395446777,-58.76289749145508
1,139716,3.777745485305786,10.538972854614258,31.514698028564453,-16.218515396118164
1,139719,-18.93842887878418,-38.00699234008789,-58.69264602661133,24.47909164428711
1,139720,-16.880271911621094,-17.419273376464844,-23.568077087402344,-4.352822303771973
1,139723,25.77349281311035,25.60843276977539,62.5827522277832,-34.161338806152344
1,139724,3.931549549102783,3.2096102237701416,-16.376529693603516,-20.78598403930664
1,139727,-20.749013900756836,1.7949992418289185,3.8489456176757812,33.57415771484375
1,139728,8.83047103881836,-15.15822982788086,49.000728607177734,-4.709195137023926
1,139731,15.118513107299805,-27.025257110595703,-64.01165008544922,0.9679341316223145
1,139732,8.229985237121582,-10.288128852844238,-63.90428161621094,29.053722381591797
1,139735,-7.975764274597168,33.361412048339844,39.12077713012695,-12.236342430114746
1,139736,-16.423616409301758,29.736631393432617,50.34429168701172,5.891924858093262
1,139739,-1.3469691276550293,-26.548095703125,-0.04522324725985527,-23.050657272338867
1,139740,21.694351196289062,2.3734169006347656,-1.2397749423980713,-21.91220474243164
1,139743,3.028768539428711,7.657723903656006,0.524936318397522,61.532196044921875
1,139744,-21.54326057434082,-14.869711875915527,-16.772077560424805,55.34609603881836
1,139747,-3.2906265258789062,-16.329492568969727,-6.21403169631958,-95.20375061035156
1,139748,-20.751136779785156,-3.7912375926971436,-15.14714241027832,-114.35286712646484
1,139751,7.020614147186279,47.882686614990234,24.46893310546875,105.63684844970703
1,139752,47.106712341308594,15.158693313598633,27.09139060974121,59.7977180480957
1,139755,-2.1178836822509766,-36.35716247558594,-33.68272018432617,-52.53108215332031
1,139756,-23.466609954833984,1.7261109352111816,-2.491501808166504,18.95085334777832
1,139759,-14.634918212890625,-13.835329055786133,4.201478004455566,-18.95999526977539
1,139760,7.332716941833496,-21.752281188964844,13.956647872924805,-5.185635089874268
1,139763,20.798629760742188,39.7017822265625,9.290619850158691,20.42089080810547
1,139764,10.803396224975586,11.21877670288086,-18.22731590270996,0.42725905776023865
1,139767,1.1299394369125366,-21.027315139770508,25.30240821838379,17.032682418823242
1,139768,-17.17344856262207,-3.368597984313965,-9.478395462036133,-32.46528244018555
1,139771,-35.57868194580078,-15.346648216247559,-25.634279251098633,-13.55831527709961
1,139772,-5.979970455169678,8.638495445251465,-14.183727264404297,45.32561492919922
1,139775,21.555004119873047,23.469459533691406,-24.516326904296875,-22.30996322631836
1,139776,0.885338544845581,-7.906143665313721,44.36833572387695,-33.70073318481445
1,139779,6.499515056610107,-8.483598709106445,37.57367706298828,45.95426559448242
1,139780,15.12890625,2.857311248779297,-36.655784606933594,45.47503662109375
1,139783,-15.668014526367188,-7.8393025398254395,-42.18134689331055,-49.69780349731445
1,139784,-39.19894790649414,0.1335192620754242,15.728245735168457,-39.89763259887695
1,139787,24.911701202392578,43.164005279541016,60.677364349365234,61.4652099609375
1,139788,58.125919342041016,15.164653778076172,16.64664077758789,29.54240608215332
1,139791,-0.29761096835136414,-18.85368537902832,-32.3382682800293,-86.42039489746094
1,139792,-23.585399627685547,-4.801671504974365,-18.278545379638672,-12.139103889465332
1,139795,-20.497081756591797,-21.61785888671875,19.33976936340332,62.08243179321289
1,139796,5.058021545410156,-37.93889236450195,-11.066056251525879,-41.32292175292969
1,139799,11.203351974487305,3.396876573562622,-31.45989418029785,-39.40221405029297
