Aktueller Finger,timestamp_ms,sensor_0,sensor_1,sensor_2,sensor_3
0,323977,6.896069049835205,15.162495613098145,-11.077613830566406,-26.707509994506836
0,323979,-40.814693450927734,-4.2281365394592285,-31.729482650756836,-133.67941284179688
0,323981,-20.08183479309082,-24.514575958251953,-30.230514526367188,-37.21876525878906
0,323983,51.30378723144531,-1.246796727180481,49.62372589111328,101.9457015991211
0,323985,23.62866973876953,-8.377253532409668,-0.9742985963821411,30.739730834960938
0,323987,-42.0747184753418,25.49563217163086,17.872482299804688,-11.224800109863281
0,323989,9.843830108642578,18.74277114868164,46.79186248779297,26.876720428466797
0,323991,5.362279891967773,-6.127946853637695,-40.36833190917969,1.5602141618728638
0,323993,-23.229772567749023,-0.94964998960495,-39.487892150878906,-0.04486513510346413
0,323995,0.02667808160185814,-24.96575164794922,6.477822780609131,-22.455585479736328
0,323997,-13.419713020324707,-15.975711822509766,4.15924596786499,-41.78903579711914
0,323999,10.280332565307617,8.020153999328613,6.684595584869385,48.22584915161133
0,324001,24.889877319335938,18.273237228393555,-4.998878479003906,18.55156135559082
0,324003,12.152287483215332,21.749746322631836,-12.882579803466797,-9.821746826171875
0,324005,-3.1432387828826904,-29.273221969604492,29.8961181640625,40.42829513549805
0,324007,-26.754533767700195,-13.49536418914795,9.008777618408203,-107.17965698242188
0,324009,-8.924894332885742,23.391010284423828,-34.30084228515625,-72.61888885498047
0,324011,17.941734313964844,-4.195778846740723,19.69016456604004,137.41241455078125
0,324013,7.033661365509033,7.653580665588379,23.32972526550293,14.250238418579102
0,324015,-23.42226791381836,-7.798655986785889,-36.77170181274414,-88.37612915039062
0,324017,-7.808140754699707,-1.268538475036621,-2.832113742828369,59.27727127075195
0,324019,22.42779541015625,30.310470581054688,37.23009490966797,48.07418441772461
0,324021,34.096370697021484,0.8600091338157654,0.14121901988983154,-52.12112808227539
0,324023,-24.725128173828125,-22.24979591369629,-28.719097137451172,-33.67532730102539
0,324025,-39.618141174316406,-22.211368560791016,-17.580726623535156,23.095027923583984
0,324027,32.584938049316406,2.4623003005981445,-0.5976287126541138,53.63735580444336
0,324029,25.54218864440918,23.972057342529297,-0.11323443055152893,-18.446216583251953
0,324031,2.914449691772461,-3.326282501220703,-7.957863807678223,-72.0312728881836
0,324033,-0.9120039939880371,-8.808257102966309,21.781143188476562,13.462770462036133
0,324035,-12.768316268920898,24.64531898498535,30.898731231689453,59.076866149902344
0,324037,-6.793614387512207,-2.476060390472412,-35.023040771484375,-3.446380853652954
0,324039,-17.119049072265625,-42.91313552856445,-6.640095233917236,-14.08010482788086
0,324041,-22.613563537597656,-13.040223121643066,46.33656311035156,-9.653172492980957
0,324043,33.372013092041016,54.61420440673828,-8.632020950317383,4.193317413330078
0,324045,20.380664825439453,10.134270668029785,0.11066687107086182,43.76817321777344
0,324047,-38.23640441894531,-56.949039459228516,-6.116153717041016,-32.266845703125
0,324049,-16.018291473388672,0.07379662990570068,-42.10956954956055,-67.32872009277344
0,324051,35.17213439941406,22.477588653564453,22.22773551940918,83.63771057128906
0,324053,2.361765146255493,-14.197388648986816,33.20205307006836,32.713130950927734
0,324055,-23.879703521728516,14.214452743530273,6.47968053817749,-116.1122817993164
0,324057,30.839323043823242,47.313716888427734,-20.57978630065918,19.523298263549805
0,324059,-13.735794067382812,-19.96137809753418,-29.965564727783203,77.92840576171875
0,324061,-15.406689643859863,-42.06604766845703,-0.20192445814609528,-34.86006164550781
0,324063,24.37101936340332,4.61136531829834,-8.108926773071289,-41.02915573120117
0,324065,-24.79316520690918,20.66329574584961,5.429773330688477,-18.215299606323242
0,324067,-8.866573333740234,2.1998417377471924,14.9703950881958,43.1610107421875
0,324069,13.736695289611816,-26.617895126342773,11.116344451904297,53.56472396850586
0,324071,-0.523182213306427,27.703819274902344,22.780824661254883,-21.388782501220703
0,324073,6.294862747192383,41.11832809448242,-11.386019706726074,-9.92304515838623
0,324075,27.12828254699707,-43.14637756347656,-13.460771560668945,-32.208011627197266
0,324077,19.475210189819336,-9.649075508117676,-2.506351947784424,-17.431842803955078
0,324079,-37.5514030456543,39.29063034057617,-17.578813552856445,23.82520866394043
0,324081,-17.862789154052734,-18.28182601928711,17.08858299255371,11.047607421875
0,324083,25.824007034301758,-18.264728546142578,-6.704140663146973,18.48430633544922
0,324085,-16.364181518554688,-10.025043487548828,-10.431689262390137,-21.721832275390625
0,324087,2.0757088661193848,-2.766144037246704,39.34168243408203,-55.596107482910156
0,324089,18.493389129638672,23.94682502746582,19.40486717224121,31.937410354614258
0,324091,-31.1499080657959,-16.904569625854492,-21.265079498291016,75.3927993774414
0,324093,0.10234362632036209,-19.606542587280273,-30.144906997680664,-7.299455165863037
0,324095,22.322980880737305,27.90203857421875,6.678736209869385,-37.20210647583008
0,324097,-0.930048406124115,-3.5133731365203857,13.015989303588867,-9.38060188293457
0,324099,-20.658649444580078,-57.89161682128906,-31.008798599243164,-27.68971061706543
0,324101,-11.64046573638916,42.911922454833984,0.2606574296951294,3.4723124504089355
0,324103,38.24178695678711,79.09738159179688,52.54780960083008,68.0473403930664
0,324105,19.779333114624023,-49.71335983276367,-0.9023060202598572,5.498493671417236
0,324107,-33.39255142211914,-33.19503402709961,-44.07918930053711,-48.155616760253906
0,324109,-25.902368545532227,28.670555114746094,-20.169475555419922,-23.24966812133789
0,324111,38.20170974731445,4.4850850105285645,14.209861755371094,25.455059051513672
0,324113,23.17181396484375,-1.0853729248046875,7.978913307189941,29.99396514892578
0,324116,-48.399085998535156,-26.476139068603516,-16.794382095336914,-41.97026824951172
0,324117,10.325679779052734,-4.882046222686768,3.386357307434082,-16.422590255737305
0,324118,38.283668518066406,40.211891174316406,27.581212997436523,49.842323303222656
0,324121,-21.837705612182617,2.5468814373016357,29.977502822875977,-3.408719778060913
0,324122,2.821582317352295,-13.531262397766113,-16.10284996032715,-36.83457946777344
0,324125,18.471954345703125,-6.788699626922607,-36.04228973388672,41.27109909057617
0,324126,-21.977285385131836,1.34105384349823,38.1831169128418,35.57805633544922
0,324129,-14.19090461730957,6.424796104431152,9.856701850891113,-74.71443939208984
0,324130,-9.903814315795898,-7.59040641784668,-55.319061279296875,-48.46746063232422
0,324133,-3.397869110107422,5.356239318847656,25.18380355834961,41.8922233581543
0,324134,-10.245576858520508,-24.82550811767578,34.160892486572266,36.66727828979492
0,324137,-9.932799339294434,-9.377843856811523,-27.419109344482422,-5.366231441497803
0,324138,32.857627868652344,38.10020065307617,3.6910619735717773,-6.662818431854248
0,324141,-21.84764862060547,-20.169191360473633,-14.519407272338867,-3.778472661972046
0,324142,-7.146784782409668,-30.10780143737793,-36.8407096862793,-34.3140869140625
0,324145,55.3968391418457,17.906780242919922,22.05016326904297,36.06037902832031
0,324146,-18.18707275390625,30.191326141357422,16.480501174926758,28.422203063964844
0,324149,-16.617427825927734,11.076141357421875,4.331833362579346,-81.962890625
0,324150,44.08847427368164,-21.896682739257812,2.8743512630462646,-14.015349388122559
0,324153,-8.258756637573242,-22.295574188232422,-28.778486251831055,90.35391235351562
0,324154,-26.767152786254883,20.59404754638672,-1.3414008617401123,32.11274337768555
0,324157,29.042753219604492,27.593957901000977,44.5360107421875,-41.49546432495117
0,324158,-2.138235569000244,8.818694114685059,9.134435653686523,-1.2580018043518066
0,324161,-22.986238479614258,-3.3867692947387695,-42.16048812866211,-19.614164352416992
0,324162,-3.9659337997436523,-26.390439987182617,6.103759288787842,-9.98038387298584
0,324168,-15.153724670410156,-6.944019794464111,34.16136932373047,-28.265098571777344
0,324168,-8.423983573913574,-3.950821876525879,-24.815404891967773,-80.52164459228516
0,324169,-4.082752227783203,-2.05348801612854,-14.746699333190918,57.924537658691406
0,324171,47.07668685913086,25.358783721923828,30.37293815612793,155.7015838623047
0,324173,41.88441848754883,-7.9024152755737305,20.16792106628418,78.1675033569336
0,324175,-47.892574310302734,-5.282089710235596,-30.80618667602539,-115.8731689453125
0,324177,-33.34130096435547,10.460065841674805,-20.75758171081543,-108.90228271484375
0,324179,13.383625984191895,-16.817642211914062,24.674699783325195,77.78841400146484
0,324181,21.93117332458496,-16.629011154174805,-11.369232177734375,97.05728912353516
0,324183,-19.366662979125977,21.239482879638672,31.21479034423828,-35.06324768066406
0,324185,-3.1439459323883057,30.01687240600586,14.035581588745117,-88.22247314453125
0,324187,18.010986328125,-45.905250549316406,-103.90145111083984,19.384023666381836
0,324189,-9.645920753479004,-23.28882598876953,20.099027633666992,12.98482608795166
0,324191,4.370329856872559,41.17393493652344,86.2944107055664,-25.926599502563477
0,324193,-33.8122673034668,-8.652504920959473,-56.277835845947266,1.9593353271484375
0,324195,23.31304931640625,-0.521701991558075,-29.513877868652344,-13.255769729614258
0,324197,46.92585754394531,26.14731788635254,37.887149810791016,-33.392234802246094
0,324199,-55.36115264892578,-15.981583595275879,10.939064025878906,-1.742968201637268
0,324201,-26.02490997314453,-36.13149642944336,-9.306802749633789,26.825376510620117
0,324203,63.47742462158203,16.066104888916016,-9.682480812072754,42.38132095336914
0,324205,32.09148406982422,44.7030143737793,15.356505393981934,52.2776985168457
0,324207,-65.1966552734375,-25.711475372314453,-6.802213668823242,-74.17575073242188
0,324209,-37.60440444946289,-40.43832778930664,-39.40745544433594,-74.27417755126953
0,324211,36.665504455566406,42.55326843261719,32.26301574707031,69.38135528564453
0,324213,39.162689208984375,38.40815734863281,60.88164520263672,32.733924865722656
0,324215,-6.516948223114014,-57.8615608215332,-27.424694061279297,-39.669837951660156
0,324217,-34.2049446105957,-0.016718639060854912,-47.07769012451172,-14.090202331542969
0,324219,24.722097396850586,46.109432220458984,19.936431884765625,38.7191276550293
0,324221,13.360297203063965,-32.38623809814453,25.867788314819336,11.17680549621582
0,324223,-30.33737564086914,-3.616325855255127,-0.8354305028915405,-5.716681957244873
0,324225,0.3097296953201294,0.5848429799079895,-11.424201965332031,8.936380386352539
0,324227,-2.9303300380706787,-17.86193084716797,-21.66109848022461,-5.8163323402404785
0,324229,21.34271812438965,37.84724044799805,20.671855926513672,-8.987817764282227
0,324231,4.100459098815918,1.699189305305481,-12.897180557250977,-21.88762664794922
0,324233,-40.955772399902344,-41.77009582519531,-30.407869338989258,-18.059972763061523
0,324235,17.318132400512695,21.022977828979492,34.50843048095703,22.289796829223633
0,324237,19.127792358398438,25.709972381591797,-9.236183166503906,46.8475227355957
0,324239,-17.945892333984375,-35.83672332763672,-1.2478810548782349,-112.26316833496094
0,324241,8.747637748718262,5.757983207702637,30.540817260742188,-97.4220199584961
0,324243,10.965062141418457,36.35696029663086,-16.386707305908203,189.88499450683594
0,324245,-18.798011779785156,-22.262453079223633,-1.5192567110061646,136.40518188476562
0,324247,-4.330273628234863,-18.153167724609375,10.252972602844238,-113.80142974853516
0,324249,21.748178482055664,24.03644371032715,-4.34328556060791,-86.8620376586914
0,324251,-10.992661476135254,-6.500976085662842,-28.82521629333496,28.140148162841797
0,324253,-24.564035415649414,-36.337955474853516,-18.048858642578125,12.933448791503906
0,324255,2.511899948120117,12.983642578125,41.59860610961914,6.98325252532959
0,324257,15.75187873840332,14.114057540893555,6.170555591583252,-17.00217628479004
0,324259,30.29351234436035,-0.38183677196502686,-27.283367156982422,20.184925079345703
0,324261,5.151952266693115,26.28587532043457,16.91336441040039,57.9825325012207
0,324263,-37.735958099365234,7.356002330780029,0.49871665239334106,-41.52975082397461
0,324265,-6.32936429977417,-49.03306198120117,-5.892884254455566,-0.36251193284988403
0,324267,39.636749267578125,11.759737014770508,27.546051025390625,-17.62026596069336
0,324269,-10.416997909545898,42.69013595581055,-10.664091110229492,-56.457618713378906
0,324271,-57.01180648803711,-43.74419021606445,-6.2952070236206055,60.29517364501953
0,324273,10.351714134216309,-4.314222812652588,5.666321277618408,18.769023895263672
0,324275,65.02867889404297,37.3013916015625,-21.50155258178711,-31.93975830078125
0,324277,-6.643454551696777,-21.979026794433594,-8.11382007598877,-12.724732398986816
0,324279,-31.63414764404297,-13.41452407836914,26.4914493560791,9.70903491973877
0,324281,-6.732051372528076,6.99525785446167,-0.007827875204384327,1.075945258140564
0,324283,-9.0613374710083,-17.734424591064453,-43.776573181152344,-27.54113006591797
0,324285,24.975238800048828,17.66388511657715,31.092830657958984,50.03201675415039
0,324287,16.077316284179688,19.66648292541504,33.78787612915039,-5.497935771942139
0,324289,-8.624077796936035,-5.781877517700195,-42.63725662231445,-60.12942123413086
0,324544,-37.05815505981445,-2.952622175216675,-1.8493225574493408,74.39600372314453
0,324546,-11.583288192749023,-10.83232307434082,25.823902130126953,4.073862075805664
0,324548,27.09656524658203,-22.0242977142334,-15.579554557800293,-97.60540771484375
0,324550,11.874679565429688,12.7130126953125,4.755102157592773,68.22225189208984
0,324552,5.393851280212402,55.06248092651367,28.335411071777344,126.60860443115234
0,324554,-17.57244873046875,-14.512128829956055,-5.345439434051514,-54.49787521362305
0,324556,17.88558006286621,-48.951438903808594,-34.38007354736328,-128.52667236328125
0,324559,44.06058883666992,17.760421752929688,4.363649368286133,18.8518009185791
0,324562,2.5921154022216797,18.77448081970215,13.66116714477539,81.99260711669922
0,324562,-47.007041931152344,-28.519237518310547,-15.279167175292969,1.8779057264328003
0,324564,-14.343568801879883,-23.567020416259766,-10.807608604431152,-111.53810119628906
0,324566,26.464664459228516,38.64716339111328,11.476219177246094,-25.639678955078125
0,324568,-45.80271530151367,5.174903869628906,25.99006462097168,123.0317611694336
0,324570,-40.98243713378906,-58.179447174072266,-9.710887908935547,-11.884352684020996
0,324572,45.14801025390625,39.7746467590332,7.929879188537598,-44.787384033203125
0,324574,33.751102447509766,52.338687896728516,7.869720458984375,7.061934471130371
0,324576,-4.604274749755859,-16.870763778686523,-25.649707794189453,10.443282127380371
0,324578,8.38264274597168,-17.778955459594727,-7.047458648681641,26.629350662231445
0,324580,-26.0406551361084,-28.78487205505371,-8.069903373718262,-2.807673931121826
0,324582,-1.412401556968689,11.651507377624512,12.273397445678711,2.0452029705047607
0,324584,37.37454605102539,58.777374267578125,39.808250427246094,0.3576124310493469
0,324586,-31.55938720703125,-26.16103172302246,-27.951765060424805,17.50832748413086
0,324588,3.486698627471924,-60.30012893676758,-25.150659561157227,-13.024735450744629
0,324590,35.652000427246094,50.67890167236328,45.14543914794922,-48.50978088378906
0,324592,-20.631370544433594,25.029176712036133,-18.337970733642578,0.5653811097145081
0,324594,-31.85914421081543,-69.06568908691406,-49.625240325927734,-10.401637077331543
0,324596,-19.44001007080078,-12.150463104248047,-4.26097297668457,8.337825775146484
0,324598,13.57274055480957,59.72254180908203,45.0875129699707,41.52266311645508
0,324600,32.805301666259766,9.753925323486328,34.38314437866211,-12.758882522583008
0,324602,16.771942138671875,-6.57014274597168,-19.796249389648438,-7.519937038421631
0,324604,-4.055213928222656,-0.7834287285804749,-10.309370040893555,21.96465492248535
0,324606,-15.522891998291016,-28.886140823364258,-25.871368408203125,-15.144815444946289
0,324608,5.869107723236084,13.027645111083984,8.81093978881836,-0.5275243520736694
0,324610,14.792975425720215,15.096933364868164,36.99776077270508,21.463836669921875
0,324612,-14.801681518554688,-32.3757438659668,-17.89930534362793,-4.43308687210083
0,324614,-19.76711654663086,-3.624082088470459,-6.2080183029174805,-5.7549147605896
0,324616,-10.039393424987793,21.32532501220703,21.653051376342773,1.0956884622573853
0,324618,5.040292739868164,-14.408568382263184,7.510276794433594,-11.688335418701172
0,324620,4.417573928833008,-2.43403697013855,-39.14622497558594,-36.16127395629883
0,324622,-18.307798385620117,-5.606039047241211,-35.16347122192383,-2.421023368835449
0,324624,29.772668838500977,1.7132829427719116,63.260169982910156,32.647396087646484
0,324626,24.874101638793945,23.228240966796875,-3.921520471572876,-18.94563865661621
0,324628,-34.59737014770508,3.8158533573150635,-61.8870849609375,5.9265875816345215
0,324630,16.785268783569336,10.365891456604004,56.68374252319336,63.51808166503906
0,324632,17.064794540405273,-12.558270454406738,35.330101013183594,-28.92837142944336
0,324634,-35.207923889160156,-26.180097579956055,-46.43709945678711,-60.6562385559082
0,324636,-11.57866382598877,17.920055389404297,-25.760007858276367,12.187715530395508
0,324638,32.07120132446289,35.270240783691406,29.655723571777344,18.321720123291016
0,324640,-17.782211303710938,-9.26735782623291,7.058238506317139,13.054835319519043
0,324642,-17.019807815551758,-32.67538833618164,-5.936398983001709,23.440217971801758
0,324644,39.754207611083984,-14.635372161865234,7.792129039764404,26.58616065979004
0,324646,-18.80015754699707,8.890421867370605,-24.83385467529297,-22.43683624267578
0,324648,10.842255592346191,27.759220123291016,3.6780877113342285,-55.817909240722656
0,324650,12.88362979888916,-2.1018412113189697,19.857744216918945,3.7776942253112793
0,324652,-50.743019104003906,-41.57497024536133,-25.56893539428711,19.32737159729004
0,324654,12.216136932373047,5.5622334480285645,-8.829442024230957,4.301111698150635
0,324656,24.205419540405273,26.71369743347168,23.258705139160156,10.54199504852295
0,324658,1.4632076025009155,-2.2330162525177,-3.7747461795806885,18.570131301879883
0,324660,9.341950416564941,24.786008834838867,8.666577339172363,-29.35235023498535
0,324662,-21.084413528442383,-17.33863639831543,10.07171630859375,-23.844593048095703
0,324664,-0.3186815083026886,-33.12551498413086,-9.875589370727539,58.24235153198242
0,324666,18.424434661865234,32.415992736816406,21.011320114135742,4.57974910736084
0,324668,-13.995675086975098,-5.506330490112305,-15.281783103942871,-90.1793441772461
0,324670,-11.241090774536133,-9.557364463806152,-34.751502990722656,-20.56887435913086
0,324672,-2.758957862854004,15.061810493469238,14.25281810760498,98.91381072998047
0,324674,20.873920440673828,-1.985395073890686,16.41522216796875,13.785058975219727
0,324676,26.853748321533203,15.054868698120117,0.24153022468090057,-21.008153915405273
0,324678,-23.0964298248291,-34.76552963256836,-2.018129348754883,16.217365264892578
0,324680,-34.192054748535156,-6.836868762969971,-12.760106086730957,-58.547969818115234
0,324682,14.218745231628418,59.27812957763672,-5.99228048324585,-6.1604180335998535
0,324684,14.833587646484375,-29.027446746826172,41.7254524230957,50.92543029785156
0,324686,-20.127735137939453,-36.378299713134766,15.180545806884766,-9.700851440429688
0,324688,-9.771339416503906,32.621517181396484,-38.56918716430664,-38.7822265625
0,324690,33.26564407348633,15.442989349365234,-9.496542930603027,44.874149322509766
0,324692,14.15676212310791,-23.327028274536133,-16.891067504882812,38.18300247192383
0,324694,-36.27688980102539,-11.732146263122559,15.78788948059082,-63.70547103881836
0,324696,-8.906610488891602,14.404253005981445,50.32118225097656,-51.481224060058594
0,324698,13.302865028381348,11.402738571166992,-39.25596237182617,1.0991102457046509
0,324700,4.297456741333008,16.876680374145508,-16.032943725585938,116.48002624511719
0,324702,9.151866912841797,-13.876227378845215,39.362552642822266,24.75649642944336
0,324704,22.108776092529297,-29.724905014038086,-36.38066101074219,-98.91522979736328
0,324706,-3.852771759033203,3.0680811405181885,-23.935041427612305,-55.1806526184082
0,324708,-30.608562469482422,0.5009166598320007,50.91328811645508,-51.399295806884766
0,324710,5.36130428314209,0.22831904888153076,5.598247051239014,138.91615295410156
0,324712,7.272371768951416,18.232227325439453,-32.48215866088867,98.12451171875
0,324714,-6.96985387802124,23.054874420166016,-0.10801436752080917,-94.23721313476562
0,324716,5.033360481262207,-10.42032527923584,10.15577220916748,-25.83269500732422
0,324718,-3.121581792831421,-27.48074722290039,18.347625732421875,129.8128204345703
0,324720,17.502138137817383,4.9708638191223145,-17.381132125854492,67.9151840209961
0,324722,10.546052932739258,-3.1427509784698486,-29.76837730407715,-491.0057678222656
0,324724,-25.537500381469727,3.020397424697876,26.15256118774414,-235.09426879882812
0,324726,-23.400590896606445,38.2061882019043,-8.132553100585938,736.8575439453125
0,324728,4.461243629455566,-10.606958389282227,5.942359447479248,373.2921447753906
0,324730,24.563480377197266,-59.23761749267578,38.06563949584961,-570.4979248046875
0,324732,-4.125742435455322,-5.68520450592041,-53.838539123535156,-451.684814453125
0,324734,-15.120293617248535,24.898014068603516,-27.88361358642578,404.84979248046875
0,324736,-0.4482000470161438,-30.62833023071289,51.10997772216797,448.311767578125
0,324738,14.226981163024902,23.9716854095459,22.125240325927734,-259.08245849609375
0,324740,-4.198820114135742,63.76444625854492,8.804888725280762,-150.3256378173828
0,325747,-26.110740661621094,-13.191694259643555,-16.71359634399414,-70.59446716308594
0,325749,10.68532943725586,-5.165926456451416,-39.24031448364258,-198.39308166503906
0,325751,18.00436019897461,-2.306450605392456,12.912156105041504,212.03736877441406
0,325753,1.621303677558899,-13.69645881652832,2.067091703414917,163.96768188476562
0,325755,22.28849220275879,-0.20898659527301788,-10.459776878356934,-186.6015167236328
0,325757,-4.761960029602051,-14.441837310791016,45.2127571105957,-79.49101257324219
0,325759,-31.04399871826172,14.312007904052734,-11.494294166564941,124.08745574951172
0,325761,23.947772979736328,18.576709747314453,-29.12778091430664,93.81377410888672
0,325763,-6.673294544219971,-44.15977478027344,15.82226276397705,70.36829376220703
0,325765,-33.59204864501953,-36.3364372253418,-9.526239395141602,42.993717193603516
0,325767,21.58611488342285,31.43305206298828,-1.9479143619537354,-144.03443908691406
0,325769,6.0192084312438965,22.97197723388672,8.943336486816406,-118.12728118896484
0,325771,-11.566300392150879,-9.796388626098633,8.480281829833984,169.25448608398438
0,325773,10.538357734680176,21.575393676757812,-6.4615702629089355,198.08387756347656
0,325775,28.306135177612305,19.509862899780273,-5.796743869781494,-202.15618896484375
0,325777,-0.5516905188560486,-18.230722427368164,6.811013221740723,-299.806884765625
0,325779,-49.44214630126953,-42.64116287231445,-5.336809158325195,12.233877182006836
0,325781,-12.561973571777344,-0.03989157825708389,-18.87732696533203,-1.4336210489273071
0,325783,27.23292350769043,48.75297164916992,9.707398414611816,86.00080108642578
0,325785,14.3681001663208,-11.094809532165527,16.794904708862305,207.53179931640625
0,325787,21.7343692779541,2.482187271118164,-17.47641372680664,35.87504577636719
0,325789,-8.168540954589844,39.62335968017578,13.953814506530762,65.18209075927734
0,325791,-30.849475860595703,-38.746761322021484,33.22630310058594,-68.4189453125
0,325793,0.7262886166572571,-30.940710067749023,5.030333518981934,-306.9513244628906
0,325795,22.59779930114746,26.632890701293945,-44.72917938232422,-58.63982391357422
0,325797,-5.5889458656311035,6.308640480041504,-15.566160202026367,111.80803680419922
0,325799,-19.608266830444336,-0.882912278175354,36.57576370239258,282.72882080078125
0,325801,7.67896842956543,5.340476989746094,1.0055590867996216,492.941650390625
0,325804,6.134641170501709,-21.724445343017578,-17.344562530517578,-216.7943572998047
0,325805,-11.91241455078125,-47.08938980102539,-16.48508071899414,-681.7136840820312
0,325806,-28.007396697998047,15.156237602233887,19.36113166809082,-299.86663818359375
0,325809,8.255147933959961,31.583044052124023,14.056833267211914,225.3473358154297
0,325810,37.61854934692383,-18.81355094909668,-48.95266342163086,571.8989868164062
0,325813,-5.555942058563232,20.445476531982422,-13.029446601867676,19.078554153442383
0,325814,-22.536102294921875,12.375384330749512,40.365230560302734,-231.9329833984375
0,325817,24.965726852416992,0.7397370934486389,26.18695831298828,-88.16190338134766
0,325818,34.34465789794922,29.77321434020996,-8.112748146057129,-231.61495971679688
0,325821,-0.46828171610832214,13.061158180236816,-3.1629438400268555,150.17916870117188
0,325822,-26.77886962890625,17.72494125366211,10.790395736694336,259.702880859375
0,325825,-5.496190071105957,-59.473243713378906,-41.30467987060547,78.23638153076172
0,325826,14.197392463684082,-81.6058349609375,-11.274870872497559,185.26461791992188
0,325829,-34.39775466918945,32.11814880371094,50.16869354248047,-158.71481323242188
0,325833,-3.3959875106811523,59.8095703125,-11.599934577941895,-603.690185546875
0,325833,30.02342414855957,24.676599502563477,-16.03881072998047,-98.09899139404297
0,325835,-5.5862884521484375,-31.390371322631836,26.353906631469727,668.1180419921875
0,325837,-18.69161033630371,-48.10688781738281,-1.8849576711654663,493.3756408691406
0,325839,-0.7914757132530212,8.628778457641602,-13.074573516845703,-284.3347473144531
0,325841,53.44364929199219,37.9095344543457,5.235306739807129,-377.8725891113281
0,325843,7.34480619430542,-17.865610122680664,-1.5149472951889038,-221.54647827148438
0,325845,-41.65207290649414,2.230996608734131,-6.820254325866699,-887.6861572265625
0,325847,-23.476579666137695,53.91437530517578,1.4914829730987549,-98.43241119384766
0,325849,3.244389295578003,-49.50028610229492,-15.352797508239746,1962.3758544921875
0,325851,36.876808166503906,-69.6725082397461,3.429588794708252,862.7855834960938
0,325853,-44.1920051574707,34.04402542114258,29.352855682373047,-1601.4493408203125
0,325855,-29.284507751464844,19.541454315185547,-22.879348754882812,-876.7113647460938
0,325857,70.55711364746094,6.345712184906006,-3.624650001525879,602.83544921875
0,325859,1.2275638580322266,30.49066925048828,47.432044982910156,520.2904663085938
0,325861,-41.500980377197266,-5.031625270843506,-45.61042022705078,150.18841552734375
0,325863,17.365999221801758,-8.516816139221191,-60.611656188964844,-323.1777038574219
0,325865,13.27621078491211,2.4732353687286377,62.67585754394531,-476.1894226074219
0,325867,-18.73072624206543,4.4544291496276855,-46.52860641479492,174.256591796875
0,325869,13.541467666625977,-12.698920249938965,-93.21308898925781,253.8372344970703
0,325871,-2.5849192142486572,-13.141800880432129,161.1676483154297,-99.13118743896484
0,325873,6.467136383056641,60.942161560058594,117.69046783447266,233.20094299316406
0,325875,38.51943588256836,43.901729583740234,-97.3217544555664,174.1337127685547
0,325877,-40.035888671875,-182.37100219726562,-84.21634674072266,-510.332763671875
0,325879,-56.92180633544922,-55.1048698425293,26.637657165527344,-447.8254089355469
0,325881,-19.41007423400879,159.58901977539062,30.4113826751709,361.1220703125
0,325883,17.46498680114746,-102.64799499511719,-60.090213775634766,592.1129150390625
0,325885,61.74928665161133,10.35881233215332,50.84646224975586,151.66542053222656
0,325887,28.52769660949707,173.281494140625,126.02349853515625,-456.4361572265625
0,325889,-39.59882736206055,-57.336936950683594,-76.87096405029297,-350.0411376953125
0,325891,-11.37026309967041,-25.321487426757812,-67.62740325927734,382.55572509765625
0,325893,12.66138744354248,51.531341552734375,50.14347457885742,145.537353515625
0,325895,12.867782592773438,-32.26932144165039,-36.05319595336914,-259.475341796875
0,325897,28.692665100097656,-25.731664657592773,-14.721826553344727,112.86430358886719
0,325899,-19.180580139160156,20.266258239746094,23.421276092529297,18.91364860534668
0,325901,-40.62458801269531,-1.9492568969726562,0.052493490278720856,-509.5042724609375
0,325903,22.837112426757812,0.2830279469490051,28.061399459838867,-143.12789916992188
0,325905,57.029747009277344,-39.33492660522461,-20.525814056396484,710.1773681640625
0,325907,-32.442115783691406,-52.15636444091797,-36.28395462036133,488.7749328613281
0,325909,-77.29212951660156,28.91600799560547,-5.5887227058410645,-354.2413330078125
0,325911,-18.415416717529297,33.487579345703125,4.581427574157715,-568.5546875
0,325913,65.9831314086914,-2.904813289642334,13.802270889282227,-161.75296020507812
0,325915,31.26934814453125,-0.9630948901176453,-5.490610122680664,325.6235046386719
0,325917,-61.279537200927734,25.378803253173828,26.61634635925293,247.77020263671875
0,325919,3.2919270992279053,-2.2676823139190674,54.64927673339844,-95.3820571899414
0,325921,3.5251431465148926,-68.58235931396484,-65.0471420288086,129.9225311279297
0,325923,-49.6338996887207,40.25503158569336,-47.987735748291016,198.94879150390625
0,325925,48.90536117553711,68.39857482910156,42.009944915771484,-607.497314453125
0,325927,38.05071258544922,-110.8089828491211,-48.20846939086914,-281.4595031738281
0,325929,10.462664604187012,25.97662353515625,60.254173278808594,794.2125854492188
0,325931,81.10214233398438,93.38520812988281,83.8981704711914,180.014404296875
0,325933,-85.47775268554688,-106.49248504638672,-150.00083923339844,-683.6596069335938
0,325935,-98.82015991210938,-24.099712371826172,-32.2108039855957,-171.99525451660156
0,325937,88.65023040771484,62.112220764160156,128.90817260742188,346.77313232421875
0,325939,8.232269287109375,16.644746780395508,-35.98480987548828,120.1039047241211
0,325941,-44.565608978271484,35.65760803222656,-26.60715103149414,182.34219360351562
0,325943,46.102256774902344,6.2899556159973145,64.03892517089844,-99.01825714111328
0,325945,14.054285049438477,-55.465911865234375,-4.72118616104126,-323.45733642578125
0,325947,-71.11730194091797,-37.10216522216797,-7.803812503814697,450.01824951171875
0,325949,-21.64249038696289,22.61795425415039,-20.159147262573242,-207.21730041503906
0,325951,-10.365129470825195,-16.708433151245117,-58.05154800415039,-789.224853515625
0,325953,48.01373291015625,10.5137357711792,41.36686706542969,593.6080322265625
0,325955,86.94100952148438,30.761795043945312,29.449201583862305,602.60546875
0,325957,-51.97394943237305,-27.53609848022461,-70.93060302734375,-333.18865966796875
0,325959,-27.273094177246094,28.103580474853516,4.308436393737793,-69.4430923461914
0,325961,26.641803741455078,24.538301467895508,84.88960266113281,-4.162613391876221
0,325963,21.785051345825195,5.174022197723389,64.93221282958984,-539.2151489257812
0,325965,32.94058609008789,16.169504165649414,-24.742151260375977,103.1265869140625
0,325967,-29.71341323852539,-0.7306761741638184,-38.694820404052734,830.2553100585938
0,325969,-33.81261444091797,-25.861482620239258,-16.577991485595703,-202.05923461914062
0,325971,17.543663024902344,-65.94593048095703,-34.88414001464844,-757.7006225585938
0,325973,-9.549086570739746,6.40761137008667,36.104915618896484,562.1058959960938
0,325975,-51.489990234375,49.991920471191406,-21.665220260620117,646.5155639648438
0,325977,-26.20823860168457,-37.725502014160156,-65.59515380859375,-991.9966430664062
0,325979,73.76776123046875,1.5434156656265259,60.22100830078125,-419.54266357421875
0,325981,54.55501937866211,55.022132873535156,-100.77799987792969,829.838134765625
0,325983,-42.72471618652344,-58.36703872680664,-27.571144104003906,579.659912109375
0,325985,-43.2757453918457,-45.014320373535156,233.88682556152344,-248.37203979492188
0,325987,-15.881331443786621,44.98379898071289,-43.614051818847656,-1031.6729736328125
0,325989,26.26202964782715,4.3630242347717285,-144.31690979003906,-30.80831527709961
0,325991,-44.272361755371094,45.386722564697266,104.40230560302734,755.7256469726562
0,325993,22.630592346191406,35.649288177490234,78.5932388305664,-55.02923583984375
0,325995,84.9861831665039,-91.96334838867188,-96.69153594970703,-67.79000091552734
0,325997,-40.9406852722168,6.135868549346924,-12.498152732849121,163.3365478515625
0,325999,-46.583290100097656,-11.148125648498535,21.292701721191406,-201.18666076660156
0,326001,-47.5504264831543,-133.43560791015625,-115.4580307006836,-641.5388793945312
0,326003,46.838741302490234,95.41507720947266,52.51481628417969,-367.7646484375
0,326005,98.0256576538086,173.24118041992188,143.0155029296875,1326.7442626953125
0,326007,0.6311691999435425,-28.6910400390625,-40.620243072509766,885.4199829101562
0,326009,-19.993297576904297,-36.35251998901367,-46.62791442871094,-939.3207397460938
0,326011,23.59861183166504,30.86422348022461,3.240875005722046,-329.561767578125
0,326013,21.1148681640625,-30.20223617553711,1.263463020324707,110.6205062866211
0,326015,-82.86408996582031,-65.14901733398438,17.144548416137695,1.1210907697677612
0,326017,-45.20671463012695,12.079490661621094,-4.416436195373535,148.30319213867188
0,326019,55.951175689697266,43.022335052490234,-12.318889617919922,-29.872465133666992
0,326021,-5.13619327545166,4.6612982749938965,-0.2651437819004059,-45.77109909057617
0,326023,-39.496219635009766,-42.93714141845703,18.03069496154785,38.45804977416992
0,326025,-36.26348114013672,-79.4893798828125,-25.75848388671875,-102.49563598632812
0,326027,-1.623013973236084,4.952516078948975,-72.1071548461914,-352.2232360839844
0,326029,35.251564025878906,34.90229034423828,9.771688461303711,-148.41819763183594
0,326031,48.698097229003906,29.56119728088379,34.60455322265625,-111.69513702392578
0,326033,29.54184913635254,58.574424743652344,0.8103277683258057,250.60340881347656
0,326035,-40.26051712036133,5.149539470672607,27.103290557861328,264.70648193359375
0,326037,2.21766996383667,-7.99908447265625,43.868324279785156,365.03924560546875
0,326039,25.655961990356445,-12.346055030822754,16.282007217407227,649.8424072265625
0,326041,-20.979597091674805,-26.228363037109375,-58.692691802978516,-998.9105834960938
0,326043,-16.591840744018555,-6.409229278564453,-28.251998901367188,-485.6954040527344
0,326046,21.930831909179688,12.36643123626709,72.18550109863281,759.152587890625
0,326047,3.199969530105591,-1.4064440727233887,15.101338386535645,-201.43601989746094
0,326048,-50.86467361450195,1.0127204656600952,-52.82906723022461,88.54398345947266
0,326051,13.51085376739502,9.528748512268066,-16.852493286132812,15.960677146911621
0,326052,22.367788314819336,-39.32990264892578,-19.53290367126465,-386.7886657714844
0,326055,-36.39824676513672,-49.06722640991211,-4.482506275177002,64.21448516845703
0,326056,2.5738964080810547,30.17439842224121,49.213722229003906,88.6109848022461
0,326059,28.05721664428711,76.16936492919922,0.7265338897705078,66.48116302490234
0,326060,15.378775596618652,16.340301513671875,-38.240055084228516,-55.50646209716797
0,326063,35.30231857299805,-0.9108339548110962,19.5788516998291,132.45936584472656
0,326064,16.061498641967773,-6.412013053894043,20.80007553100586,362.2004699707031
0,326067,-72.43437957763672,-73.23011779785156,-37.88051223754883,-283.0400085449219
0,326068,-32.44149398803711,-12.543383598327637,-0.23557932674884796,-495.1224060058594
0,326071,43.81253433227539,42.58418273925781,12.04847526550293,235.0187225341797
0,326072,21.263996124267578,7.390170574188232,-17.41868782043457,213.54209899902344
0,326075,-6.41569185256958,-0.19344092905521393,35.925846099853516,-205.9691162109375
0,326076,-43.47626876831055,-11.211247444152832,33.74701690673828,89.25543212890625
0,326079,-9.484336853027344,13.311418533325195,-35.56654739379883,117.67020416259766
0,326083,-11.015189170837402,-53.6414909362793,-43.146549224853516,-63.32509231567383
0,326083,-32.05649948120117,-43.45524215698242,25.867477416992188,7.744743824005127
0,326084,77.57218933105469,105.0182876586914,13.172544479370117,-71.15232849121094
0,326087,50.19447708129883,52.45887756347656,3.2229163646698,-12.095297813415527
0,326088,-36.064815521240234,-21.78032684326172,32.125038146972656,175.48190307617188
0,326091,-16.555452346801758,-24.445913314819336,-30.879236221313477,49.17948532104492
0,326092,-20.766965866088867,-27.50572967529297,-14.486836433410645,-113.1905746459961
0,326095,20.13516616821289,10.88109302520752,15.720548629760742,-100.62109375
0,326096,20.896162033081055,-4.421443462371826,-22.740278244018555,-80.5135726928711
0,326099,0.03111904487013817,4.011336803436279,14.165369987487793,-17.02728271484375
0,326100,24.61083984375,37.0222053527832,26.675071716308594,42.14848327636719
0,326103,-33.87180709838867,-33.16941452026367,-17.092147827148438,65.71589660644531
0,326104,-45.15826416015625,-75.89968872070312,-66.21654510498047,26.604473114013672
0,326107,38.658878326416016,38.97307586669922,-1.4844255447387695,-22.733549118041992
0,326108,32.04348373413086,65.08682250976562,78.24385070800781,95.84615325927734
0,326111,-42.69825744628906,-41.88268280029297,-7.802622318267822,85.27472686767578
0,326112,-32.24845504760742,-25.756263732910156,-37.8292121887207,-102.18084716796875
0,326115,18.789154052734375,17.739154815673828,6.033725738525391,-71.85281372070312
0,326116,42.46860122680664,37.133487701416016,45.325408935546875,5.598108768463135
0,326119,-8.502116203308105,-21.793397903442383,3.6256844997406006,-25.844268798828125
0,326120,-29.698740005493164,-38.93291091918945,-25.341766357421875,-2.3106095790863037
0,326123,31.832651138305664,50.93595886230469,3.2508785724639893,18.990867614746094
0,326124,5.4328718185424805,8.985762596130371,-18.528644561767578,16.525272369384766
0,326127,-18.62234115600586,1.5923937559127808,20.833417892456055,-12.896381378173828
0,326128,-8.737421035766602,-13.502888679504395,29.9644775390625,26.197568893432617
0,326131,-25.135364532470703,-41.31528854370117,-21.08675765991211,94.14006805419922
0,326132,8.783490180969238,13.231471061706543,-13.579334259033203,-31.067142486572266
0,326135,30.180870056152344,25.5770263671875,-18.449018478393555,-70.11360168457031
0,326136,5.03915548324585,31.660179138183594,-1.8674390316009521,47.09272003173828
0,326139,-3.4726195335388184,-9.292618751525879,9.914495468139648,-101.58887481689453
0,326140,29.736194610595703,-38.17685317993164,-14.265262603759766,-214.1511993408203
0,326143,-5.727522373199463,3.2628233432769775,28.459775924682617,182.88584899902344
0,326144,-70.30647277832031,7.66694450378418,8.633646965026855,272.4862976074219
0,326147,22.750747680664062,4.346166610717773,-30.953418731689453,-85.57291412353516
0,326148,57.88841247558594,6.001290798187256,-0.2900455892086029,-100.91188049316406
0,326151,-54.330543518066406,-11.097467422485352,23.562824249267578,0.49348944425582886
0,326152,-1.2576146125793457,-5.851352214813232,-0.14681211113929749,-20.309280395507812
0,326155,15.217324256896973,-34.36936569213867,-51.512142181396484,-14.318487167358398
0,326156,-60.60279083251953,-21.30352020263672,-7.483760356903076,23.862979888916016
0,326159,32.8612174987793,52.00448226928711,73.60303497314453,55.917999267578125
0,326160,26.42752456665039,15.922845840454102,20.755441665649414,-35.775394439697266
0,326163,11.681403160095215,7.330582618713379,-44.13905334472656,-25.681209564208984
0,326164,51.68439483642578,12.351475715637207,3.0209548473358154,31.959840774536133
0,326167,-44.81978988647461,-23.055097579956055,-2.2655391693115234,-41.65220642089844
0,326168,-58.13047790527344,1.3015940189361572,-1.433786153793335,34.40983200073242
0,326171,22.677461624145508,-17.407041549682617,11.971595764160156,31.339292526245117
0,326172,20.14276885986328,-0.8025307059288025,-28.066648483276367,-56.20857620239258
0,326175,1.2215098142623901,43.23830032348633,32.92374801635742,-15.088408470153809
0,326176,6.821375846862793,-13.667187690734863,25.91399383544922,45.81773376464844
0,326179,-22.38283348083496,-57.58465576171875,-79.8885269165039,69.4549789428711
0,326180,-13.688358306884766,5.833505630493164,-45.678287506103516,-23.13033676147461
0,326183,12.120729446411133,36.92924499511719,52.612579345703125,-101.7130126953125
0,326184,7.261932373046875,-1.9131208658218384,40.99169158935547,-73.3402099609375
0,326187,17.749662399291992,-11.942014694213867,-24.039270401000977,79.97449493408203
0,326188,8.95349407196045,9.116345405578613,4.6636962890625,160.2801513671875
0,326191,-14.62658405303955,13.429399490356445,33.58955001831055,-71.94773864746094
0,326192,-22.090370178222656,-6.5659685134887695,-5.034894943237305,-159.39727783203125
0,326195,10.192848205566406,11.931869506835938,11.790467262268066,94.81624603271484
0,326196,38.38837814331055,-6.18691873550415,-0.2636006772518158,104.58108520507812
0,326199,-23.282018661499023,-32.64735794067383,-53.41777420043945,-133.2041473388672
0,326200,-30.660869598388672,13.810003280639648,-5.902396202087402,-1.8669646978378296
0,326203,19.510784149169922,52.50066375732422,50.921119689941406,126.396728515625
0,326204,-21.070600509643555,-24.17882537841797,21.116024017333984,-128.46353149414062
0,326207,0.3630470931529999,-38.889488220214844,-14.86895751953125,-40.51727294921875
0,326208,49.6034049987793,15.950876235961914,-36.10560607910156,147.9749755859375
0,326211,5.215991973876953,-6.865517616271973,-20.28171730041504,38.78359603881836
0,326212,-8.528141975402832,20.74517059326172,42.01251983642578,-48.49275207519531
0,326215,-30.00581169128418,-18.46328353881836,-30.957353591918945,-127.64356994628906
0,326216,-16.792526245117188,-23.53802490234375,-49.70953369140625,-18.855384826660156
0,326219,7.455493927001953,17.130653381347656,67.5461196899414,121.6755142211914
0,326220,-6.330222129821777,7.800676345825195,25.733205795288086,50.462703704833984
0,326223,44.03120803833008,17.160415649414062,-62.91574478149414,-86.27958679199219
0,326224,-19.649526596069336,-20.060306549072266,-13.855481147766113,-90.14442443847656
0,326227,-58.06248092651367,8.906047821044922,44.922821044921875,73.87837982177734
0,326228,15.722920417785645,-11.911384582519531,-10.8359956741333,25.46398162841797
0,326231,20.137516021728516,-33.801856994628906,-9.563407897949219,-31.744281768798828
0,326232,37.21350860595703,55.88737106323242,73.53460693359375,58.601158142089844
0,326235,24.206933975219727,33.02737045288086,34.9528694152832,2.623250961303711
0,326236,-33.09183883666992,-19.827415466308594,-57.72002410888672,-13.859034538269043
0,326239,-12.356725692749023,-17.85357093811035,-41.8472900390625,-28.48755645751953
0,326240,6.623189449310303,-13.321155548095703,9.609471321105957,-5.848530292510986
0,326243,-16.949085235595703,11.2852201461792,10.822101593017578,71.15059661865234
0,326244,9.952614784240723,0.5043440461158752,3.763356924057007,-15.854792594909668
0,326247,-4.090285778045654,-14.27425765991211,-28.298934936523438,-97.30352783203125
0,326248,0.3394884765148163,9.187037467956543,-8.56336784362793,7.719679355621338
0,326251,2.989455223083496,6.1397705078125,44.175235748291016,64.88448333740234
0,326252,-17.47429084777832,-2.5849077701568604,-2.474307060241699,-20.101213455200195
0,326255,25.573293685913086,-12.535541534423828,-23.533798217773438,-13.10207462310791
0,326256,7.350517272949219,-14.874919891357422,8.174543380737305,-15.522163391113281
0,326259,10.326459884643555,21.9234676361084,1.6674562692642212,82.67083740234375
0,326260,11.924829483032227,18.268695831298828,-14.657670974731445,137.30667114257812
0,326263,-40.01709747314453,-26.1357364654541,-17.852407455444336,-231.86795043945312
0,326264,-23.587827682495117,7.6235761642456055,26.655942916870117,-210.87477111816406
0,326267,31.284095764160156,21.154287338256836,73.21531677246094,223.58956909179688
0,326268,16.03668975830078,-18.738052368164062,-25.601795196533203,182.6382293701172
0,326271,-12.525847434997559,-2.2840678691864014,-75.67555236816406,-70.3705062866211
0,326272,-2.703895330429077,-26.101573944091797,7.737857341766357,-126.84632873535156
0,326275,5.9181342124938965,1.5888715982437134,14.077844619750977,-28.491336822509766
0,326276,-15.872886657714844,62.865482330322266,-7.989404678344727,104.10684967041016
0,326279,-22.945226669311523,1.4755750894546509,13.738950729370117,32.253421783447266
0,326280,30.603713989257812,-24.561960220336914,56.780643463134766,-61.351280212402344
0,326283,24.16284942626953,17.533124923706055,0.22904323041439056,3.4150538444519043
0,326284,-13.583675384521484,-10.207246780395508,-68.10270690917969,53.40353775024414
0,326287,-23.91191291809082,-41.7248420715332,-28.69204330444336,-50.56852340698242
0,326288,-13.24593734741211,-19.25907325744629,-2.5127947330474854,-165.03335571289062
0,326291,-4.9020819664001465,-20.717700958251953,19.344640731811523,108.51351928710938
0,326292,11.793951988220215,20.889842987060547,46.58855438232422,161.56875610351562
0,326295,25.235492706298828,46.78306579589844,4.902912139892578,-121.8520736694336
0,326296,4.1028218269348145,33.53591537475586,-5.461276531219482,-160.5589141845703
0,326299,13.021520614624023,-20.34366226196289,-10.60304069519043,165.88433837890625
0,326300,-20.584617614746094,-56.18871307373047,-43.344905853271484,188.9876251220703
0,326303,-10.17090129852295,51.787296295166016,38.573204040527344,-187.541748046875
0,326304,38.8106575012207,28.127334594726562,37.64116287231445,-16.85207748413086
0,326307,-16.782194137573242,-52.14741897583008,-25.290645599365234,106.3851547241211
0,326309,-25.629295349121094,4.9597578048706055,3.6498806476593018,-31.38623046875
0,326311,25.698896408081055,32.41692352294922,-2.1158435344696045,-38.97237014770508
0,326313,8.322562217712402,-23.49828338623047,-32.09073257446289,-34.98294448852539
0,326315,-30.31541633605957,-24.23849105834961,-19.352161407470703,24.734113693237305
0,326317,0.7106716632843018,24.63887596130371,1.4166494607925415,-21.674509048461914
0,326319,2.477295160293579,-4.17697286605835,17.338945388793945,-65.16404724121094
0,326321,-7.268028736114502,-37.16075897216797,8.711136817932129,44.11637878417969
0,326323,24.289125442504883,3.304265260696411,20.236543655395508,103.99177551269531
0,326325,6.591734886169434,33.79169464111328,34.64017105102539,26.372974395751953
0,326327,-27.804481506347656,-23.927518844604492,-34.474510192871094,-49.532135009765625
0,326329,-8.104467391967773,11.04893684387207,-33.37798309326172,-191.04220581054688
0,326331,27.4891414642334,67.50106048583984,25.98496437072754,-35.78801727294922
0,326333,5.732632160186768,-36.69306564331055,0.6243225932121277,287.7855529785156
0,326335,-28.401330947875977,-45.85477828979492,-19.57707977294922,6.688852310180664
0,326337,-9.904680252075195,55.7860107421875,31.06791114807129,-128.8191375732422
0,326339,47.29212188720703,35.40471649169922,49.129859924316406,25.921875
0,326341,4.778830051422119,-36.46710205078125,-29.476987838745117,-56.82610321044922
0,326344,-52.386417388916016,-62.666259765625,-105.82533264160156,-0.0072448356077075005
0,326348,-1.019585371017456,21.131303787231445,10.106453895568848,75.97257995605469
0,326348,3.4474494457244873,48.717681884765625,92.14457702636719,-5.901315689086914
0,326349,5.969464302062988,-46.712501525878906,-26.78501319885254,9.109289169311523
0,326351,28.716455459594727,2.8916258811950684,-40.32748794555664,109.38175201416016
0,326353,-25.893163681030273,11.853596687316895,27.888099670410156,-25.465782165527344
0,326355,-18.5623779296875,-33.59964370727539,30.97609519958496,-253.35986328125
0,326357,50.04561233520508,26.083784103393555,-2.9432313442230225,-59.881229400634766
0,326359,10.473227500915527,23.90427589416504,-13.07115650177002,237.19044494628906
0,326361,-61.76932144165039,-48.43227767944336,-54.23365020751953,47.52666091918945
0,326363,-24.132719039916992,-24.78675651550293,-13.869181632995605,-139.87939453125
0,326365,75.03795623779297,74.89815521240234,104.46707153320312,44.88395690917969
0,326367,27.136802673339844,-4.929508686065674,-27.285614013671875,111.07096862792969
0,326369,-35.588321685791016,-32.4494514465332,-40.82294464111328,-45.47920227050781
0,326371,14.206769943237305,62.74947738647461,77.2044448852539,-61.716102600097656
0,326373,-2.889570713043213,-37.57749557495117,-40.32587814331055,-2.949313163757324
0,326375,-31.676219940185547,-45.106971740722656,-53.047061920166016,-22.888132095336914
0,326377,-24.32402229309082,31.775842666625977,34.3144645690918,-4.644583702087402
0,326379,8.466039657592773,8.541133880615234,-4.317422866821289,9.05228328704834
0,326381,27.705564498901367,25.075057983398438,2.305678606033325,29.813209533691406
0,326383,10.948188781738281,12.065054893493652,0.41358277201652527,-1.0504992008209229
0,326385,18.52640151977539,-32.33064651489258,6.86943244934082,-5.7032341957092285
0,326387,-19.52873992919922,-37.30162048339844,54.90705490112305,78.1786880493164
0,326389,-43.414424896240234,16.50722312927246,-49.32373046875,-33.151580810546875
0,326391,6.848175525665283,48.269474029541016,-33.02473068237305,-105.4463119506836
0,326393,16.593799591064453,-28.322221755981445,8.046309471130371,-19.414480209350586
0,326395,14.706012725830078,-42.79242706298828,-7.390467643737793,75.86000061035156
0,326397,-9.452494621276855,48.2263069152832,85.31312561035156,130.3062286376953
0,326399,-11.369871139526367,26.022541046142578,27.173568725585938,-77.6143569946289
0,326401,7.711556911468506,-72.99384307861328,-123.31321716308594,-171.02511596679688
0,326403,-4.289106369018555,-13.911038398742676,-65.87793731689453,58.64944839477539
0,326405,0.9687165021896362,64.17827606201172,108.8577880859375,88.18743896484375
0,326407,-1.2185533046722412,-3.25594425201416,60.2142333984375,-21.71087646484375
0,326409,36.04547119140625,-14.76335620880127,-49.24581527709961,5.409210681915283
0,326411,10.33509349822998,-4.0666728019714355,-39.89227294921875,22.509078979492188
0,326413,-60.69730758666992,-23.248104095458984,-51.8146858215332,9.025053024291992
0,326415,6.8132100105285645,26.97420310974121,25.66851806640625,-49.56374740600586
0,326417,59.62986373901367,36.257591247558594,109.07938385009766,27.230995178222656
0,326419,-21.986217498779297,-19.8596134185791,4.641722679138184,72.2218246459961
0,326421,-37.509925842285156,-23.91149139404297,-45.853782653808594,11.745494842529297
0,326423,12.766836166381836,-9.757967948913574,25.678922653198242,57.53131866455078
0,326425,11.812962532043457,2.679562568664551,-79.48526000976562,-192.5994110107422
0,326427,-12.628066062927246,4.771755695343018,-124.07621765136719,-349.4795837402344
0,326429,-21.051105499267578,0.15611329674720764,122.69229125976562,207.4993896484375
0,326431,9.861601829528809,22.16839027404785,132.22036743164062,414.23046875
0,326433,11.307672500610352,0.3467320501804352,-61.5681266784668,-115.96473693847656
0,326435,-14.946514129638672,-30.628755569458008,-37.855262756347656,-162.2705078125
0,326437,-2.2318594455718994,-5.045719146728516,26.124998092651367,15.82573127746582
0,326439,23.53809356689453,28.145263671875,5.366401195526123,28.770580291748047
0,326441,15.393210411071777,6.899155616760254,-40.313053131103516,73.0117416381836
0,326443,-8.570085525512695,-3.679615020751953,-23.517032623291016,-6.56181526184082
0,326445,-9.784595489501953,30.53974723815918,59.43336868286133,-117.76517486572266
0,326447,-1.7989048957824707,24.474159240722656,39.127079010009766,-111.63298797607422
0,326449,-24.97118377685547,-87.57379150390625,-70.93831634521484,81.55326843261719
0,326451,15.241015434265137,-50.715396881103516,-51.76726150512695,168.44879150390625
0,326453,58.978050231933594,82.05134582519531,47.67833709716797,84.3794174194336
0,326455,-17.36966323852539,-1.925087809562683,-9.714468002319336,-129.47789001464844
0,326457,-51.79086685180664,-20.919679641723633,-11.311192512512207,-153.8383331298828
0,326459,14.16728401184082,47.311927795410156,54.18866729736328,54.10613250732422
0,326461,33.47360610961914,-6.458638668060303,-9.22255802154541,25.385234832763672
0,326463,-20.471599578857422,-51.36576461791992,-19.995258331298828,17.90584373474121
0,326465,-12.303625106811523,-0.39570531249046326,26.149690628051758,54.362613677978516
0,326467,-3.2220728397369385,38.52811813354492,15.012934684753418,-1.6924927234649658
0,326469,10.381093978881836,12.332650184631348,-32.4068717956543,-6.534400463104248
0,326471,12.03437328338623,-17.530433654785156,-17.65235710144043,-27.08184814453125
0,326473,-13.962254524230957,5.733755111694336,54.100868225097656,-15.72005558013916
0,326475,13.123418807983398,-4.460659503936768,13.686771392822266,-7.93846321105957
0,326477,-3.865621566772461,-29.683801651000977,-65.10791015625,-12.100812911987305
0,326479,-6.62683629989624,23.07135772705078,-16.535512924194336,16.185161590576172
0,326481,-2.4433701038360596,-9.951582908630371,13.37380599975586,15.427749633789062
0,326483,-24.412290573120117,-24.783632278442383,6.136618614196777,47.58317184448242
0,326485,-0.876099169254303,9.36086368560791,-0.7783461809158325,-22.400318145751953
0,326487,15.921000480651855,2.1552376747131348,-22.50667953491211,-76.33099365234375
0,326489,10.775355339050293,44.01175308227539,39.02499008178711,62.10026168823242
0,326491,30.285810470581055,25.02509880065918,17.19415855407715,33.61920166015625
0,326493,17.963397979736328,-23.631837844848633,-36.68210220336914,-64.7708969116211
0,326495,-37.39006423950195,-11.007227897644043,24.955860137939453,-5.402313232421875
0,326497,-22.350200653076172,2.8155763149261475,24.385469436645508,47.46128463745117
0,326499,17.80298614501953,-1.4100103378295898,-36.332393646240234,25.504188537597656
0,326501,-4.127800464630127,-29.761600494384766,-13.791924476623535,-17.800220489501953
0,326503,8.765170097351074,1.1416945457458496,46.51898193359375,-86.48563385009766
0,326505,-13.906500816345215,35.01247024536133,-17.688232421875,-17.68263053894043
0,326507,-38.126304626464844,-33.782352447509766,-40.02515411376953,120.36874389648438
0,326509,54.833988189697266,-4.7383131980896,43.85943603515625,13.770400047302246
0,326511,33.93488311767578,48.819244384765625,0.19804096221923828,-54.661651611328125
0,326513,-50.6893310546875,-29.691396713256836,-59.04447937011719,-30.93050765991211
0,326515,-25.331260681152344,-35.38291549682617,1.8123540878295898,-11.572928428649902
0,326517,17.64815902709961,28.519826889038086,56.61526107788086,19.955204010009766
0,326519,29.842529296875,18.07487678527832,15.65337085723877,2.953075408935547
0,326521,9.64006519317627,-1.5890700817108154,-30.90695571899414,34.62260055541992
0,326523,-25.816795349121094,3.068387269973755,-9.109087944030762,-14.433845520019531
0,326525,-18.74704933166504,-8.109431266784668,22.012922286987305,-12.584177017211914
0,326527,15.414528846740723,-2.570966958999634,3.176297664642334,71.0081558227539
0,326529,24.994022369384766,5.218601703643799,-7.292879104614258,-7.792402267456055
0,326531,-39.041866302490234,0.941100001335144,-5.36348819732666,-72.4189453125
0,326533,-30.334108352661133,-17.690031051635742,-25.24637222290039,-10.262213706970215
0,326535,55.47644805908203,-34.90547180175781,-19.804428100585938,-13.084983825683594
0,326537,-5.243053436279297,8.572437286376953,13.540840148925781,-2.3567683696746826
0,326539,-26.744508743286133,54.94552993774414,43.704872131347656,-90.47079467773438
0,326541,13.82841968536377,-12.32021713256836,16.37335777282715,10.52548885345459
0,326543,34.53278732299805,-6.710958957672119,-15.360458374023438,283.29046630859375
0,326545,13.80621337890625,9.82023811340332,-30.359630584716797,-37.582576751708984
0,326547,-52.6059684753418,-28.021371841430664,1.2639797925949097,-186.1153106689453
0,326549,10.615748405456543,37.58631896972656,27.56429100036621,42.44993209838867
0,326551,29.985021591186523,-4.812779903411865,-13.702629089355469,76.84779357910156
0,326554,-28.653606414794922,-13.698184967041016,-10.547659873962402,2.690896987915039
0,326555,-6.3641886711120605,38.95351028442383,12.47224235534668,-93.16366577148438
0,326556,-6.896090984344482,-17.736709594726562,1.1891517639160156,-0.7702852487564087
0,326559,-2.3737924098968506,-36.940120697021484,-50.27902603149414,40.704864501953125
0,326560,8.574666023254395,-5.132202625274658,-12.168935775756836,0.7540192604064941
0,326563,-13.070406913757324,1.1336861848831177,44.51748275756836,50.68555450439453
0,326564,12.256853103637695,19.488136291503906,21.000709533691406,-39.83118438720703
0,326567,19.604713439941406,16.053579330444336,26.572601318359375,-38.95628356933594
0,326568,-4.214608669281006,-38.910797119140625,19.450410842895508,37.103641510009766
0,326571,2.270263433456421,-4.147505283355713,-54.14937973022461,-42.69401550292969
0,326572,-4.570803165435791,32.96316146850586,-47.26174545288086,-63.35759353637695
0,326575,-10.150197982788086,-17.375822067260742,62.75023651123047,61.39966583251953
0,326576,28.04475975036621,2.85799241065979,12.074774742126465,95.19232177734375
0,326579,10.291528701782227,42.44266128540039,-30.440067291259766,-29.394851684570312
0,326580,-31.76569175720215,-4.418466091156006,35.17591857910156,-19.924287796020508
0,326583,11.581134796142578,-10.145259857177734,15.5144681930542,6.028422832489014
0,326584,12.34703254699707,-6.7514729499816895,-54.145599365234375,-50.729610443115234
0,326587,-30.23812484741211,-14.354022979736328,-10.805355072021484,-4.559969425201416
0,326588,-14.7151517868042,-25.347633361816406,38.182037353515625,42.3421745300293
0,326591,-8.366990089416504,-2.4824929237365723,-34.324344635009766,-20.313634872436523
0,326592,10.421138763427734,51.591670989990234,2.5134456157684326,10.164111137390137
0,326595,27.121809005737305,-9.886350631713867,28.700532913208008,51.37027359008789
0,326596,-4.931581020355225,-21.540754318237305,-36.65022659301758,-30.597875595092773
0,326599,-29.273578643798828,3.4299509525299072,-12.95712947845459,-18.004962921142578
0,326600,15.330812454223633,-9.301904678344727,19.46379280090332,-27.07366180419922
0,326603,36.09709167480469,15.899316787719727,25.754798889160156,-32.15892791748047
0,326604,-13.921491622924805,-7.618564128875732,-12.701898574829102,40.95022201538086
0,326607,-4.044419765472412,-0.7393789291381836,-23.514066696166992,35.09663772583008
0,326608,39.059715270996094,63.426002502441406,45.051673889160156,-2.5604848861694336
0,326614,-2.5226454734802246,-2.4980456829071045,7.848521709442139,-19.884387969970703
0,326614,-74.38530731201172,-95.37123107910156,-50.42941665649414,25.056554794311523
0,326615,2.4551784992218018,-11.591435432434082,7.6228814125061035,6.501932621002197
0,326617,37.445980072021484,71.8601303100586,36.78452682495117,-52.62370681762695
0,326619,-20.539642333984375,6.074153423309326,-9.748044967651367,10.652308464050293
0,326621,22.17137908935547,-20.43697738647461,-13.90855598449707,82.64969635009766
0,326623,-23.403547286987305,4.271120548248291,0.07782654464244843,-59.15427017211914
0,326625,-32.38343811035156,-7.711859703063965,-3.4334304332733154,-178.92681884765625
0,326627,64.77517700195312,-11.817058563232422,-19.525230407714844,109.33473205566406
0,326629,-16.984729766845703,-30.33538055419922,-34.715328216552734,211.51333618164062
0,326631,-46.602420806884766,15.337428092956543,33.24060821533203,-80.8354721069336
0,326633,38.11458969116211,46.882041931152344,55.9141960144043,-103.1358413696289
0,326635,13.797189712524414,-16.748310089111328,-7.431589603424072,-10.483715057373047
0,326637,-2.1099414825439453,6.138610363006592,-25.871156692504883,-10.642998695373535
0,326639,0.5345875024795532,-1.147973895072937,-6.552987575531006,36.697906494140625
0,326641,-26.37888526916504,-38.697303771972656,19.997892379760742,-3.3079111576080322
0,326643,13.948808670043945,39.763824462890625,-11.695556640625,15.2353515625
0,326645,35.70988082885742,19.273155212402344,-1.156765341758728,70.8493423461914
0,326647,-15.404115676879883,-40.64323806762695,22.665006637573242,-66.35093688964844
0,326649,-49.632171630859375,0.007231411524116993,-35.81253433227539,-70.25146484375
0,326651,11.044079780578613,28.894248962402344,11.369690895080566,47.35674285888672
0,326653,67.09856414794922,5.970263957977295,43.17023468017578,38.77465057373047
0,326655,-16.02692413330078,-29.58346939086914,-27.057165145874023,18.228891372680664
0,326657,-28.455638885498047,-2.2590980529785156,-29.125795364379883,-7.52439546585083
0,326659,6.29531717300415,17.769397735595703,0.22044236958026886,-22.651384353637695
0,326661,-20.17682647705078,-16.170764923095703,5.477618217468262,8.893169403076172
0,326663,6.95844841003418,-6.561899185180664,-4.926163196563721,0.061705004423856735
0,326665,8.455890655517578,-2.7731876373291016,14.020879745483398,-18.84025764465332
0,326667,-11.8770170211792,9.461579322814941,13.487257957458496,18.791749954223633
0,326669,10.332508087158203,10.614699363708496,-3.2357177734375,-4.638238430023193
0,326671,0.875138521194458,-19.8466739654541,-1.5112807750701904,-38.40863800048828
0,326673,5.945217132568359,17.869436264038086,-34.390438079833984,-1.3203516006469727
0,326675,-1.4006974697113037,4.62270450592041,4.436659812927246,21.70252227783203
0,326677,-25.325172424316406,-22.479490280151367,53.4327392578125,42.26079559326172
0,326679,27.116270065307617,9.923979759216309,-7.690378665924072,85.03325653076172
0,326681,30.055408477783203,4.2381792068481445,-58.16469955444336,-28.725961685180664
0,326683,-49.84048080444336,-8.046846389770508,14.334187507629395,-239.57553100585938
0,326685,-19.17583656311035,9.087587356567383,54.887428283691406,26.256980895996094
0,326687,54.336631774902344,38.537864685058594,-6.277544975280762,264.2049865722656
0,326689,-12.112351417541504,-4.287206172943115,-13.718487739562988,-149.49932861328125
0,326691,-39.52144241333008,-67.80719757080078,-55.38006591796875,-158.47625732421875
0,326693,21.910961151123047,-0.3774030804634094,-3.736342668533325,153.22438049316406
0,326695,13.103999137878418,45.64685821533203,76.23321533203125,60.952308654785156
0,326697,-2.185271978378296,17.899072647094727,-8.445219039916992,-16.53280258178711
0,326699,-1.795793056488037,-36.474857330322266,-35.98310089111328,-38.68098449707031
0,326701,-7.865694522857666,-33.25294494628906,-9.103911399841309,-4.2347822189331055
0,326703,7.819498538970947,62.04442596435547,30.23250961303711,54.493743896484375
0,326705,4.3792877197265625,21.93695640563965,21.928518295288086,-19.255281448364258
0,326707,-10.801133155822754,-40.212947845458984,-29.69923210144043,-18.119455337524414
0,326709,3.5093345642089844,7.584001541137695,-22.68111228942871,23.658077239990234
0,326711,24.09785270690918,13.467096328735352,34.44540023803711,-6.973564147949219
0,326713,-5.155588626861572,-18.383424758911133,24.059858322143555,7.058379173278809
0,326715,-26.70555305480957,-8.354504585266113,-37.122352600097656,15.695655822753906
0,326717,-8.452223777770996,5.332906723022461,-13.181975364685059,-153.4214324951172
0,326719,14.34027099609375,-17.781599044799805,0.8436418771743774,6.483421802520752
0,326721,14.427247047424316,11.816045761108398,5.244027137756348,187.38560485839844
0,326723,1.639939308166504,20.681499481201172,16.745864868164062,-78.59288024902344
0,326725,-10.76523494720459,-28.992652893066406,-14.810076713562012,-51.04037094116211
0,326727,-7.852490425109863,-5.9435319900512695,-21.936996459960938,66.79570770263672
0,326729,11.437590599060059,32.397003173828125,26.080711364746094,55.085052490234375
0,326731,-0.9199684262275696,6.871448040008545,32.47464370727539,-23.05095100402832
0,326733,-10.937335968017578,-32.734737396240234,-44.99290466308594,-103.7354736328125
0,326735,13.350398063659668,0.3099569082260132,-1.4313549995422363,11.583527565002441
0,326737,-12.889281272888184,6.643876075744629,21.719894409179688,56.292686462402344
0,326739,-40.31954574584961,-21.906557083129883,-61.991905212402344,-31.345937728881836
0,326741,22.743131637573242,4.7812418937683105,19.092103958129883,-37.92039489746094
0,326743,60.40530014038086,13.0719633102417,73.96161651611328,70.71746063232422
0,326745,5.867710113525391,-0.42634251713752747,15.073781967163086,37.551204681396484
0,326747,-49.7320671081543,18.60194206237793,-22.6602840423584,-66.1461181640625
0,326749,-2.3103296756744385,6.585497856140137,-32.93133544921875,-9.288580894470215
0,326751,6.3129167556762695,-14.603751182556152,-8.00162124633789,20.820966720581055
0,326753,-23.551454544067383,-2.1487839221954346,5.021283149719238,-11.99914264678955
0,326755,28.63324737548828,-0.030845550820231438,9.823938369750977,19.162450790405273
0,326757,37.16704559326172,11.966416358947754,3.639587163925171,1.4227230548858643
0,326759,-30.93561553955078,-1.6515302658081055,-11.121650695800781,-12.76463794708252
0,326761,-28.997026443481445,-5.530735969543457,-7.1163530349731445,15.169795036315918
0,326763,21.681428909301758,-1.7078957557678223,9.797236442565918,-11.23478889465332
0,326765,4.871325969696045,-19.441518783569336,-1.2733460664749146,-1.206533432006836
0,326767,-10.904862403869629,-15.396531105041504,-22.132362365722656,-16.62759780883789
0,326769,-3.3787028789520264,8.176861763000488,8.866004943847656,-33.8919792175293
1,326771,-4.96265172958374,41.27863311767578,21.79033851623535,47.09514617919922
1,326773,5.346395969390869,8.413288116455078,0.7687268257141113,22.29012107849121
1,326775,5.517055988311768,-30.289430618286133,-17.029348373413086,-38.367122650146484
1,326777,25.64080238342285,1.0090912580490112,10.205495834350586,25.093027114868164
1,326779,21.536766052246094,3.3583288192749023,32.65781784057617,27.812339782714844
1,326781,-61.29109191894531,-15.349092483520508,-32.52932357788086,-14.529922485351562
1,326783,-19.983318328857422,18.818138122558594,-18.761240005493164,-16.41728401184082
1,326785,51.28792190551758,24.846317291259766,15.96219253540039,-42.71622085571289
1,326787,14.181797981262207,-7.138317108154297,0.5642548203468323,31.117185592651367
1,326789,-14.789579391479492,-25.032150268554688,-0.05042846500873566,60.16967010498047
1,326791,-8.620162010192871,-5.545666694641113,-10.75616455078125,-36.49622344970703
1,326793,-19.788135528564453,8.210661888122559,-3.8437981605529785,-51.11599349975586
1,326795,-14.494906425476074,-10.42075252532959,29.333484649658203,21.665285110473633
1,326797,42.50566482543945,30.66169548034668,36.29310989379883,57.246337890625
1,326799,5.081301689147949,-1.000657081604004,-32.772010803222656,-46.390708923339844
1,326801,-21.440702438354492,-35.06817626953125,-30.392738342285156,7.275724411010742
1,326803,-3.2948315143585205,21.921327590942383,20.557329177856445,-0.7615424394607544
1,326805,-5.4197587966918945,5.016538143157959,12.548700332641602,-135.37088012695312
1,326807,23.478567123413086,-23.834857940673828,-13.673253059387207,111.2157211303711
1,326809,4.820440769195557,10.21359634399414,-13.664422988891602,148.97982788085938
1,326811,-29.292264938354492,-17.158349990844727,-6.9627203941345215,-124.80886840820312
1,326813,1.9200958013534546,-11.667279243469238,-5.808834075927734,-59.97667694091797
1,326815,23.034013748168945,46.81608200073242,13.75366497039795,68.15540313720703
1,326817,-14.477228164672852,-14.563924789428711,8.460112571716309,14.812519073486328
1,326819,-5.03994083404541,4.835089683532715,-3.2588577270507812,-25.75541877746582
1,326821,-5.171053409576416,5.6581525802612305,-5.7022929191589355,-11.824904441833496
1,326823,-7.507472038269043,-25.452919006347656,16.604583740234375,-1.7524696588516235
1,326825,28.298362731933594,25.696331024169922,1.1677000522613525,26.681791305541992
1,326827,-3.227442741394043,-6.1221394538879395,-44.839324951171875,34.19736099243164
1,326829,-9.041280746459961,-9.989046096801758,2.700737953186035,21.12221336364746
1,326832,-5.593933582305908,18.505334854125977,63.53187561035156,-54.466209411621094
1,326833,-10.157328605651855,-3.608877420425415,5.128425598144531,-115.04471588134766
1,326834,11.767607688903809,-37.86344909667969,-41.9266471862793,70.29527282714844
1,326837,13.7457857131958,4.359554767608643,4.701998710632324,92.12068176269531
1,326838,16.368865966796875,50.02025604248047,-3.5905942916870117,-64.88555145263672
1,326841,3.1250791549682617,-2.327742099761963,-11.760958671569824,-22.32639503479004
1,326842,-4.800101280212402,-22.43585777282715,24.325958251953125,61.2366943359375
1,326845,-8.164188385009766,4.692135810852051,-3.701890230178833,0.7432619333267212
1,326846,-14.836833953857422,2.0902726650238037,-15.136394500732422,-76.59750366210938
1,326849,1.6682995557785034,-16.887453079223633,15.770678520202637,-5.124873161315918
1,326850,-11.597272872924805,10.744810104370117,-1.5231715440750122,47.35612487792969
1,326853,17.167278289794922,32.600730895996094,12.315299987792969,12.164642333984375
1,326854,18.920330047607422,-21.123422622680664,23.69330406188965,-15.595656394958496
1,326857,-27.22870445251465,-13.611846923828125,-28.625064849853516,-8.645129203796387
1,326858,15.790396690368652,-3.2726361751556396,-41.081451416015625,19.859895706176758
1,326861,-6.192263126373291,-4.477092742919922,13.565619468688965,23.046396255493164
1,326862,-34.74759292602539,16.894868850708008,32.69938659667969,5.257805824279785
1,326865,-1.936583161354065,-26.572656631469727,-15.72364616394043,-2.8463611602783203
1,326866,24.512659072875977,12.930699348449707,1.4773458242416382,-20.38960075378418
1,326869,-1.5796990394592285,14.233105659484863,3.485191583633423,-62.12712097167969
1,326870,-9.958574295043945,-26.802295684814453,-18.21450424194336,-7.306815147399902
1,326873,30.145017623901367,10.546005249023438,-7.8431854248046875,23.440635681152344
1,326874,-1.9850075244903564,22.18630027770996,34.43674087524414,11.364845275878906
1,326880,5.21135950088501,-1.2413467168807983,26.09266471862793,67.240234375
1,326880,-11.866837501525879,-36.779449462890625,-62.35133743286133,-0.29386240243911743
1,326881,-44.002811431884766,-0.22254732251167297,4.956185817718506,-54.59847640991211
1,326883,32.24483108520508,23.61270523071289,50.793853759765625,-16.974885940551758
1,326885,41.050811767578125,-0.9968933463096619,-27.102523803710938,-4.289684295654297
1,326887,-25.911697387695312,12.109129905700684,-49.413734436035156,28.413698196411133
1,326889,-10.000205993652344,2.366105556488037,7.454690456390381,9.457801818847656
1,326891,14.622152328491211,-22.679689407348633,48.968284606933594,-21.372852325439453
1,326893,-1.2624040842056274,7.602217674255371,-9.063676834106445,26.596542358398438
1,326895,-27.17296600341797,7.508474826812744,-25.737272262573242,4.7155280113220215
1,326897,-6.402856826782227,-14.761019706726074,15.847173690795898,-41.253170013427734
1,326899,43.14862060546875,4.278665542602539,27.548397064208984,22.812854766845703
1,326901,-11.171001434326172,1.2066792249679565,-24.18590545654297,23.41558265686035
1,326903,-16.460214614868164,-0.18638268113136292,-34.452171325683594,-50.5294303894043
1,326905,25.516544342041016,-3.5427653789520264,38.379764556884766,7.621474742889404
1,326907,-20.893924713134766,2.599036931991577,7.346718788146973,3.0067636966705322
1,326909,-12.207158088684082,15.143349647521973,5.282430648803711,-51.91219711303711
1,326911,3.7150051593780518,-1.873881459236145,26.57362937927246,74.31843566894531
1,326913,13.109580039978027,-23.577205657958984,-35.230384826660156,97.35030364990234
1,326915,17.92874526977539,-30.46181297302246,-24.397083282470703,-56.45692825317383
1,326917,-26.218666076660156,42.427371978759766,9.25701904296875,-81.33358764648438
1,326919,1.162674903869629,36.672977447509766,14.324939727783203,25.932512283325195
1,326921,1.6739137172698975,-40.2889404296875,9.039657592773438,43.53120422363281
1,326923,-15.683481216430664,-1.0554089546203613,-17.293142318725586,-19.74153709411621
1,326925,24.017271041870117,7.7948479652404785,-7.767884731292725,-52.01469421386719
1,326927,27.13458824157715,-2.6348717212677,15.300328254699707,27.097108840942383
1,326929,-9.5698823928833,-0.6870660781860352,4.102635860443115,38.900474548339844
1,326931,-23.805421829223633,-5.176575183868408,0.14631475508213043,-38.93252944946289
1,326933,-2.9938583374023438,34.39055633544922,-1.5996500253677368,-16.408855438232422
1,326935,11.990530014038086,0.8937031626701355,-8.070379257202148,2.7838752269744873
1,327190,-7.82712984085083,-40.023109436035156,4.033886432647705,11.7157564163208
1,327192,-29.96698570251465,1.7701517343521118,-8.502487182617188,13.885418891906738
1,327194,-8.288390159606934,14.8566312789917,-12.800333023071289,-2.925734519958496
1,327196,35.88523483276367,2.411198377609253,15.416943550109863,-13.981047630310059
1,327198,17.5393009185791,24.748437881469727,15.24719524383545,44.65799331665039
1,327200,-6.784813404083252,-16.05435562133789,-10.65217113494873,26.193754196166992
1,327202,-0.42910104990005493,-40.076358795166016,-16.483421325683594,-158.3485107421875
1,327204,-2.546635150909424,25.077449798583984,27.33840560913086,-14.822066307067871
1,327207,-39.36369705200195,7.6249799728393555,13.746549606323242,193.69873046875
1,328026,-4.627279281616211,-16.47718048095703,-35.98938751220703,16.523916244506836
1,328026,110.89570617675781,32.7660026550293,3.3710391521453857,-65.02051544189453
1,328029,7.93351411819458,22.158185958862305,19.796573638916016,-11.86512279510498
1,328031,-92.53929138183594,-39.832794189453125,-12.60500431060791,-35.642757415771484
1,328033,-21.16586685180664,-35.02533721923828,5.589330196380615,-16.11018180847168
1,328035,19.912090301513672,5.796243190765381,1.2562406063079834,46.87708282470703
1,328037,1.872990608215332,2.6955697536468506,-4.213161468505859,40.9114875793457
1,328039,-12.174341201782227,7.996302127838135,0.17546620965003967,-29.890216827392578
1,328041,16.50094223022461,-0.8651546239852905,-47.89740753173828,-35.06642532348633
1,328043,19.100440979003906,-14.210326194763184,-1.7466691732406616,0.5087721347808838
1,328045,2.6983304023742676,19.148942947387695,55.16933822631836,22.425687789916992
1,328047,-15.407876014709473,23.96282958984375,29.446945190429688,10.302406311035156
1,328049,4.447274208068848,-0.4418092668056488,-18.990089416503906,-31.111570358276367
1,328051,30.099130630493164,-5.392590045928955,-18.29218292236328,-10.91295051574707
1,328053,-19.58773422241211,1.178080677986145,33.66158676147461,4.781259059906006
1,328055,-40.02718734741211,-22.41939926147461,-21.445959091186523,-8.456292152404785
1,328057,-0.9408485889434814,7.476380825042725,-49.90871047973633,8.499051094055176
1,328059,28.673377990722656,20.5279541015625,2.3225598335266113,13.90071964263916
1,328061,11.156576156616211,-24.79551887512207,55.10692596435547,54.25583267211914
1,328063,-26.853933334350586,-7.055922031402588,4.9492645263671875,10.391429901123047
1,328065,2.8203535079956055,0.3730478286743164,-52.52586364746094,-100.85123443603516
1,328067,42.040794372558594,28.1477108001709,12.595335006713867,-32.229286193847656
1,328069,-18.401535034179688,23.42991065979004,23.859905242919922,48.2975959777832
1,328071,-57.359615325927734,-45.01539993286133,-3.4352164268493652,15.225350379943848
1,328073,20.176799774169922,2.607926607131958,-13.722915649414062,17.208641052246094
1,328075,54.56399917602539,8.359269142150879,9.468235969543457,4.759463310241699
1,328077,7.866852760314941,-32.11283874511719,7.1093525886535645,-23.87335205078125
1,328079,-38.23240280151367,30.580589294433594,6.1364970207214355,28.69867515563965
1,328081,-24.24288558959961,16.6129207611084,4.4822540283203125,26.037626266479492
1,328083,46.658573150634766,-9.283384323120117,-25.4062557220459,-34.101707458496094
1,328085,-0.5101535320281982,-4.1059136390686035,-10.569357872009277,-18.12225914001465
1,328087,-43.478057861328125,-36.211910247802734,-11.376239776611328,-3.2768924236297607
1,328089,23.342103958129883,-11.157510757446289,-16.29529571533203,12.785592079162598
1,328091,5.059881687164307,18.093976974487305,28.6477108001709,-0.3286168873310089
1,328093,-6.7742156982421875,40.99040603637695,44.90834426879883,-29.37227439880371
1,328095,6.11724853515625,31.00731658935547,-10.781710624694824,22.430404663085938
1,328097,0.3543688952922821,-24.154451370239258,-26.61343765258789,16.359214782714844
1,328099,15.094756126403809,-37.55446243286133,-7.069849014282227,-30.57963752746582
1,328101,-0.724631667137146,-0.9795017242431641,18.202777862548828,31.405542373657227
1,328103,-11.97806167602539,40.057823181152344,21.197826385498047,59.30927658081055
1,328105,-14.996477127075195,22.687253952026367,-10.206985473632812,-86.119140625
1,328107,-30.286245346069336,-41.64662170410156,-28.955543518066406,-49.552677154541016
1,328109,21.936574935913086,-40.3749885559082,-5.542181968688965,79.50292205810547
1,328111,60.14306640625,49.757911682128906,46.229496002197266,52.83357620239258
1,328113,-40.66029739379883,8.149236679077148,-14.341146469116211,-80.75227355957031
1,328115,-41.66814422607422,-69.12779235839844,-30.16796112060547,-94.63115692138672
1,328117,41.152923583984375,24.636404037475586,35.40049362182617,130.89303588867188
1,328119,17.42662811279297,41.77851486206055,-13.17982292175293,57.454620361328125
1,328121,-15.142497062683105,-12.264254570007324,-8.326918601989746,-88.25238800048828
1,328123,-28.06078338623047,-9.487850189208984,16.972700119018555,7.693974018096924
1,328125,-11.426445960998535,-11.980828285217285,-29.292818069458008,2.8709986209869385
1,328127,-9.184816360473633,12.717065811157227,-9.337759971618652,-69.88545989990234
1,328129,41.04737854003906,21.857952117919922,35.397762298583984,22.385318756103516
1,328131,42.45096969604492,-19.422447204589844,14.344032287597656,88.42692565917969
1,328133,-43.6378288269043,-28.964035034179688,-6.46318244934082,-2.2909440994262695
1,328135,-1.1443473100662231,18.63924217224121,-12.076457977294922,-35.21198272705078
1,328137,16.122499465942383,8.873910903930664,-39.20465087890625,3.1411678791046143
1,328139,-12.106529235839844,-23.21200942993164,1.564309000968933,-10.812403678894043
1,328141,5.137855529785156,14.418596267700195,49.3541259765625,-30.89099884033203
1,328143,14.6300048828125,17.14234733581543,-0.032771576195955276,25.424623489379883
1,328145,-3.105055570602417,-13.089203834533691,-5.06185245513916,18.864099502563477
1,328147,-22.6546630859375,7.025912284851074,-3.3640263080596924,-14.499342918395996
1,328149,-10.064600944519043,5.6060590744018555,-15.851086616516113,-18.14590835571289
1,328151,10.360199928283691,-8.939892768859863,25.196517944335938,-13.120089530944824
1,328153,-6.012900352478027,-1.8904649019241333,-23.736547470092773,9.822613716125488
1,328155,7.69104528427124,8.896730422973633,-7.456787586212158,26.44455909729004
1,328157,16.20207405090332,17.707157135009766,26.273290634155273,17.19501495361328
1,328159,-21.82700538635254,-15.057456970214844,-18.096424102783203,-6.4827399253845215
1,328161,25.977394104003906,-12.725794792175293,15.251202583312988,0.7288839817047119
1,328163,33.540504455566406,40.4149055480957,-15.205744743347168,-21.070432662963867
1,328165,-52.91133499145508,-29.045114517211914,-33.657711029052734,-14.393168449401855
1,328167,-41.685733795166016,-66.86803436279297,35.486785888671875,32.97427749633789
1,328169,41.99204635620117,51.97001647949219,26.944995880126953,18.483661651611328
1,328171,29.564594268798828,17.949724197387695,-34.82497024536133,-17.110210418701172
1,328173,-17.542232513427734,-23.22994613647461,6.566997528076172,-17.762998580932617
1,328175,-22.22225570678711,4.963470458984375,20.909685134887695,-1.374127984046936
1,328177,-18.21282958984375,-13.193731307983398,-33.583309173583984,-15.279223442077637
1,328179,11.34096908569336,41.294288635253906,16.603561401367188,2.073173761367798
1,328181,22.71157455444336,-3.562215805053711,16.712556838989258,38.671592712402344
1,328183,-1.2055007219314575,-63.246421813964844,-29.721084594726562,-35.381309509277344
1,328185,9.013630867004395,47.08085250854492,19.66315460205078,-13.18712329864502
1,328187,17.754016876220703,66.0712890625,33.003990173339844,70.10225677490234
1,328189,-26.18427848815918,-54.04461669921875,-38.07727813720703,-6.655184268951416
1,328191,-14.74728012084961,-28.773706436157227,-25.76475715637207,-42.4638786315918
1,328193,11.146919250488281,32.59907531738281,16.911588668823242,-7.141228199005127
1,328195,2.5283048152923584,-15.782133102416992,18.621410369873047,-3.5423696041107178
1,328198,21.591510772705078,-10.976780891418457,20.009052276611328,19.920839309692383
1,328199,1.8184282779693604,13.202384948730469,-35.84601593017578,-11.088441848754883
1,328200,-40.50398635864258,-4.934444904327393,-28.062707901000977,-49.1558723449707
1,328203,-5.7775349617004395,-12.593573570251465,17.68251609802246,44.699134826660156
1,328204,43.79627227783203,7.462398529052734,5.249058246612549,56.183692932128906
1,328207,1.022950291633606,3.9244258403778076,16.806297302246094,-9.600663185119629
1,328208,-24.981857299804688,-19.436901092529297,2.9366376399993896,-12.92551040649414
1,328211,-15.671684265136719,14.859895706176758,-4.205382347106934,-25.313739776611328
1,328212,-32.90133285522461,26.796287536621094,-1.358437418937683,-6.904178619384766
1,328215,41.399723052978516,6.876203536987305,-9.411924362182617,42.37471389770508
1,328216,52.83203125,-18.394989013671875,14.180818557739258,3.946594715118408
1,328219,-53.90485763549805,-37.52781677246094,-16.30590057373047,-50.590980529785156
1,328220,-26.249727249145508,-2.9317290782928467,-19.54065704345703,-28.005664825439453
1,328225,31.413166046142578,29.81987762451172,37.141937255859375,1.3972594738006592
1,328226,5.453874588012695,32.67597198486328,15.703399658203125,38.20931625366211
1,328227,-3.800602674484253,-16.491470336914062,-18.75876808166504,2.166494846343994
1,328228,2.3340389728546143,-42.571449279785156,4.471303939819336,-26.08330535888672
1,328231,17.204504013061523,0.3936693072319031,-8.653210639953613,30.5980281829834
1,328232,29.75473976135254,22.72533416748047,-17.22391700744629,7.509486198425293
1,328235,-13.775983810424805,27.58676528930664,3.608828067779541,-5.828258037567139
1,328236,-30.772600173950195,-6.089516639709473,16.295541763305664,17.71364974975586
1,328239,-6.1378493309021,-23.466053009033203,28.06686019897461,5.21419095993042
1,328240,-14.371721267700195,4.076629638671875,-33.492958068847656,7.50684118270874
1,328243,-0.8337387442588806,33.55033493041992,-17.772354125976562,-15.041146278381348
1,328244,23.671144485473633,45.82624435424805,42.121273040771484,-27.068378448486328
1,328247,-1.3949460983276367,-48.17184829711914,-25.037240982055664,-2.353890895843506
1,328248,-42.910850524902344,-57.7977180480957,-33.55765151977539,-11.226212501525879
1,328251,34.63793182373047,17.47325325012207,24.25605583190918,9.23169231414795
1,328252,65.66143035888672,-0.4694541394710541,32.36375045776367,54.277591705322266
1,328255,-58.66280746459961,14.46105670928955,6.710307598114014,-18.331422805786133
1,328256,-39.41392135620117,21.52698516845703,-26.852359771728516,-87.383544921875
1,328259,9.380733489990234,-36.511444091796875,-14.582101821899414,15.269282341003418
1,328260,-0.11411712318658829,-52.877655029296875,-17.85194206237793,74.50433349609375
1,328263,46.22685623168945,8.88774299621582,14.818302154541016,-16.281761169433594
1,328264,27.24846649169922,66.29964447021484,67.08464813232422,-23.31447410583496
1,328267,-22.452913284301758,1.1441174745559692,-41.297332763671875,18.97293472290039
1,328268,-28.04552459716797,-7.8686747550964355,-56.42171859741211,27.677244186401367
1,328271,14.290942192077637,44.85203170776367,56.61051940917969,22.5596981048584
1,328272,7.939026355743408,-4.395779609680176,8.43802261352539,-49.25541305541992
1,328275,-24.00223731994629,-39.327022552490234,-52.039146423339844,-17.21445655822754
1,328276,10.334239959716797,-31.763229370117188,20.73226547241211,22.505416870117188
1,328279,-16.578083038330078,-16.51784324645996,54.6469612121582,-18.69510841369629
1,328280,12.071884155273438,40.81769561767578,-11.007816314697266,20.488510131835938
1,328283,30.377059936523438,42.86682891845703,-41.11429214477539,1.0425981283187866
1,328284,-37.91774368286133,-36.934547424316406,4.2895941734313965,-24.006439208984375
1,328287,-2.454770565032959,-8.345444679260254,11.533059120178223,-2.369633913040161
1,328288,10.44483757019043,13.048330307006836,-42.9235725402832,-45.59329605102539
1,328291,-12.665793418884277,-27.23933219909668,-3.9497289657592773,15.595396041870117
1,328292,13.013408660888672,24.887840270996094,82.62718963623047,72.28856658935547
1,328295,1.4116519689559937,-6.353001594543457,-12.245950698852539,-39.968116760253906
1,328296,-2.48686146736145,-16.403074264526367,-51.499088287353516,-12.015576362609863
1,328299,38.8792724609375,92.98148345947266,17.37300682067871,83.37480163574219
1,328300,-2.387537956237793,4.009345531463623,-6.993948459625244,-30.21581268310547
1,328303,-56.30020523071289,-89.4927978515625,24.53578758239746,-80.63439178466797
1,328304,-4.4726457595825195,-16.591489791870117,15.032915115356445,40.45201110839844
1,328307,26.11996078491211,-32.59889602661133,-43.07781219482422,22.340456008911133
1,328308,-23.635364532470703,-13.28495979309082,0.7806351780891418,-46.57459259033203
1,328311,24.60964584350586,85.23808288574219,26.243906021118164,44.245155334472656
1,328312,22.387948989868164,-20.99738311767578,-25.21932029724121,18.551136016845703
1,328315,-40.943885803222656,-22.587907791137695,-4.706390380859375,-51.53803634643555
1,328316,28.344385147094727,89.7210693359375,21.249217987060547,25.29203987121582
1,328319,9.808603286743164,-34.3095588684082,-28.291290283203125,33.74518966674805
1,328320,-23.5023193359375,-41.18369674682617,2.1658380031585693,-36.50083923339844
1,328323,5.285248756408691,84.42449951171875,57.956600189208984,-23.24834442138672
1,328324,-10.07135009765625,-2.410104274749756,9.359975814819336,12.460994720458984
1,328327,13.554804801940918,-102.68350982666016,-36.99961853027344,15.540011405944824
1,328328,35.91835403442383,11.682962417602539,-8.133670806884766,29.385705947875977
1,328331,-24.92110824584961,49.17918395996094,2.5174498558044434,-44.34614181518555
1,328332,-38.825191497802734,-21.81369972229004,23.162410736083984,-13.053184509277344
1,328335,5.741912364959717,-1.2607426643371582,-14.505684852600098,21.036643981933594
1,328336,10.256375312805176,-6.4286627769470215,-62.595272064208984,-72.40850067138672
1,328339,-26.099164962768555,-39.30830764770508,28.03274154663086,30.771446228027344
1,328340,-1.2687485218048096,10.878653526306152,53.6961555480957,91.76506042480469
1,328343,57.830448150634766,37.31550216674805,-6.062467098236084,-23.28614044189453
1,328344,2.332953691482544,14.238960266113281,-47.542850494384766,-32.08718490600586
1,328347,-27.518430709838867,13.551034927368164,-8.053445816040039,25.56232261657715
1,328348,13.523980140686035,-21.71246910095215,42.313011169433594,22.78733253479004
1,328351,-25.30874252319336,-32.2027587890625,2.5003316402435303,-54.937740325927734
1,328352,-37.2904167175293,12.471780776977539,0.817825436592102,-34.01210021972656
1,328355,60.81926345825195,31.65034294128418,0.019940339028835297,82.166015625
1,328356,34.30231475830078,-2.5923497676849365,-13.030776977539062,8.230779647827148
1,328359,-36.53212356567383,10.290118217468262,-6.154488563537598,-60.699798583984375
1,328360,-13.42737865447998,10.045199394226074,1.2399883270263672,23.453529357910156
1,328363,21.9800968170166,-57.841732025146484,14.660160064697266,22.14769172668457
1,328364,37.66487503051758,-8.661004066467285,13.644667625427246,-30.849163055419922
1,328367,-66.74952697753906,10.304210662841797,-31.532236099243164,-58.64610290527344
1,328368,-44.048011779785156,-2.745615005493164,-31.911251068115234,-5.501286506652832
1,328371,60.828895568847656,39.87136459350586,21.764789581298828,71.72420501708984
1,328372,-5.773818016052246,-14.58960247039795,31.603879928588867,32.38359069824219
1,328375,-7.048468112945557,-30.450101852416992,-10.97977066040039,8.318999290466309
1,328376,18.762550354003906,19.827362060546875,-36.808414459228516,-16.189884185791016
1,328379,-19.59341049194336,19.745317459106445,22.696016311645508,-23.82832908630371
1,328380,-39.711631774902344,-22.66482925415039,1.4111275672912598,-0.5659940838813782
1,328383,4.322051048278809,-1.8752927780151367,8.284839630126953,-38.17732238769531
1,328384,75.00679016113281,57.78264236450195,34.308624267578125,-2.260435104370117
1,328387,13.100936889648438,-13.986322402954102,-53.71918487548828,51.41581726074219
1,328388,-32.90003204345703,-47.913902282714844,6.160319805145264,16.936546325683594
1,328391,18.825103759765625,12.134318351745605,42.15373611450195,-8.860845565795898
1,328392,-10.861481666564941,7.950671195983887,-11.519302368164062,4.870120048522949
1,328395,-49.187652587890625,-18.206377029418945,16.212993621826172,-62.0903205871582
1,328396,12.138303756713867,-26.59538459777832,-21.67132568359375,-42.199588775634766
1,328399,63.91056442260742,30.07235336303711,-31.657167434692383,96.81410217285156
1,328400,-1.5872665643692017,36.424293518066406,19.727575302124023,4.975625514984131
1,328403,-104.86164855957031,-32.43903350830078,4.773746967315674,-99.02323913574219
1,328404,-12.851202011108398,-9.547649383544922,-34.49854278564453,5.142367839813232
1,328407,106.96800231933594,15.721858024597168,23.71841812133789,125.0850601196289
1,328408,27.21406364440918,56.79768371582031,50.33125305175781,35.079689025878906
1,328411,-36.82645034790039,6.5365447998046875,-40.264286041259766,-75.79251861572266
1,328412,-30.345104217529297,-73.24507141113281,-31.47157096862793,-56.57719421386719
1,328415,-2.4313299655914307,-3.833858013153076,10.96125602722168,-14.630975723266602
1,328416,0.9728474617004395,8.900277137756348,28.79592514038086,70.62332153320312
1,328419,6.7340826988220215,21.56019401550293,22.825748443603516,15.242440223693848
1,328420,22.42058563232422,32.0700569152832,-14.264853477478027,13.290183067321777
1,328423,0.9941564202308655,-22.254379272460938,-7.674295902252197,21.58945655822754
1,328424,-26.783220291137695,-39.847267150878906,-11.503229141235352,-81.14375305175781
1,328427,-70.8883285522461,-48.23332595825195,-23.67772674560547,-25.523473739624023
1,328428,-18.997095108032227,-41.23618698120117,-5.048192024230957,-1.607354760169983
1,328431,144.6759033203125,60.56621170043945,72.15172576904297,69.13109588623047
1,328433,45.982322692871094,75.17443084716797,24.756982803344727,74.60905456542969
1,328436,-116.46146392822266,-0.580877959728241,-74.71072387695312,-112.50637817382812
1,328436,37.431034088134766,10.168736457824707,4.346709251403809,-46.67184829711914
1,328439,19.415863037109375,-31.511669158935547,5.826591491699219,26.91572380065918
1,328440,-68.6808853149414,-44.275386810302734,-34.746238708496094,-62.07341384887695
1,328443,19.666006088256836,10.064706802368164,-2.5399169921875,76.86682891845703
1,328444,41.37669372558594,35.217132568359375,11.357712745666504,109.53132629394531
1,328447,-20.62898063659668,35.770469665527344,3.7185184955596924,-120.66678619384766
1,328448,-11.197833061218262,43.185401916503906,35.25185012817383,-10.110491752624512
1,328451,21.815288543701172,-53.97877883911133,13.191404342651367,118.97462463378906
1,328452,-10.75778865814209,-78.50105285644531,-57.79050064086914,-12.145280838012695
1,328455,-16.154754638671875,38.440826416015625,-16.760570526123047,-95.76823425292969
1,328456,-33.938350677490234,-44.44823455810547,29.4774169921875,-57.7962760925293
1,328459,-7.223517417907715,-65.23397827148438,21.393896102905273,81.02519989013672
1,328460,26.066625595092773,41.81070327758789,-6.183614730834961,40.118499755859375
1,328463,32.33109664916992,69.97281646728516,11.14600944519043,-13.263776779174805
1,328464,16.1480770111084,40.201656341552734,10.617247581481934,28.146764755249023
1,328467,-9.624167442321777,20.35797119140625,-9.699737548828125,-41.12818908691406
1,328468,-8.49742603302002,-19.12350082397461,-8.965533256530762,-88.36959075927734
1,328471,0.3862949013710022,-45.28077697753906,-18.68838882446289,3.8409769535064697
1,328472,-2.968745708465576,-13.097349166870117,3.700754404067993,66.5920639038086
1,328475,3.137578248977661,44.44287109375,11.440380096435547,54.64363098144531
1,328476,38.24485778808594,80.61670684814453,19.763551712036133,20.797744750976562
1,328479,-57.57060241699219,-94.68932342529297,-9.323223114013672,-111.9471206665039
1,328480,-72.42100524902344,-139.3308563232422,-13.568463325500488,-37.148380279541016
1,328483,68.18811798095703,40.851715087890625,24.70945167541504,97.91080474853516
1,328484,50.352699279785156,70.0866928100586,-23.464805603027344,3.15340256690979
1,328487,-25.664173126220703,36.88261032104492,-35.26974105834961,-20.681001663208008
1,328488,-28.13644790649414,13.267168045043945,17.594970703125,-23.432537078857422
1,328491,19.93252944946289,-7.426283836364746,42.94729995727539,-14.364692687988281
1,328492,7.482154369354248,0.7400869131088257,12.843478202819824,28.84429168701172
1,328495,-1.790978193283081,19.502925872802734,-38.57311248779297,1.0802682638168335
1,328496,12.193838119506836,6.098358154296875,-24.622827529907227,9.471750259399414
1,328499,26.826189041137695,-4.584009647369385,50.526283264160156,83.4068374633789
1,328500,29.401582717895508,-2.582035541534424,25.102684020996094,21.867931365966797
1,328503,-94.67787170410156,-67.22796630859375,-69.2314224243164,-174.2103729248047
1,328504,-49.7567138671875,-51.351173400878906,-0.4944015443325043,-16.992382049560547
1,328507,38.56459045410156,-7.15432596206665,52.2032356262207,102.67317199707031
1,328508,1.1214765310287476,-11.411849975585938,-44.75190734863281,-48.032344818115234
1,328511,11.95116901397705,31.204357147216797,-23.424299240112305,10.493997573852539
1,328512,0.34237581491470337,47.474124908447266,32.99474334716797,32.053226470947266
1,328515,0.7889809608459473,32.8372688293457,-10.732135772705078,6.622077465057373
1,328516,21.54343032836914,18.181774139404297,23.283361434936523,3.870633125305176
1,328519,40.110504150390625,12.44275188446045,40.444087982177734,-16.824647903442383
1,328520,13.680764198303223,16.920629501342773,-41.54042053222656,-8.102126121520996
1,328523,-54.09925842285156,-16.753507614135742,-33.6533203125,-13.496979713439941
1,328524,-3.81381893157959,-15.604111671447754,28.791162490844727,40.04322814941406
1,328527,38.54654312133789,-0.5068315863609314,-0.4839787781238556,41.249916076660156
1,328528,-12.124098777770996,-43.01264190673828,-20.761085510253906,-69.14804077148438
1,328531,-49.70756530761719,-20.660057067871094,48.27164840698242,-71.85242462158203
1,328532,-76.39035034179688,-32.86983108520508,-18.20033836364746,-23.213003158569336
1,328535,49.27593994140625,-42.89310836791992,-38.08564376831055,84.99909973144531
1,328536,92.5102767944336,41.94221496582031,27.650108337402344,107.13848876953125
1,328539,-53.999488830566406,57.78570556640625,-21.524112701416016,-74.4921646118164
1,328540,3.0725347995758057,93.8683853149414,12.78626823425293,12.9038667678833
1,328543,77.13448333740234,31.261693954467773,29.7032470703125,37.80503845214844
1,328544,-41.63154983520508,-130.76522827148438,-33.67656707763672,-130.81759643554688
1,328547,-70.32084655761719,-14.74766731262207,-12.430378913879395,2.5477523803710938
1,328548,25.19118881225586,70.63688659667969,31.290250778198242,98.91934967041016
1,328551,35.03555679321289,-15.189616203308105,18.957225799560547,-40.13249969482422
1,328552,-34.92729949951172,-58.29821014404297,-10.208963394165039,-112.5092544555664
1,328555,48.75804138183594,-61.79090118408203,12.214056968688965,125.5712661743164
1,328556,61.877201080322266,43.40606689453125,9.156078338623047,158.07960510253906
1,328559,-88.35406494140625,79.32857513427734,-80.02987670898438,-166.30227661132812
1,328560,-20.934036254882812,-9.765843391418457,-7.347982883453369,-50.24237823486328
1,328563,2.796269416809082,-82.27429962158203,33.38803482055664,51.57278823852539
1,328564,-27.439374923706055,34.56392288208008,12.364584922790527,-24.604232788085938
1,328567,33.110023498535156,81.87291717529297,33.040199279785156,15.273557662963867
1,328568,-5.364772796630859,-64.27177429199219,-45.220577239990234,-23.007049560546875
1,328571,26.320966720581055,17.413684844970703,-21.72640037536621,7.5888471603393555
1,328572,-3.642279863357544,55.5164909362793,24.357755661010742,-43.462894439697266
1,328575,-44.292762756347656,-62.49896240234375,34.72370147705078,57.41908264160156
1,328576,28.47477149963379,-47.662715911865234,17.85159683227539,106.88983154296875
1,328579,3.598173141479492,8.84770393371582,-34.79818344116211,-115.07099151611328
1,328580,14.782151222229004,45.042579650878906,16.949094772338867,-2.5249710083007812
1,328583,-28.213165283203125,-4.294020175933838,2.3303229808807373,-8.530423164367676
1,328584,-1.6852689981460571,7.568965435028076,-18.99782943725586,-22.8685302734375
1,328587,87.21778869628906,34.43053436279297,23.38079261779785,161.99554443359375
1,328588,-42.75002670288086,-21.86735725402832,-26.59446144104004,-61.68812561035156
1,328591,-73.97611236572266,-32.0764045715332,5.406905651092529,-107.27794647216797
1,328592,46.9512939453125,-28.064346313476562,17.853878021240234,91.68374633789062
1,328595,36.64185333251953,13.49445915222168,-73.74432373046875,-22.372758865356445
1,328596,-46.001407623291016,21.254941940307617,-15.077775955200195,-75.53168487548828
1,328599,-61.45652389526367,7.32988977432251,37.06651306152344,-76.88259887695312
1,328600,10.901870727539062,-8.879892349243164,32.96733093261719,29.122255325317383
1,328603,77.54817962646484,-37.4525260925293,45.1382942199707,202.9615020751953
1,328604,56.581905364990234,8.636381149291992,-22.151281356811523,-27.73845863342285
1,328607,-37.82741928100586,40.55741882324219,-36.840938568115234,-116.54094696044922
1,328608,-45.202362060546875,5.384666919708252,10.936296463012695,85.65300750732422
1,328611,49.103546142578125,33.64945983886719,37.739166259765625,69.97522735595703
1,328612,-12.687179565429688,12.527509689331055,-29.42209815979004,-89.19670104980469
1,328615,-38.629032135009766,-83.61717987060547,-47.04570770263672,-65.97888946533203
1,328617,25.047962188720703,11.66054630279541,66.29855346679688,67.55093383789062
1,328619,-18.469697952270508,26.6420955657959,-9.11917495727539,16.23276138305664
1,328621,-34.14646911621094,-68.66519165039062,-89.49427032470703,-45.47106170654297
1,328623,51.29009246826172,26.004013061523438,39.971595764160156,-2.036745309829712
1,328625,6.771082878112793,9.391914367675781,43.04843521118164,-3.930408239364624
1,328627,-39.16525650024414,-15.726713180541992,6.737270832061768,15.5858736038208
1,328629,22.69936752319336,44.24688720703125,-2.276348829269409,31.4218692779541
1,328631,-13.146258354187012,6.660633563995361,-55.6820182800293,-1.3998750448226929
1,328633,-0.8210663199424744,-30.424606323242188,12.50070571899414,-47.92805099487305
1,328635,-20.597515106201172,-31.007061004638672,33.20566177368164,-114.7969970703125
1,328637,-10.582249641418457,58.4902229309082,-6.302493095397949,-23.98920440673828
1,328639,62.86262130737305,52.068359375,36.22662353515625,194.2361297607422
1,328641,8.708765029907227,-57.23761749267578,-19.90055274963379,72.1650390625
1,328643,-19.3184871673584,-33.6234245300293,-62.17314910888672,-107.72672271728516
1,328645,37.97566223144531,45.572410583496094,52.95608139038086,14.146013259887695
1,328647,-19.58290672302246,-13.792069435119629,0.7360550761222839,-12.933438301086426
1,328649,-72.2521743774414,-69.9615707397461,-50.463130950927734,-31.349788665771484
1,328652,57.05976486206055,61.04318618774414,34.6230583190918,117.20707702636719
1,328653,44.22220993041992,47.603092193603516,31.52058982849121,39.752262115478516
1,328654,-44.321495056152344,-31.51496124267578,28.020366668701172,-141.02279663085938
1,328657,-26.90987205505371,0.7546898722648621,-57.10511016845703,-94.85874938964844
1,328661,-6.085055351257324,1.0692205429077148,-44.68425750732422,135.15576171875
1,328661,19.124359130859375,8.415470123291016,57.87286376953125,136.4454345703125
1,328662,3.5591564178466797,-17.295808792114258,0.1324024498462677,-117.80062866210938
1,328665,-22.276123046875,-28.59096908569336,-3.6212456226348877,-165.90960693359375
1,328666,1.8142809867858887,20.352617263793945,-0.8000791072845459,-33.365882873535156
1,328669,1.0270954370498657,0.5466195940971375,-21.236251831054688,41.98354721069336
1,328670,3.4292171001434326,-30.205394744873047,9.802651405334473,43.34641647338867
1,328673,27.226417541503906,38.19968032836914,9.593328475952148,110.89299011230469
1,328674,13.539363861083984,28.003498077392578,3.9968013763427734,44.674312591552734
1,328677,-14.057085990905762,-29.85298728942871,-0.5829225778579712,-95.6944580078125
1,328678,-28.47949981689453,-27.730432510375977,-1.1864923238754272,-5.330812931060791
1,328681,13.74804401397705,7.474914073944092,-9.377808570861816,18.99872589111328
1,328682,30.30624771118164,38.16762161254883,-0.6955595016479492,-22.60392951965332
1,328685,-24.531373977661133,-31.439205169677734,10.607418060302734,31.483070373535156
1,328686,-30.51226043701172,-56.56227493286133,-26.166139602661133,26.709238052368164
1,328689,32.106101989746094,52.49626159667969,17.65816307067871,-2.21557354927063
1,328690,24.61466407775879,57.69270324707031,39.635887145996094,21.302553176879883
1,328693,-42.2083854675293,-19.96513557434082,-44.61553192138672,-23.269533157348633
1,328694,-15.906034469604492,-24.214445114135742,-23.518674850463867,-105.30615234375
1,328697,36.16292953491211,-33.33224105834961,19.109033584594727,-43.97856903076172
1,328698,-8.645025253295898,-14.993890762329102,-34.96689987182617,78.68376159667969
1,328701,-13.684309959411621,45.38473892211914,10.967954635620117,106.84269714355469
1,328702,36.358272552490234,31.38730812072754,65.98863220214844,3.887251615524292
1,328705,-14.262944221496582,-43.127742767333984,2.304757595062256,-108.53843688964844
1,328706,-34.92206573486328,3.085188388824463,-8.255693435668945,-33.70576095581055
1,328709,20.301240921020508,44.60112380981445,-6.710885047912598,30.98097801208496
1,328710,22.068737030029297,-13.451247215270996,-28.045835494995117,17.76506996154785
1,328713,-8.033195495605469,-15.981961250305176,1.4348828792572021,8.11695384979248
1,328714,-9.465361595153809,-1.4055635929107666,26.385265350341797,31.52370262145996
1,328717,16.17667007446289,34.269168853759766,26.97703742980957,121.8899917602539
1,328718,10.325096130371094,-5.021895885467529,-5.0196614265441895,8.615898132324219
1,328721,-16.685794830322266,-76.81109619140625,-72.46040344238281,-283.7637023925781
1,328722,-20.7241268157959,4.931788444519043,-35.20383834838867,-216.9202880859375
1,328725,-14.760235786437988,29.86631965637207,64.46609497070312,292.980712890625
1,328726,14.259322166442871,22.510053634643555,53.22209167480469,308.449951171875
1,328729,38.708221435546875,27.471769332885742,-41.472232818603516,-129.5858917236328
1,328730,-6.972075462341309,-64.7360610961914,-62.330078125,-131.49977111816406
1,328733,-40.562679290771484,-25.524215698242188,11.99102783203125,10.613429069519043
1,328734,6.141348361968994,39.06658172607422,48.854583740234375,-40.397457122802734
1,328737,19.92586326599121,0.11869862675666809,15.524374961853027,-4.924558162689209
1,328738,-11.159446716308594,-11.344799995422363,-34.039615631103516,39.38918685913086
1,328741,22.426761627197266,30.25457191467285,30.91839599609375,-3.980198860168457
1,328742,21.57765769958496,37.4384765625,38.5905876159668,-2.2140114307403564
1,328745,-31.200815200805664,-54.09223175048828,-66.42882537841797,-0.9338367581367493
1,328746,-23.868528366088867,-32.57475280761719,-28.02638816833496,39.86713409423828
1,328749,0.6275565028190613,41.25059127807617,28.973955154418945,11.934080123901367
1,328750,22.808874130249023,17.99202537536621,0.29854288697242737,-43.837162017822266
1,328753,2.0851330757141113,8.068325996398926,20.44263458251953,-56.41294860839844
1,328754,-6.506683349609375,-19.313640594482422,22.67237663269043,-73.09564971923828
1,328757,24.826894760131836,-12.722776412963867,-31.161165237426758,77.54917907714844
1,328758,-35.01627731323242,18.99651527404785,-18.47325325012207,142.81790161132812
1,328761,-17.78338050842285,-17.802221298217773,5.36464262008667,2.990741014480591
1,328762,36.14985275268555,-11.176769256591797,2.569117307662964,11.748274803161621
1,328765,-37.66100311279297,13.777267456054688,-6.793900489807129,-70.46966552734375
1,328766,4.886112689971924,12.00100040435791,43.11261749267578,-140.10870361328125
1,328769,31.600183486938477,-27.627174377441406,-16.157596588134766,45.43565368652344
1,328770,-33.14309310913086,-35.9980583190918,-67.07056427001953,88.26363372802734
1,328773,11.124629974365234,43.10504913330078,34.440834045410156,19.08299446105957
1,328774,21.932174682617188,8.576456069946289,9.433143615722656,-37.400360107421875
1,328777,17.893451690673828,-2.1753339767456055,36.65090560913086,-36.33365249633789
1,328778,25.127233505249023,22.05840301513672,40.45278549194336,20.799301147460938
1,328781,-23.392297744750977,-24.975950241088867,-58.97641372680664,19.826215744018555
1,328782,-27.700786590576172,16.07691192626953,-23.554967880249023,-40.13107681274414
1,328785,-0.2908092141151428,25.813289642333984,29.646024703979492,0.9629137516021729
1,328786,27.691617965698242,-31.541889190673828,4.157209396362305,35.633975982666016
1,328789,1.766973614692688,-21.136062622070312,-18.93762969970703,-38.47610855102539
1,328790,-31.3304386138916,13.180086135864258,-3.7868714332580566,20.617115020751953
1,328793,-1.0037271976470947,29.548912048339844,8.586289405822754,56.28297424316406
1,328794,6.97968864440918,0.9387978315353394,-25.31133460998535,-48.55231475830078
1,328797,-15.736891746520996,-70.19574737548828,-46.027259826660156,-67.45449829101562
1,328798,-8.587762832641602,-22.553123474121094,24.942237854003906,30.736364364624023
1,328801,16.80354118347168,68.81205749511719,56.1478271484375,90.69630432128906
1,328802,0.2307364046573639,37.232826232910156,-24.92693328857422,9.532648086547852
1,328805,-11.859886169433594,-33.39924240112305,9.439922332763672,-137.81956481933594
1,328806,22.176820755004883,-12.675138473510742,46.77875900268555,-63.196617126464844
1,328809,21.122238159179688,-4.017986297607422,-55.027915954589844,170.6564483642578
1,328810,-31.353233337402344,-12.668840408325195,-6.716881275177002,93.94618225097656
1,328813,-20.331483840942383,45.85477066040039,59.1111946105957,-118.98153686523438
1,328814,11.099474906921387,0.5030150413513184,-22.963672637939453,-89.32768249511719
1,328817,10.37692642211914,-39.871578216552734,-40.05413818359375,70.79844665527344
1,328818,15.253629684448242,7.367589473724365,16.117958068847656,103.01106262207031
1,328821,13.1386079788208,-0.8254243731498718,-7.929238319396973,-60.35553741455078
1,328822,-6.927646636962891,6.077052593231201,7.405818939208984,-53.39680480957031
1,328825,-26.111055374145508,-3.986910104751587,31.2994384765625,51.06410598754883
1,328826,-15.190224647521973,-12.809501647949219,-29.534358978271484,-2.115973949432373
1,328829,11.995596885681152,43.24335861206055,-3.314556360244751,-41.10713577270508
1,328831,25.849712371826172,25.71872329711914,10.67111587524414,-51.367095947265625
1,328833,13.599109649658203,-31.314783096313477,-20.745010375976562,99.33137512207031
1,328835,-11.398303031921387,-18.18828773498535,-7.400718688964844,101.79348754882812
1,328837,-20.319231033325195,21.148372650146484,41.269500732421875,-171.18350219726562
1,328839,-3.3266055583953857,-14.324183464050293,25.864261627197266,-96.26837921142578
1,328841,4.039425373077393,-41.270591735839844,-41.52128982543945,52.58220291137695
1,328843,-14.690085411071777,10.52063274383545,-43.497493743896484,57.83066177368164
1,328845,-0.5775313973426819,25.105806350708008,5.182405948638916,85.52731323242188
1,328847,35.11474609375,-16.897262573242188,22.108150482177734,-20.30992889404297
1,328849,1.0739532709121704,-1.9177342653274536,21.76652717590332,-70.78380584716797
1,328851,-17.579029083251953,38.01798629760742,7.476045608520508,8.685907363891602
1,328853,-3.9799466133117676,0.3885986804962158,-8.456243515014648,49.04936218261719
1,328855,6.379220008850098,-21.551326751708984,30.03931427001953,-34.31340789794922
1,328857,-4.140204429626465,-13.311773300170898,-17.95516586303711,-60.76715087890625
1,328859,-27.955474853515625,17.564041137695312,-19.44777488708496,47.24563217163086
1,328861,6.3165740966796875,11.526281356811523,16.664203643798828,71.37870788574219
1,328863,43.092384338378906,-16.159982681274414,-3.4792978763580322,63.53278732299805
1,328866,-1.3236021995544434,6.432339668273926,-11.68095588684082,-5.769779205322266
1,328867,-38.505821228027344,11.51689338684082,-39.99169158935547,-182.8741912841797
1,328868,9.061861038208008,5.990414142608643,-1.837084174156189,-148.67498779296875
1,328871,14.078179359436035,-31.588735580444336,13.14962100982666,134.40380859375
1,328872,-36.98630905151367,-34.75730895996094,22.613082885742188,159.6160125732422
1,328875,-17.8867130279541,27.780778884887695,12.779271125793457,-47.80512237548828
1,328876,50.15696334838867,27.21048355102539,-25.015613555908203,-57.30116653442383
1,328879,26.693389892578125,-13.283790588378906,-19.886295318603516,19.401411056518555
1,328880,-42.041900634765625,-25.414905548095703,-9.380937576293945,35.10038375854492
1,328883,2.9706857204437256,11.697263717651367,61.4395637512207,18.63535499572754
1,328884,72.9005355834961,58.61450958251953,77.99388885498047,39.148414611816406
1,328887,-17.98390007019043,-14.639899253845215,-39.33775329589844,-8.233198165893555
1,328888,-50.809349060058594,-39.509788513183594,-63.1330680847168,-107.58367156982422
1,328891,16.315200805664062,-3.819741725921631,-24.229412078857422,-44.109378814697266
1,328892,-19.610824584960938,-12.282081604003906,-13.992158889770508,-18.98311424255371
1,328897,-12.345279693603516,12.061468124389648,59.48649215698242,82.68197631835938
1,328897,37.55906677246094,21.098777770996094,34.527992248535156,129.862548828125
1,328899,15.669740676879883,12.89641284942627,-29.162015914916992,-111.80943298339844
1,328901,-2.7460641860961914,2.1145083904266357,-22.8250789642334,-81.97634887695312
1,328903,-20.904035568237305,-24.10269546508789,-6.1354756355285645,39.62560272216797
1,328905,-43.233543395996094,-8.265625,15.608321189880371,-5.628292083740234
1,328907,23.444761276245117,21.99619483947754,2.040168046951294,35.43217849731445
1,328909,43.642066955566406,-2.2184674739837646,-6.876861095428467,59.29219055175781
1,328911,-28.7296199798584,-5.302417278289795,7.213338375091553,5.105742931365967
1,328913,10.986498832702637,6.504525184631348,2.979785203933716,-6.521265983581543
1,328915,21.58456802368164,-6.600085735321045,-11.7540283203125,53.203800201416016
1,328917,-58.35842514038086,-15.713835716247559,-9.255195617675781,-90.76681518554688
1,328919,-9.813840866088867,9.800593376159668,-10.03646469116211,-192.05760192871094
1,328921,33.21748733520508,-0.4649949371814728,-0.7911800742149353,113.98796844482422
1,328923,16.15598487854004,9.6649169921875,53.11418533325195,179.36529541015625
1,328925,0.6433587074279785,15.445734977722168,-6.322551727294922,-127.07047271728516
1,328927,-29.549997329711914,-39.65313720703125,-47.887474060058594,-163.03363037109375
1,328929,26.40715789794922,19.754989624023438,52.205833435058594,161.0984344482422
1,328931,4.9364166259765625,43.04376983642578,12.140470504760742,171.29100036621094
1,328933,-46.69919967651367,-35.95616149902344,-46.67207717895508,-132.53976440429688
1,328935,23.42176055908203,-25.808143615722656,8.06690788269043,-45.82096862792969
1,328937,30.828025817871094,20.786317825317383,-1.0239062309265137,79.37078857421875
1,328939,-24.300630569458008,4.437335014343262,-19.94934844970703,-31.103609085083008
1,328941,-12.669479370117188,-21.517332077026367,-26.531089782714844,-51.47151565551758
1,328943,8.010196685791016,-5.318734169006348,-37.0372314453125,2.9691898822784424
1,328945,-8.984004974365234,19.422529220581055,75.62646484375,16.864810943603516
1,328947,21.156625747680664,-0.1509878933429718,80.06085205078125,12.993350982666016
1,328949,20.01057243347168,-25.08112335205078,-48.23722457885742,-2.2693440914154053
1,328951,-33.21704864501953,10.666607856750488,-18.053630828857422,-28.958927154541016
1,328953,-3.002425193786621,34.46294403076172,-8.794609069824219,32.8741569519043
1,328955,27.358135223388672,-3.5732581615448,-19.016401290893555,64.73221588134766
1,328957,3.2115285396575928,-30.112913131713867,21.803447723388672,-105.20924377441406
1,328959,-7.831841945648193,19.581998825073242,7.488741397857666,-99.40760040283203
1,328961,-20.209890365600586,16.683732986450195,16.488935470581055,213.16671752929688
1,328963,-0.5559582114219666,-44.071083068847656,-36.18306350708008,36.12705993652344
1,328965,13.484240531921387,2.5564610958099365,7.428121566772461,-229.7377471923828
1,328967,-16.76925277709961,16.81789207458496,34.021183013916016,77.86322021484375
1,328969,9.26253890991211,-9.663400650024414,-73.72879028320312,122.1353530883789
1,328971,25.255319595336914,19.845046997070312,24.401531219482422,-47.62643814086914
1,328973,-21.356874465942383,1.3445148468017578,48.38059616088867,-60.78852462768555
1,328975,-17.6803035736084,-13.775705337524414,-22.734638214111328,-41.64327621459961
1,328977,8.968033790588379,5.398049354553223,9.784005165100098,36.08245086669922
1,328979,7.677270889282227,-10.509383201599121,16.62125015258789,57.72544860839844
1,328981,-11.455141067504883,2.7370262145996094,-8.114343643188477,26.469112396240234
1,328983,-1.8878154754638672,19.77452850341797,-60.68904495239258,-61.90052032470703
1,328985,-13.488415718078613,-15.849481582641602,-38.75973129272461,-162.67172241210938
1,328987,-4.795437812805176,-1.7707453966140747,39.66326141357422,79.65857696533203
1,328989,65.36548614501953,35.31024169921875,48.682682037353516,222.82266235351562
1,328991,17.449975967407227,-12.408889770507812,-3.46268892288208,-83.48944854736328
1,328993,-55.17841720581055,-57.45237731933594,-26.210617065429688,-63.7418098449707
1,328995,-19.773704528808594,4.263570785522461,23.500484466552734,52.11616134643555
1,328997,-17.199155807495117,41.0045280456543,-11.554798126220703,-77.70054626464844
1,328999,14.898232460021973,8.687195777893066,-17.89235496520996,36.421180725097656
1,329001,53.094974517822266,-4.892891883850098,48.594886779785156,-21.136306762695312
1,329003,-28.83574867248535,-27.533660888671875,12.09536361694336,-120.35933685302734
1,329005,2.323187828063965,24.085134506225586,-5.77989387512207,219.8490447998047
1,329007,18.353822708129883,25.8775577545166,-34.84959030151367,97.08014678955078
1,329009,-47.99311447143555,-64.8648681640625,-39.09828567504883,-191.1111297607422
1,329011,21.420429229736328,4.192090034484863,19.702421188354492,-44.56624984741211
1,329013,36.421722412109375,55.93617630004883,32.14799118041992,-4.755988597869873
1,329015,-19.260555267333984,-1.5126185417175293,-7.61074686050415,-7.107855319976807
1,329017,-14.620256423950195,-18.751874923706055,-9.822969436645508,76.1513671875
1,329019,30.39544105529785,-16.845266342163086,26.132543563842773,99.34099578857422
1,329021,2.1511728763580322,15.40306568145752,-6.2592034339904785,-38.07365798950195
1,329023,-42.363075256347656,8.128660202026367,-15.165194511413574,-125.3179931640625
1,329025,22.861356735229492,-26.442155838012695,3.3996756076812744,-16.77321434020996
1,329027,2.1991982460021973,14.26367473602295,-2.253109931945801,112.22200012207031
1,329029,-40.445552825927734,8.812437057495117,4.7518181800842285,-5.408390045166016
1,329031,11.609040260314941,-35.27872085571289,-20.06165885925293,-144.3272705078125
1,329033,20.10793113708496,1.0029487609863281,-13.125076293945312,79.15902709960938
1,329035,-10.96057415008545,13.459531784057617,11.42061710357666,83.06180572509766
1,329037,9.174348831176758,4.131894111633301,9.648301124572754,-27.269878387451172
1,329039,48.80470657348633,24.795482635498047,48.42688751220703,32.2015495300293
1,329041,-14.177958488464355,9.066861152648926,-9.67786979675293,-33.400089263916016
1,329043,-77.30023956298828,-27.019920349121094,-45.27402877807617,-24.99761962890625
1,329045,-7.696446418762207,-26.013816833496094,22.777992248535156,39.20247268676758
1,329047,60.94557571411133,31.84889793395996,40.28384780883789,37.32475280761719
1,329049,20.412662506103516,-1.580414056777954,-31.21343231201172,-20.728618621826172
1,329051,-27.82176971435547,-34.24287414550781,-58.4677619934082,-44.52176284790039
1,329053,5.9112935066223145,35.17967224121094,21.646080017089844,-49.48793411254883
1,329055,-3.882695198059082,12.86252498626709,22.91497230529785,-51.47459411621094
1,329057,-80.18524169921875,-63.00563430786133,-19.865385055541992,62.51561737060547
1,329059,4.542418003082275,-8.080892562866211,-3.3277828693389893,35.3345832824707
1,329061,112.24162292480469,101.10379791259766,31.00145149230957,-33.64181137084961
1,329063,4.361813068389893,15.757662773132324,9.47456169128418,39.683685302734375
1,329065,-62.641204833984375,-68.88353729248047,-38.3303108215332,1.4289324283599854
1,329067,28.733795166015625,23.055444717407227,-12.193790435791016,-41.80025100708008
1,329069,0.19557586312294006,-9.633075714111328,25.491453170776367,1.169211506843567
1,329071,-42.575660705566406,-47.253658294677734,7.692300319671631,26.544498443603516
1,329073,36.29785919189453,38.00542449951172,8.837767601013184,80.90339660644531
1,329075,63.169898986816406,63.36324691772461,50.68744659423828,2.9600210189819336
1,329077,-19.297513961791992,-19.510751724243164,-9.225682258605957,-104.30339050292969
1,329079,-103.56922149658203,-90.8608627319336,-91.261474609375,-56.152610778808594
1,329081,38.92524719238281,42.954158782958984,32.08308792114258,46.3094367980957
1,329083,80.54141998291016,34.84715270996094,28.27220916748047,93.80543518066406
1,329085,-46.38292694091797,-60.860687255859375,-61.40911102294922,-57.99833679199219
1,329087,-42.748741149902344,13.280984878540039,37.872718811035156,-63.03887176513672
1,329089,-14.194687843322754,-3.374631404876709,26.64661979675293,75.50582122802734
1,329091,14.451019287109375,-16.509065628051758,-39.17501449584961,47.694087982177734
1,329093,35.231414794921875,65.53744506835938,21.503461837768555,-53.26210403442383
1,329095,-33.389808654785156,-15.51669979095459,10.584444046020508,-108.74457550048828
1,329097,6.203641891479492,-48.25706481933594,-18.45640754699707,110.30689239501953
1,329099,78.32621002197266,65.54342651367188,14.574783325195312,166.34918212890625
1,329101,-56.108612060546875,-19.776866912841797,-11.349466323852539,-120.51762390136719
1,329103,-63.478755950927734,-59.938636779785156,-44.99557113647461,-110.236328125
1,329105,19.285993576049805,42.23248291015625,27.176074981689453,19.022354125976562
1,329107,16.226362228393555,44.55202865600586,52.86188507080078,-34.60952377319336
