Aktueller Finger,timestamp_ms,sensor_0,sensor_1,sensor_2,sensor_3
0,1579716,-11.235824584960938,2.6081390380859375,15.959883689880371,11.998061180114746
0,1579716,-0.4738828241825104,2.029071569442749,-10.494192123413086,13.242532730102539
0,1579716,6.397810935974121,-0.7161476612091064,-0.8414748311042786,-4.294291019439697
0,1579716,16.45470428466797,15.948001861572266,6.749362945556641,-12.282584190368652
0,1579716,-8.427395820617676,-38.49115753173828,-16.81203269958496,-5.003079891204834
0,1579716,-21.10411262512207,-21.348621368408203,-13.846489906311035,-0.806502103805542
0,1579717,5.200126647949219,39.59843063354492,13.27386474609375,-18.454044342041016
0,1579717,-1.530874252319336,-8.14920425415039,18.373409271240234,-8.160867691040039
0,1579717,-15.685746192932129,-9.088281631469727,-0.14783084392547607,4.316038608551025
0,1579717,4.592426776885986,6.492464065551758,-16.032047271728516,3.2301928997039795
0,1579717,14.814984321594238,-10.362536430358887,2.725153923034668,29.901573181152344
0,1579717,-4.028714179992676,32.386722564697266,24.892627716064453,24.514413833618164
0,1579718,3.0856826305389404,-0.273598849773407,4.782471179962158,-30.276105880737305
0,1579718,7.394669532775879,-30.50823211669922,-11.718289375305176,0.8091470003128052
0,1579718,-7.006094455718994,33.47776412963867,-1.4870929718017578,24.112831115722656
0,1579718,17.00319480895996,18.645492553710938,2.288533926010132,-25.733638763427734
0,1579718,8.358400344848633,-29.76154899597168,-0.7983355522155762,-1.6704894304275513
0,1579719,-22.64642333984375,-6.553110122680664,3.420001745223999,13.925633430480957
0,1579719,-12.082387924194336,14.508890151977539,12.815404891967773,3.3493728637695312
0,1579719,26.607763290405273,9.771554946899414,-19.223684310913086,20.556812286376953
0,1579719,6.6854400634765625,-0.7152665853500366,-25.639856338500977,-8.828252792358398
0,1579719,-34.91925048828125,-19.465560913085938,26.892454147338867,-28.772666931152344
0,1579719,0.42735886573791504,2.035329580307007,0.8210970163345337,-1.778767704963684
0,1579720,16.354787826538086,22.76634407043457,-11.25540542602539,11.051984786987305
0,1579720,1.9345297813415527,-9.618958473205566,21.79580307006836,-13.118098258972168
0,1579720,-7.2635498046875,-25.90165138244629,-3.1476588249206543,-11.909991264343262
0,1579720,10.635615348815918,-0.6761842370033264,-16.32720375061035,10.403321266174316
0,1579720,12.897920608520508,8.87056827545166,-8.5917329788208,-10.307815551757812
0,1579720,-9.191340446472168,-2.302340269088745,-6.049849510192871,-16.002893447875977
0,1579721,-19.506258010864258,-5.614692687988281,18.461496353149414,18.62788963317871
0,1579721,-6.9717512130737305,-2.6191959381103516,15.25908374786377,10.19562816619873
0,1579721,16.787797927856445,6.303518772125244,-15.314855575561523,-17.496562957763672
0,1579721,-11.431459426879883,-3.031146764755249,-6.879227161407471,9.692913055419922
0,1579721,-10.02391242980957,-9.791053771972656,13.72966194152832,27.894163131713867
0,1579721,17.955076217651367,3.652695655822754,-7.610540390014648,-18.59891700744629
0,1579722,2.7143070697784424,9.894189834594727,-20.776185989379883,-20.07731056213379
0,1579722,-3.244830369949341,1.0474746227264404,17.649890899658203,38.035911560058594
0,1579722,-3.5386013984680176,3.1557722091674805,24.28455352783203,17.622112274169922
0,1579722,12.900904655456543,5.82722806930542,-11.392975807189941,-37.02970504760742
0,1579722,19.090917587280273,-14.302214622497559,-17.342592239379883,-3.2666094303131104
0,1579723,-22.90516471862793,12.568534851074219,2.61273455619812,43.599571228027344
0,1579723,-11.281326293945312,15.42343807220459,9.176702499389648,2.372445821762085
0,1579723,15.032729148864746,-11.247124671936035,-13.576688766479492,-14.360799789428711
0,1579723,-19.66459846496582,-10.607064247131348,-8.235575675964355,16.03171157836914
0,1579723,6.958970069885254,3.074026346206665,10.87695598602295,8.147868156433105
0,1579723,26.413637161254883,30.728883743286133,-0.28130748867988586,-16.468196868896484
0,1579724,-30.242477416992188,-27.848512649536133,13.953108787536621,-24.88515281677246
0,1579724,-8.009073257446289,-27.97154998779297,1.0758938789367676,4.546652317047119
0,1579724,13.523947715759277,43.39957809448242,-21.127384185791016,19.591102600097656
0,1579724,-0.38320979475975037,3.3943605422973633,6.683120250701904,-20.04840660095215
0,1579724,8.24134349822998,-44.11640930175781,6.9317474365234375,-32.453758239746094
0,1579724,4.055899620056152,-2.5908989906311035,-14.288747787475586,-11.1698579788208
0,1579725,-14.522153854370117,30.824975967407227,22.89221954345703,20.668376922607422
0,1579725,-4.858003616333008,-4.038697719573975,29.934335708618164,39.368629455566406
0,1579725,30.266185760498047,-1.2342028617858887,-35.03643798828125,-17.542694091796875
0,1579725,-3.3923964500427246,-9.498494148254395,-20.155241012573242,-41.05974197387695
0,1579725,-21.153564453125,-25.413833618164062,23.918710708618164,12.273157119750977
0,1579725,13.666677474975586,36.21224594116211,-9.39215087890625,19.264734268188477
0,1579726,2.8586833477020264,19.740571975708008,-18.821958541870117,-4.452775478363037
0,1579726,-21.796184539794922,-21.516551971435547,25.64476203918457,6.869532585144043
0,1579726,2.1560425758361816,12.24191665649414,-4.391351699829102,-7.459536552429199
0,1579726,15.184175491333008,-6.316802501678467,-29.51813507080078,-15.779986381530762
0,1579726,-13.104493141174316,-24.09321403503418,26.105655670166016,25.11176872253418
0,1579726,-8.10235595703125,2.199946641921997,9.205499649047852,15.430254936218262
0,1579727,10.584790229797363,25.399024963378906,-24.973520278930664,-33.19033432006836
0,1579727,-15.500534057617188,4.825788974761963,9.509479522705078,-9.804311752319336
0,1579727,-10.391427993774414,-20.212087631225586,2.524787425994873,10.029541969299316
0,1579727,35.87774658203125,7.320262908935547,-8.703583717346191,-11.480847358703613
0,1579727,12.271051406860352,4.967238426208496,23.34095001220703,20.322134017944336
0,1579727,-28.48508644104004,-8.714162826538086,11.988726615905762,28.014219284057617
0,1579728,9.74400520324707,-4.243483066558838,-6.902198791503906,-8.79680347442627
0,1579728,24.341001510620117,-4.0481696128845215,-5.839610576629639,-30.11148452758789
0,1579728,-15.540946006774902,-1.527538537979126,-17.243144989013672,-8.83878231048584
0,1579728,-13.225968360900879,22.98351287841797,4.810591220855713,27.91139030456543
0,1579728,4.603869915008545,12.785554885864258,10.335715293884277,6.727103233337402
0,1579728,-0.6573837399482727,-17.05523681640625,-35.35987854003906,-13.693885803222656
0,1579729,-3.474266529083252,3.3091323375701904,13.118143081665039,9.80391788482666
0,1579729,2.097813129425049,-4.676018238067627,45.82945251464844,13.7532958984375
0,1579729,-0.9126385450363159,1.2080620527267456,-1.7226402759552002,-1.428989052772522
0,1579729,13.536051750183105,14.5652494430542,1.6160385608673096,-11.984435081481934
0,1579729,10.845372200012207,-20.623552322387695,-7.857897758483887,-9.316970825195312
0,1579729,-5.786686420440674,-5.7420783042907715,-23.035511016845703,3.5281789302825928
0,1579730,-3.59732723236084,23.655324935913086,-0.3386646807193756,9.093135833740234
0,1579730,-17.056081771850586,-0.9551950097084045,20.865686416625977,-0.39487457275390625
0,1579730,12.506732940673828,3.0356874465942383,-1.1087441444396973,-17.90380859375
0,1579731,9.567821502685547,-14.35059928894043,-32.19193649291992,-15.989702224731445
0,1579731,-35.747928619384766,-42.880767822265625,-7.176118850708008,-13.887917518615723
0,1579732,4.391972064971924,26.235918045043945,23.08529281616211,-3.531412124633789
0,1579732,20.757240295410156,21.86181640625,-20.604053497314453,16.850502014160156
0,1579732,-19.391101837158203,-29.793148040771484,-26.047119140625,11.939682960510254
0,1579732,-13.495526313781738,1.2902477979660034,27.876401901245117,5.424351692199707
0,1579732,27.0567626953125,1.482590675354004,15.709073066711426,-8.488251686096191
0,1579732,0.27651262283325195,-7.090087890625,8.456073760986328,-8.294731140136719
0,1579734,-22.833330154418945,22.26220703125,12.0130033493042,15.615649223327637
0,1579735,34.102012634277344,34.059993743896484,-1.6563485860824585,19.899681091308594
0,1579736,25.158723831176758,1.7782659530639648,9.220037460327148,18.141681671142578
0,1579739,-30.27695655822754,-32.931732177734375,-10.832751274108887,1.3789948225021362
0,1579740,-15.070138931274414,-9.146418571472168,-4.747707366943359,6.764353275299072
0,1579743,-9.219290733337402,2.656414031982422,4.237800598144531,-12.05859088897705
0,1579744,2.5420920848846436,0.3629201054573059,-20.202850341796875,-74.60646057128906
0,1579747,28.77142906188965,19.838064193725586,1.8172894716262817,27.993730545043945
0,1579748,-9.334320068359375,6.240306854248047,-5.648349285125732,76.63533782958984
0,1579751,-8.468331336975098,-5.201770305633545,-10.620630264282227,-44.4699592590332
0,1579752,-0.1684379130601883,-24.120159149169922,20.88654899597168,-31.561304092407227
0,1580007,11.049235343933105,-4.754162788391113,10.78732681274414,28.81538963317871
0,1580010,18.741243362426758,4.564016819000244,-25.148582458496094,16.57563018798828
0,1580011,-26.650014877319336,-2.10337495803833,12.665531158447266,-24.06864356994629
0,1580014,-22.64705467224121,0.06634634733200073,34.96478271484375,-25.646949768066406
0,1580016,14.80010986328125,-17.895132064819336,-36.055458068847656,37.66108703613281
0,1584208,30.836280822753906,32.85089111328125,-11.492753982543945,16.903038024902344
0,1584208,3.977942943572998,8.469684600830078,20.59259796142578,-49.928531646728516
0,1584208,-32.7432746887207,-23.423851013183594,-14.536054611206055,3.45024037361145
0,1584209,-1.7646310329437256,-1.1505223512649536,1.9054851531982422,18.80259895324707
0,1584209,7.612725734710693,-8.3125,12.001334190368652,5.060303688049316
0,1584209,-17.132122039794922,7.399423122406006,-6.137416839599609,23.10786247253418
0,1584209,22.093151092529297,36.00299072265625,-5.68750524520874,-21.183446884155273
0,1584209,20.84109878540039,15.217005729675293,8.001376152038574,-16.611494064331055
0,1584209,-18.79608154296875,-23.01194953918457,12.626569747924805,29.853755950927734
0,1584210,-4.705375671386719,-8.219134330749512,3.108231782913208,8.022099494934082
0,1584210,1.3422476053237915,0.9262018799781799,-10.514111518859863,-34.95548629760742
0,1584210,-5.191205024719238,3.6952035427093506,-16.544517517089844,-20.470212936401367
0,1584210,-0.6614930033683777,-8.784871101379395,-4.148610591888428,30.073768615722656
0,1584210,-5.165236949920654,-1.3798222541809082,9.08169174194336,23.36240577697754
0,1584211,-6.610118865966797,-1.9374715089797974,12.406922340393066,-33.376548767089844
0,1584211,3.70625638961792,-24.511089324951172,-0.08539271354675293,-40.42671203613281
0,1584211,7.038620471954346,-0.15932978689670563,-20.48087501525879,6.871317386627197
0,1584211,-6.242553234100342,16.96381950378418,9.455273628234863,34.05662155151367
0,1584211,4.0434184074401855,12.599117279052734,13.6273832321167,-6.279231071472168
0,1584211,7.102075576782227,-17.350536346435547,-17.457122802734375,-20.892332077026367
0,1584212,2.6232547760009766,-6.313802242279053,-9.048360824584961,14.744481086730957
0,1584212,14.08670711517334,17.38591957092285,-1.7595019340515137,15.042494773864746
0,1584212,-20.032123565673828,-14.76518726348877,8.205592155456543,4.899381160736084
0,1584212,-25.4702205657959,8.223628044128418,15.688312530517578,8.677313804626465
0,1584212,27.24014663696289,13.882339477539062,-11.28554630279541,2.4055283069610596
0,1584212,27.698524475097656,-22.502174377441406,-18.158550262451172,2.8160221576690674
0,1584213,-18.665353775024414,17.04509162902832,12.471689224243164,-9.754834175109863
0,1584213,-8.415182113647461,14.41331672668457,13.18898868560791,-20.593774795532227
0,1584213,7.579930305480957,-20.510406494140625,-14.80046272277832,35.06084060668945
0,1584213,-13.94216251373291,22.62308120727539,0.8245978355407715,25.46198272705078
0,1584213,2.86362886428833,3.2396488189697266,14.576408386230469,-26.17880630493164
0,1584213,-4.698171615600586,-31.28270721435547,-3.565373659133911,-0.10019650310277939
0,1584214,-23.602235794067383,21.525772094726562,11.839700698852539,-4.001681327819824
0,1584214,25.76861572265625,13.980278015136719,5.942098617553711,-7.463995456695557
0,1584214,38.382057189941406,-33.034912109375,-3.6818628311157227,2.092153549194336
0,1584214,-17.2738094329834,4.1890740394592285,8.140007019042969,-10.579124450683594
0,1584214,-22.413225173950195,26.587181091308594,1.8819851875305176,-2.2146124839782715
0,1584214,10.57096004486084,-17.409265518188477,-18.405986785888672,2.5412700176239014
0,1584215,-4.260720729827881,-27.017513275146484,-12.38797378540039,6.020756721496582
0,1584215,-5.024013996124268,17.030284881591797,17.7417049407959,-3.217158555984497
0,1584215,24.884918212890625,27.068666458129883,-6.155887603759766,-29.01879119873047
0,1584215,-4.635495662689209,-14.742424011230469,-23.250675201416016,-0.6517857909202576
0,1584215,-38.79328918457031,-16.964094161987305,15.557976722717285,19.071796417236328
0,1584215,12.75802993774414,-16.31930923461914,14.125116348266602,-13.377138137817383
0,1584216,9.697611808776855,-26.252477645874023,-16.262807846069336,5.359527111053467
0,1584216,-28.02496910095215,40.159393310546875,-7.110788345336914,-0.9278605580329895
0,1584216,49.021827697753906,44.79298782348633,-0.4888269901275635,-18.3289794921875
0,1584216,23.71286392211914,-33.72766876220703,-9.504178047180176,38.11713409423828
0,1584216,-56.533729553222656,-4.627650737762451,11.770575523376465,-6.619317531585693
0,1584216,5.901242256164551,10.786590576171875,36.75939178466797,-30.08528709411621
0,1584217,29.596954345703125,-5.524240493774414,-5.25287389755249,43.079132080078125
0,1584217,-19.44820213317871,19.039154052734375,-16.030088424682617,-11.528214454650879
0,1584217,-5.0594024658203125,-15.45370864868164,-3.0864837169647217,-21.676406860351562
0,1584217,13.942241668701172,-12.212457656860352,-30.330577850341797,42.608070373535156
0,1584217,-14.68338394165039,29.596466064453125,15.654426574707031,16.112239837646484
0,1584217,4.484842300415039,-0.39141106605529785,31.764667510986328,-42.91190719604492
0,1584218,10.457106590270996,-22.333349227905273,-5.633767604827881,-17.375591278076172
0,1584218,-20.753742218017578,11.872703552246094,-12.41418743133545,42.607940673828125
0,1584218,3.875594139099121,-7.266190052032471,-12.890705108642578,-3.187878131866455
0,1584218,12.018630981445312,-17.99504852294922,11.095131874084473,-9.877246856689453
0,1584218,-12.020115852355957,30.838134765625,8.325361251831055,5.02109956741333
0,1584219,7.055597305297852,-3.0146265029907227,-14.63147258758545,-16.48517417907715
0,1584219,6.114484786987305,-26.04176902770996,2.3311429023742676,4.158105850219727
0,1584219,-0.7786070704460144,13.61512279510498,5.8405442237854,1.8087602853775024
0,1584219,14.067397117614746,-0.5141046047210693,-16.189056396484375,-6.13808012008667
0,1584219,-14.144637107849121,-20.300155639648438,23.638341903686523,20.02349090576172
0,1584219,-30.275318145751953,46.27119445800781,34.929176330566406,-6.934344291687012
0,1584220,15.932695388793945,-4.149837970733643,-27.40003204345703,-25.542959213256836
0,1584220,14.008054733276367,-84.7846908569336,-43.67641067504883,29.77556610107422
0,1584220,-27.469085693359375,36.02518081665039,-0.43090781569480896,-4.295900821685791
0,1584220,16.723731994628906,44.19899368286133,36.55376052856445,-24.092754364013672
0,1584220,18.574682235717773,-19.605052947998047,-11.672991752624512,25.3161678314209
0,1584220,-16.262142181396484,-5.421633243560791,-14.01246166229248,10.488273620605469
0,1584221,-14.373466491699219,-11.631436347961426,29.20035171508789,-9.046823501586914
0,1584221,8.990693092346191,12.944101333618164,-16.45930290222168,-21.931856155395508
0,1584221,15.950977325439453,12.200708389282227,-29.125106811523438,-14.418130874633789
0,1584221,-26.231399536132812,-19.967498779296875,9.587486267089844,32.757659912109375
0,1584221,-10.102744102478027,16.765226364135742,24.45856475830078,7.259206771850586
0,1584221,40.10952377319336,25.854732513427734,7.508352279663086,-27.726442337036133
0,1584222,13.452930450439453,-21.674978256225586,10.615447998046875,17.464784622192383
0,1584222,-20.663820266723633,-3.0479753017425537,0.755018413066864,-2.9487192630767822
0,1584222,6.305678367614746,6.348366737365723,-15.85062026977539,-18.440200805664062
0,1584223,-8.362410545349121,-5.4984893798828125,5.800706386566162,4.005091667175293
0,1584223,-14.256204605102539,-8.966996192932129,-15.19417667388916,12.842188835144043
0,1584223,6.524603843688965,-8.511502265930176,-13.070517539978027,23.75313949584961
0,1584224,6.103240013122559,30.785322189331055,13.764383316040039,-3.1155195236206055
0,1584224,7.581506252288818,3.1034278869628906,5.73609733581543,3.670401096343994
0,1584224,-10.930350303649902,-43.66633224487305,4.520058631896973,9.032809257507324
0,1584224,-9.378312110900879,3.0689244270324707,8.015366554260254,4.372844696044922
0,1584225,15.362653732299805,31.139938354492188,-11.533451080322266,2.7379086017608643
0,1584227,-7.395292282104492,-3.9256207942962646,-15.751782417297363,-35.71034622192383
0,1584229,-12.198370933532715,-5.1226983070373535,29.68387222290039,-69.52794647216797
0,1584231,31.576753616333008,2.2428042888641357,16.167617797851562,10.391565322875977
0,1584234,-5.814019203186035,7.11049747467041,-21.31208610534668,72.2666244506836
0,1584235,-20.806367874145508,-4.546380043029785,-22.859512329101562,-7.240265369415283
0,1584236,17.303539276123047,-28.85809898376465,-10.129152297973633,-7.087981700897217
0,1584239,-3.094897508621216,20.092609405517578,16.908655166625977,12.229649543762207
0,1584240,11.422080039978027,23.68886947631836,3.0538642406463623,-13.789457321166992
0,1584243,15.69384479522705,-3.537217378616333,11.565190315246582,-16.52972984313965
0,1584244,-31.63274383544922,-1.1684221029281616,-5.756434440612793,-23.285324096679688
0,1584247,-12.612836837768555,-23.077577590942383,-43.089019775390625,-4.569875240325928
0,1584248,25.147048950195312,-5.675895690917969,25.92390251159668,41.30854415893555
0,1584251,-9.16561222076416,12.150921821594238,49.506919860839844,37.87376022338867
0,1584252,-13.985895156860352,-17.241474151611328,-11.133260726928711,-12.37073802947998
0,1584255,5.634994029998779,5.463949680328369,-11.32884693145752,-18.202463150024414
0,1584256,-18.54761505126953,32.008628845214844,-5.9991774559021,-22.032548904418945
0,1584259,-0.21431145071983337,-23.982154846191406,-13.578572273254395,-27.31122589111328
0,1584260,18.90059471130371,-27.661096572875977,-1.2292437553405762,37.294036865234375
0,1584263,3.353241205215454,-8.263209342956543,-28.029077529907227,35.19812774658203
0,1584264,-3.5192325115203857,0.424124538898468,5.982929706573486,-14.029605865478516
0,1584267,14.01644515991211,38.22988510131836,40.149078369140625,2.813488721847534
0,1584268,23.90639305114746,24.981239318847656,-13.956856727600098,-18.240522384643555
0,1584271,-19.436979293823242,0.8346414566040039,16.027854919433594,-13.205851554870605
0,1584272,-26.421483993530273,-22.9247989654541,13.920453071594238,37.42887878417969
0,1584275,2.539748430252075,-18.44854164123535,-35.5651969909668,8.297323226928711
0,1584276,15.255292892456055,3.8780248165130615,-9.241798400878906,-49.626251220703125
0,1584452,17.700519561767578,13.315759658813477,31.893564224243164,7.749077796936035
0,1584453,-1.1674485206604004,36.123653411865234,30.970563888549805,28.713937759399414
0,1584453,-17.05685043334961,4.659113883972168,-20.966001510620117,-28.89488983154297
0,1584453,-5.5058746337890625,-40.555301666259766,-25.576372146606445,2.588716745376587
0,1584453,-15.932050704956055,-12.931527137756348,-9.565116882324219,34.246673583984375
0,1584453,-5.9534831047058105,13.970706939697266,-8.176929473876953,-6.165087699890137
0,1584453,38.66872024536133,-16.545589447021484,-7.311452388763428,-47.8978385925293
0,1584454,-12.200553894042969,-11.176261901855469,-9.954129219055176,-24.929481506347656
0,1584454,-44.00163650512695,10.779435157775879,13.473145484924316,20.872188568115234
0,1584454,8.944790840148926,3.703727960586548,19.39077377319336,19.347013473510742
0,1584454,27.809749603271484,-1.4232360124588013,-1.138307809829712,-0.5546156764030457
0,1584454,13.07872486114502,5.708014488220215,9.040949821472168,-6.515502452850342
0,1584454,1.9762457609176636,9.173524856567383,13.090882301330566,-12.911818504333496
0,1584455,1.7722915410995483,-7.843404293060303,-8.742337226867676,14.778925895690918
0,1584455,-7.204517364501953,-0.43965667486190796,16.15390968322754,45.421348571777344
0,1584455,-0.6147655844688416,12.879653930664062,22.767478942871094,14.238027572631836
0,1584455,25.44662857055664,13.317276954650879,-14.190645217895508,-12.059255599975586
0,1584455,7.509651184082031,8.472695350646973,-19.816030502319336,2.4868276119232178
0,1584455,-20.70297622680664,-3.432560443878174,-0.6550194621086121,-3.6326658725738525
0,1584456,4.279481887817383,-17.251508712768555,13.280584335327148,-9.069412231445312
0,1584456,4.934403419494629,-3.815216064453125,-6.256494522094727,0.6339172720909119
0,1584456,-19.573070526123047,19.15657615661621,-15.800395011901855,-8.950949668884277
0,1584456,-8.296463012695312,-13.59728717803955,-16.211322784423828,-10.690672874450684
0,1584456,-2.934269905090332,-27.833145141601562,-23.210124969482422,-0.2916240990161896
0,1584456,-19.083372116088867,-12.602994918823242,3.9855282306671143,19.527423858642578
0,1584457,-12.721596717834473,16.510713577270508,25.630931854248047,-0.6810362935066223
0,1584457,25.708438873291016,22.353857040405273,-7.488128662109375,-25.13528060913086
0,1584457,9.759936332702637,-27.567895889282227,-13.780275344848633,12.646032333374023
0,1584457,-11.954073905944824,-10.146044731140137,37.66372299194336,1.732222318649292
0,1584457,20.21826934814453,39.9597053527832,25.77813148498535,-39.51106643676758
0,1584458,13.00136661529541,18.913366317749023,-26.14519691467285,-1.3565788269042969
0,1584458,-21.58143424987793,-23.782424926757812,-25.15582847595215,31.167007446289062
0,1584458,-20.57872200012207,-24.50198745727539,-1.2391963005065918,-18.155181884765625
0,1584458,-2.3573713302612305,9.088764190673828,21.527128219604492,-20.667850494384766
0,1584458,24.72027015686035,22.955013275146484,-6.530333518981934,13.725262641906738
0,1584458,23.88300132751465,-10.94886302947998,-31.47466468811035,-5.7586283683776855
0,1584459,-18.549747467041016,-15.741955757141113,22.254730224609375,20.2023868560791
0,1584459,-3.071481227874756,18.01725196838379,26.106807708740234,16.502565383911133
0,1584459,25.864646911621094,11.448800086975098,-22.14980697631836,-22.638891220092773
0,1584459,-24.43522071838379,-32.64680480957031,-25.061582565307617,24.11423110961914
0,1584459,-28.228084564208984,0.5867879986763,16.655963897705078,11.00882339477539
0,1584459,34.20307922363281,31.64175033569336,-6.633800029754639,-32.8795051574707
0,1584460,4.929742336273193,-23.882667541503906,-21.587074279785156,21.201948165893555
0,1584460,-14.766030311584473,-21.799367904663086,41.22584533691406,37.299530029296875
0,1584460,16.616199493408203,24.403034210205078,20.65304946899414,-24.73322296142578
0,1584460,-0.5660685896873474,44.66556167602539,-10.460330963134766,-19.295236587524414
0,1584460,-12.341054916381836,-9.697285652160645,-11.954585075378418,2.14572811126709
0,1584460,-9.37462043762207,-44.93010711669922,15.635102272033691,9.447792053222656
0,1584461,10.411603927612305,21.13475799560547,8.261484146118164,11.364991188049316
0,1584461,-17.814416885375977,5.188705921173096,-33.799766540527344,-32.13785171508789
0,1584461,-25.18548583984375,-49.18974685668945,8.079787254333496,-1.8156219720840454
0,1584461,16.404298782348633,5.896235942840576,10.466093063354492,28.32668685913086
0,1584461,6.817595958709717,23.872385025024414,-0.1355055868625641,4.263247013092041
0,1584461,10.930353164672852,1.3981820344924927,24.43937873840332,20.491506576538086
0,1584462,9.41004467010498,23.37857437133789,-15.488969802856445,3.7365164756774902
0,1584462,-17.111873626708984,-2.527797222137451,-36.328189849853516,-21.4213809967041
0,1584462,2.474630355834961,-36.532081604003906,28.46356964111328,-7.411411762237549
0,1584462,35.37214279174805,2.5157387256622314,16.87505340576172,-6.230405330657959
0,1584462,-11.3767671585083,23.698665618896484,-20.92264175415039,14.914981842041016
0,1584462,-22.204309463500977,-3.679506540298462,-4.2256293296813965,-4.302781581878662
0,1584463,19.18924903869629,11.723769187927246,-2.199599504470825,-34.98190689086914
0,1584463,-9.0392484664917,2.1513476371765137,14.299592971801758,16.724565505981445
0,1584463,-19.988866806030273,-31.901187896728516,11.009578704833984,27.904172897338867
0,1584463,11.757328987121582,-14.5045804977417,-18.934688568115234,-11.044241905212402
0,1584463,17.435705184936523,16.828237533569336,-20.505212783813477,-30.100156784057617
0,1584463,-17.2880916595459,23.87590980529785,4.031430244445801,-0.4328139126300812
0,1584464,-25.193532943725586,-10.95706558227539,12.563529014587402,25.457820892333984
0,1584464,30.546857833862305,3.171729564666748,-0.6491056680679321,-15.277668952941895
0,1584464,8.988327980041504,8.57105541229248,-4.03568696975708,2.1123099327087402
0,1584464,-23.214656829833984,-6.491085529327393,16.517995834350586,17.016887664794922
0,1584464,30.309972763061523,22.501136779785156,6.481568336486816,-6.5317535400390625
0,1584465,8.359210014343262,8.497364044189453,2.2828049659729004,0.7842751741409302
0,1584465,-13.243425369262695,-7.7983856201171875,6.361402988433838,-16.486371994018555
0,1584465,19.54522132873535,-11.373270988464355,13.162995338439941,-15.680561065673828
0,1584465,8.945337295532227,5.884438991546631,19.590530395507812,4.681769847869873
0,1584465,-18.326704025268555,16.867673873901367,-45.747100830078125,7.788493633270264
0,1584465,-23.12051010131836,-30.7762451171875,-12.039888381958008,24.71739387512207
0,1584465,15.772419929504395,-7.394383907318115,20.645225524902344,-2.533978223800659
0,1584466,14.952093124389648,10.241901397705078,-22.161026000976562,-32.925750732421875
0,1584466,-9.131421089172363,-6.707807540893555,1.968548059463501,6.324568748474121
0,1584466,-11.493526458740234,13.611881256103516,-9.9939603805542,2.11391019821167
0,1584466,-26.889890670776367,-23.915985107421875,-2.018906354904175,-2.22159743309021
0,1584466,-3.8422129154205322,-11.326438903808594,16.65433120727539,17.94036865234375
0,1584466,15.523587226867676,31.996809005737305,-3.6304242610931396,-17.378841400146484
0,1584467,2.7915291786193848,-10.126729011535645,-8.018961906433105,-23.92591094970703
0,1584467,-13.006099700927734,-26.6958065032959,-13.428078651428223,24.336198806762695
0,1584467,-11.596675872802734,10.107534408569336,4.126221656799316,6.639747142791748
0,1584467,21.594219207763672,22.51471710205078,9.332164764404297,-27.055591583251953
0,1584468,18.70427894592285,-18.60683250427246,-3.9384474754333496,-14.419286727905273
0,1584469,-20.607378005981445,-36.211856842041016,-11.405363082885742,6.021556377410889
0,1584469,-12.336174964904785,0.1903841197490692,3.721963405609131,41.41640853881836
0,1584469,11.224940299987793,33.704593658447266,22.966581344604492,9.655902862548828
0,1584469,11.550202369689941,18.587505340576172,-2.112075090408325,-33.39820861816406
0,1584469,7.0027923583984375,-4.3907647132873535,-9.628413200378418,-2.965343952178955
0,1584469,-6.684547424316406,6.512462615966797,15.683627128601074,24.45641326904297
0,1584470,5.197534084320068,-4.038951396942139,-16.51967430114746,-0.6719502210617065
0,1584471,-10.15847396850586,-7.286801338195801,-12.935464859008789,-21.85676383972168
0,1584472,-7.861545085906982,5.9864068031311035,27.75637435913086,9.97640609741211
0,1584475,21.917495727539062,1.1968843936920166,1.1201388835906982,6.614232540130615
0,1584476,-21.79196548461914,16.516340255737305,9.340065002441406,-10.513915061950684
0,1584479,-2.7211756706237793,5.138558387756348,-8.267983436584473,28.56934928894043
0,1584480,32.707767486572266,-22.588401794433594,-28.873729705810547,40.6230583190918
0,1584483,-15.33826732635498,2.7271406650543213,20.641674041748047,11.055323600769043
0,1584484,-16.6933536529541,-18.134305953979492,2.3904287815093994,-10.2814302444458
0,1584487,6.464240550994873,-13.94212532043457,-8.041221618652344,-23.61188316345215
0,1584488,5.37158203125,31.797365188598633,18.056751251220703,-27.476877212524414
0,1584491,9.722393035888672,3.7065558433532715,8.599811553955078,29.74476432800293
0,1584492,4.175655841827393,-14.66531753540039,-6.99756383895874,23.37337875366211
0,1584495,4.930792808532715,-18.909337997436523,-26.47991943359375,-71.01129150390625
0,1584496,-27.194862365722656,-9.23642635345459,-4.087360858917236,-74.69849395751953
0,1584499,-4.956538200378418,28.043624877929688,12.354166984558105,27.114274978637695
0,1584500,40.21865463256836,24.72988510131836,16.058380126953125,82.5196533203125
0,1584503,-12.080611228942871,4.255552768707275,0.8228889107704163,-13.062664985656738
0,1584504,-17.522642135620117,-24.224031448364258,-33.712913513183594,-14.67746353149414
0,1584507,-5.307775974273682,-15.364301681518555,15.553640365600586,3.098182439804077
0,1584508,3.1309659481048584,18.46683692932129,22.026880264282227,-13.934552192687988
0,1584511,6.345950603485107,5.955416202545166,-30.15793228149414,44.326934814453125
0,1584512,-12.751314163208008,9.107826232910156,1.9980597496032715,-14.310694694519043
0,1584515,9.178503036499023,-5.4741902351379395,31.00873565673828,-13.816075325012207
0,1584516,-3.8346452713012695,-13.039794921875,-19.381444931030273,28.21409034729004
0,1584519,5.604474067687988,24.818052291870117,-21.642518997192383,-2.8447582721710205
0,1584520,39.20731735229492,13.00102710723877,24.156803131103516,41.00883865356445
0,1584705,-28.412185668945312,-45.50444412231445,-2.4625601768493652,-19.289358139038086
0,1584705,-23.915822982788086,-11.235429763793945,-12.866463661193848,-91.89747619628906
0,1584705,32.2533073425293,41.13743209838867,12.34028434753418,8.320045471191406
0,1584705,-13.035606384277344,-5.023486614227295,15.591341018676758,57.06694030761719
0,1584705,-27.08320426940918,-31.617942810058594,3.6514925956726074,10.312383651733398
0,1584706,20.388660430908203,13.501172065734863,-4.564396381378174,-35.73925018310547
0,1584706,23.835491180419922,28.127431869506836,7.585903167724609,-29.84099578857422
0,1584706,-6.311000823974609,-25.960119247436523,-12.389495849609375,-0.8037384152412415
0,1584706,-10.366195678710938,-30.301956176757812,-17.081907272338867,-2.516470193862915
0,1584706,-14.456472396850586,14.880353927612305,15.209309577941895,6.606545448303223
0,1584706,-12.320286750793457,18.499893188476562,5.525218486785889,6.294092178344727
0,1584707,18.577823638916016,-15.152629852294922,-9.729445457458496,-9.318869590759277
0,1584707,13.401122093200684,-24.571674346923828,-23.099721908569336,24.98631477355957
0,1584707,-10.764423370361328,30.958526611328125,-4.0663628578186035,50.392642974853516
0,1584707,6.542436122894287,55.320560455322266,47.94327926635742,12.456819534301758
0,1584707,24.11042022705078,-25.613645553588867,-20.793249130249023,2.3205132484436035
0,1584707,-12.291014671325684,-50.303958892822266,-39.591407775878906,19.878936767578125
0,1584708,-36.41714096069336,26.167497634887695,39.43954849243164,28.622127532958984
0,1584708,22.4212703704834,41.21079635620117,21.104034423828125,0.14699524641036987
0,1584708,30.53038215637207,-14.425515174865723,-17.307281494140625,-35.90636444091797
0,1584708,-39.54591369628906,-22.151123046875,-15.936469078063965,1.2603429555892944
0,1584708,-20.642072677612305,-6.59625244140625,-3.3619744777679443,-1.5430976152420044
0,1584709,21.24772071838379,-8.828553199768066,11.639336585998535,-38.659542083740234
0,1584709,-0.21530656516551971,14.03968334197998,-0.350077360868454,-14.612838745117188
0,1584709,-6.099007606506348,10.240763664245605,-36.148948669433594,5.064934253692627
0,1584709,-12.3204345703125,-19.577978134155273,14.255515098571777,-5.770624160766602
0,1584709,16.09751319885254,-20.844934463500977,34.2009162902832,-24.905651092529297
0,1584709,14.511123657226562,-15.365012168884277,-32.36653137207031,-2.2726852893829346
0,1584710,-33.01911544799805,1.5499292612075806,12.952000617980957,-0.47118043899536133
0,1584710,10.139793395996094,23.818756103515625,43.2816162109375,-25.9193115234375
0,1584710,35.749732971191406,30.160804748535156,-11.498631477355957,-3.7977726459503174
0,1584710,0.8683425784111023,1.8203288316726685,-22.924789428710938,12.239372253417969
0,1584710,-24.769668579101562,-39.139793395996094,3.152960777282715,-7.472987174987793
0,1584710,13.29185962677002,-7.115647315979004,20.224552154541016,-27.15158462524414
0,1584711,33.51779556274414,31.569473266601562,-17.94570541381836,2.580700397491455
0,1584711,-43.784183502197266,12.935802459716797,-20.741605758666992,20.893949508666992
0,1584711,-51.998992919921875,-4.383608818054199,29.926979064941406,-22.421157836914062
0,1584711,28.185035705566406,1.4355982542037964,-1.3101140260696411,-45.99021911621094
0,1584711,54.51089096069336,-4.036069393157959,-32.33736038208008,-26.75505256652832
0,1584711,-12.895970344543457,-24.667287826538086,-0.9479857683181763,13.411855697631836
0,1584712,-35.18971633911133,8.684649467468262,6.395804405212402,45.951873779296875
0,1584712,8.065595626831055,15.835589408874512,-0.30699723958969116,9.919598579406738
0,1584712,1.1659802198410034,-10.175713539123535,-2.9081170558929443,-17.175588607788086
0,1584712,-15.81942081451416,-6.326530456542969,0.8692553639411926,30.760520935058594
0,1584712,41.11528778076172,15.745593070983887,10.413154602050781,57.26307678222656
0,1584712,37.4293327331543,1.744663119316101,18.943384170532227,30.336990356445312
0,1584713,-41.02490997314453,-33.53078079223633,-0.6849514245986938,3.1871352195739746
0,1584713,-20.148305892944336,17.228652954101562,-15.345895767211914,-17.50247573852539
0,1584713,5.168859481811523,14.585103988647461,10.971673965454102,7.556319236755371
0,1584713,5.895677089691162,-25.13797950744629,6.020308971405029,16.273509979248047
0,1584713,1.8042786121368408,-3.819021463394165,-10.853705406188965,-27.26923370361328
0,1584713,-25.034687042236328,-0.37602928280830383,7.520224094390869,24.604843139648438
0,1584714,12.452329635620117,6.001122951507568,2.4882073402404785,0.6182695031166077
0,1584714,14.80439567565918,-2.00589656829834,-13.009498596191406,-42.136165618896484
0,1584714,-28.359130859375,-6.913476943969727,-1.4089406728744507,31.583221435546875
0,1584714,8.771333694458008,27.773771286010742,8.400322914123535,-1.8417350053787231
0,1584714,15.124112129211426,11.465397834777832,2.0010833740234375,-9.245174407958984
0,1584714,-8.701579093933105,-12.871312141418457,-14.26401138305664,35.268890380859375
0,1584715,26.292566299438477,2.651196002960205,-13.223725318908691,-6.949394702911377
0,1584715,6.437331199645996,-0.45190930366516113,-24.854244232177734,14.008606910705566
0,1584715,-9.433396339416504,17.194387435913086,19.024568557739258,22.366336822509766
0,1584715,3.2167022228240967,29.593379974365234,59.98554611206055,-45.83137893676758
0,1584715,-25.836137771606445,-14.246813774108887,-7.201603412628174,-8.56857967376709
0,1584715,5.551919460296631,-23.020082473754883,-20.99694061279297,13.30978012084961
0,1584716,18.254053115844727,7.0305705070495605,3.842790365219116,2.5760231018066406
0,1584716,-0.09370369464159012,1.2559661865234375,5.799453258514404,1.351384162902832
0,1584716,4.094286918640137,-10.60776424407959,5.965939521789551,-16.8466796875
0,1584716,-21.488332748413086,13.94855785369873,-8.237972259521484,10.385177612304688
0,1584716,-4.524541854858398,-17.794313430786133,-20.6240291595459,-11.681912422180176
0,1584716,13.152605056762695,-29.931764602661133,-11.190561294555664,-18.843700408935547
0,1584717,-22.534687042236328,21.483047485351562,7.304874897003174,14.917868614196777
0,1584717,-3.6631267070770264,1.7270548343658447,5.631622791290283,7.523693084716797
0,1584717,18.324634552001953,-12.067513465881348,-4.108057498931885,-15.87333869934082
0,1584717,-8.02131462097168,5.382513999938965,-21.05450439453125,1.0725785493850708
0,1584717,4.50050687789917,13.07301139831543,-1.037024974822998,-10.374213218688965
0,1584718,-2.9623398780822754,-6.700380325317383,18.635547637939453,-35.41886901855469
0,1584718,-30.558427810668945,-20.05149269104004,-8.77663803100586,26.75021743774414
0,1584718,-9.831748008728027,12.965526580810547,12.789712905883789,22.104503631591797
0,1584718,37.14950942993164,19.176023483276367,13.037261009216309,-18.28135108947754
0,1584718,38.78053665161133,-12.81359577178955,-17.710546493530273,4.187151908874512
0,1584718,-30.163307189941406,-12.678833961486816,18.886919021606445,0.9724921584129333
0,1584719,-10.596879005432129,21.294763565063477,4.401917934417725,-28.176603317260742
0,1584719,27.804515838623047,-1.135846495628357,-30.25315284729004,15.193819046020508
0,1584719,-25.756980895996094,-14.784103393554688,-4.334558486938477,44.744110107421875
0,1584719,-12.243504524230957,4.949418544769287,18.844709396362305,-21.672542572021484
0,1584719,31.329519271850586,2.4092295169830322,27.414939880371094,-25.182449340820312
0,1584719,5.034458637237549,17.107629776000977,-6.7858428955078125,1.3247153759002686
0,1584720,-28.031909942626953,-8.371110916137695,-17.90624237060547,-2.539562463760376
0,1584720,-0.7671959400177002,-26.9284610748291,9.616798400878906,17.814373016357422
0,1584720,32.849239349365234,18.07548713684082,-10.058743476867676,-6.174814224243164
0,1584720,-13.225605010986328,17.24131202697754,-3.5406370162963867,-34.57146453857422
0,1584720,-24.805809020996094,-17.67900276184082,2.7106821537017822,2.6198313236236572
0,1584722,1.9000110626220703,-11.87393569946289,-11.90306568145752,42.977684020996094
0,1584722,0.019269317388534546,-2.02439022064209,0.9198558926582336,-0.9783552885055542
0,1584722,24.02890396118164,-10.505120277404785,-6.914802551269531,-18.97000503540039
0,1584722,1.7274233102798462,-1.2330669164657593,14.643178939819336,46.316184997558594
0,1584722,-22.463504791259766,23.631858825683594,18.174266815185547,5.884210586547852
0,1584722,14.435367584228516,18.14749526977539,-20.98853302001953,-40.44286346435547
0,1584723,-0.2313685417175293,-7.889051914215088,-5.566312313079834,19.751338958740234
0,1584723,-18.527488708496094,-0.39113301038742065,22.001203536987305,16.631898880004883
0,1584724,19.522672653198242,20.550628662109375,-3.715937376022339,-18.596088409423828
0,1584725,4.526082992553711,-25.773681640625,-15.478623390197754,12.399860382080078
0,1584727,-11.45867919921875,2.12990665435791,20.75969886779785,-20.82099151611328
0,1584729,22.76295280456543,86.07996368408203,41.29977798461914,-162.03616333007812
0,1584731,11.716550827026367,-5.081153392791748,9.308418273925781,-83.58574676513672
0,1584733,-25.140031814575195,-121.1530990600586,-27.93901252746582,189.92788696289062
0,1584735,-13.18836784362793,-22.78632354736328,-24.912471771240234,119.12400817871094
0,1584737,22.185976028442383,75.59683990478516,-26.294212341308594,-46.600311279296875
0,1584739,-4.698086261749268,-13.750125885009766,-16.675107955932617,23.810848236083984
0,1584741,-20.75787353515625,-21.367271423339844,9.309392929077148,-13.999876976013184
0,1584743,21.10194206237793,44.36567306518555,34.550228118896484,-103.65544128417969
0,1584745,2.920433759689331,-0.8088904619216919,13.409602165222168,34.88463592529297
0,1584747,-26.652297973632812,-55.58230972290039,-26.39246368408203,112.50778198242188
0,1584749,-9.251276969909668,3.826669931411743,-21.21769905090332,-12.389495849609375
0,1584751,-4.377255439758301,23.008508682250977,-3.1830193996429443,-53.06599807739258
0,1584753,18.729055404663086,-5.2520551681518555,39.728179931640625,-31.61985969543457
0,1584755,20.166902542114258,12.823991775512695,21.60307502746582,9.744410514831543
0,1584757,-16.594188690185547,-8.425015449523926,-24.531919479370117,3.3241519927978516
0,1584759,8.86404037475586,3.455955982208252,-24.976940155029297,-19.5376033782959
0,1584761,3.0900371074676514,17.739622116088867,-10.324352264404297,29.003957748413086
0,1584763,-5.2866621017456055,-23.159236907958984,32.51742935180664,50.73691177368164
0,1584765,21.785430908203125,14.301850318908691,39.535888671875,-18.12015724182129
0,1584767,-36.81958770751953,17.303590774536133,-39.129425048828125,-139.7202606201172
0,1584769,-2.1997973918914795,-53.1276969909668,-68.87271118164062,1.9975098371505737
0,1584771,46.679115295410156,-9.132651329040527,36.33894348144531,115.62744140625
0,1584773,-3.3545453548431396,47.9508171081543,52.877403259277344,-46.71978759765625
0,1584775,-4.411898612976074,27.495643615722656,10.272400856018066,-23.908376693725586
0,1584968,0.20819322764873505,-62.00709915161133,8.127975463867188,21.512807846069336
0,1584968,17.457517623901367,-39.316123962402344,-19.52850914001465,-26.409908294677734
0,1584968,-3.9818429946899414,51.79766845703125,-7.389157295227051,41.86054229736328
0,1584968,-27.429410934448242,8.852071762084961,-10.312458992004395,53.01720428466797
0,1584969,10.8697509765625,-6.597743034362793,-14.325501441955566,10.034112930297852
0,1584969,6.22386360168457,-5.787177085876465,5.996877193450928,23.06839942932129
0,1584969,-20.00788116455078,-3.0339579582214355,-2.543721914291382,20.524639129638672
0,1584969,-13.737507820129395,30.321645736694336,-18.752004623413086,-4.397246837615967
0,1584969,-8.653363227844238,20.174673080444336,-14.73119068145752,-0.5420390367507935
0,1584969,-11.273456573486328,-9.67016315460205,22.402992248535156,2.612729549407959
0,1584970,1.0281150341033936,-5.64751672744751,19.916187286376953,-28.08129119873047
0,1584970,1.06784987449646,4.185303211212158,-16.665292739868164,-19.451208114624023
0,1584970,-12.890073776245117,-17.00841522216797,6.545956611633301,-1.8831826448440552
0,1584970,2.6906533241271973,0.0388714000582695,29.80752944946289,-6.57438325881958
0,1584970,27.708654403686523,14.278353691101074,0.33405548334121704,-6.253052234649658
0,1584970,-0.4860161244869232,-20.93543243408203,-14.64869213104248,-6.2200846672058105
0,1584971,-10.884136199951172,-21.99739646911621,9.937920570373535,-17.02448844909668
0,1584971,32.386932373046875,24.351165771484375,-7.0120930671691895,-32.95289611816406
0,1584971,-0.7247958779335022,24.171234130859375,-17.41609764099121,-2.2844021320343018
0,1584971,-24.359262466430664,-30.72919464111328,11.03537368774414,-15.761247634887695
0,1584971,7.0253071784973145,-11.389181137084961,-20.797422409057617,-23.849760055541992
0,1584972,3.449507236480713,46.24372100830078,10.878900527954102,14.760348320007324
0,1584972,18.853553771972656,13.38740062713623,24.07865333557129,-2.883495330810547
0,1584972,-12.925283432006836,-34.482177734375,-37.28837966918945,-8.978006362915039
0,1584972,-17.932283401489258,-15.813651084899902,0.21415497362613678,21.16679573059082
0,1584972,14.267529487609863,11.5119047164917,25.874740600585938,14.016329765319824
0,1584972,-0.6284958720207214,16.2308292388916,-17.910991668701172,-3.30646014213562
0,1584973,3.6220309734344482,-1.120833158493042,-28.17991065979004,45.02269744873047
0,1584973,-13.905020713806152,-8.28161907196045,10.44354248046875,42.989158630371094
0,1584973,-16.651296615600586,-5.364429473876953,16.158613204956055,1.7464392185211182
0,1584973,18.389467239379883,-1.367307424545288,-1.7031954526901245,24.465879440307617
0,1584973,16.8056583404541,7.4458537101745605,13.655475616455078,-8.770029067993164
0,1584973,-23.779075622558594,-9.20887565612793,3.7004852294921875,-2.6279337406158447
0,1584974,-16.19070053100586,6.80825138092041,-12.014033317565918,27.760513305664062
0,1584974,32.69935989379883,1.0476239919662476,-4.894367218017578,-46.669166564941406
0,1584974,17.8614501953125,-20.06566047668457,-16.819168090820312,-44.93502426147461
0,1584974,-17.025129318237305,-9.764222145080566,18.89725112915039,12.11093807220459
0,1584974,-5.1324462890625,4.020984649658203,28.208547592163086,-1.0954076051712036
0,1584974,11.09312629699707,17.656959533691406,-15.37690544128418,-26.176450729370117
0,1584975,5.190781116485596,-4.7957282066345215,-2.9666290283203125,-17.101282119750977
0,1584975,-0.3787783980369568,24.099430084228516,-8.493390083312988,-18.562349319458008
0,1584975,-3.2054197788238525,14.863972663879395,-23.13654136657715,-52.89511489868164
0,1584975,-28.606525421142578,-68.18083953857422,8.499463081359863,-22.87373924255371
0,1584975,-20.055269241333008,-16.38711929321289,13.719338417053223,19.376266479492188
0,1584975,11.540603637695312,34.90744400024414,-7.424244403839111,-46.91593551635742
0,1584976,5.339355945587158,-0.5370897054672241,-8.227299690246582,-53.28190994262695
0,1584976,-26.420970916748047,7.749512672424316,-0.5227529406547546,39.43186569213867
0,1584976,-4.259003639221191,-0.7623483538627625,8.219953536987305,11.119441032409668
0,1584976,34.25981140136719,-35.15550994873047,-11.725247383117676,-7.576584815979004
0,1584976,-15.977355003356934,-13.76010513305664,-5.015793323516846,82.56698608398438
0,1584976,-15.448713302612305,35.95938491821289,27.798274993896484,57.659061431884766
0,1584977,42.7381706237793,0.28118953108787537,-1.186601161956787,49.1119270324707
0,1584977,33.50217819213867,-19.398929595947266,-8.947612762451172,112.60160064697266
0,1584977,-7.696945667266846,29.71731185913086,23.06971549987793,67.34237670898438
0,1584977,11.579707145690918,26.03289794921875,16.19293212890625,11.476882934570312
0,1584977,19.59873390197754,0.44591641426086426,6.480491638183594,35.28746795654297
0,1584977,-25.09153175354004,-26.925283432006836,-8.89901065826416,20.268674850463867
0,1584978,1.3332432508468628,-10.541043281555176,-16.087087631225586,-43.463069915771484
0,1584978,19.387130737304688,27.934940338134766,-13.776162147521973,-52.10832214355469
0,1584978,-25.77027130126953,7.130915641784668,-4.737662315368652,-49.74617385864258
0,1584978,-30.748157501220703,14.228312492370605,38.12278747558594,-76.1474609375
0,1584978,16.141874313354492,13.897520065307617,12.614741325378418,-65.21610260009766
0,1584978,23.877105712890625,-23.74928855895996,-32.91497802734375,-30.62705421447754
0,1584979,-28.05608367919922,3.294541358947754,-18.716548919677734,-11.096416473388672
0,1584979,-22.360029220581055,12.636301040649414,7.365009784698486,-6.202610969543457
0,1584979,15.760723114013672,4.877339839935303,37.621612548828125,10.613609313964844
0,1584979,7.340583801269531,6.744091033935547,13.812714576721191,13.215726852416992
0,1584979,7.67510986328125,-12.07699966430664,-25.866785049438477,5.607473850250244
0,1584979,7.317726135253906,7.2579145431518555,11.512277603149414,4.2727274894714355
0,1584980,-0.4528825581073761,36.249271392822266,25.206741333007812,-62.806800842285156
0,1584980,-4.083957195281982,-4.331202507019043,-21.992807388305664,-66.77106475830078
0,1584980,-16.51314353942871,-13.393900871276855,-19.6460018157959,-13.530791282653809
0,1584980,2.677959680557251,15.264646530151367,11.592392921447754,-13.947728157043457
0,1584980,17.59927749633789,-36.13869094848633,-7.630673408508301,-22.662841796875
0,1584980,2.5896074771881104,-17.03730583190918,-23.013660430908203,18.21879768371582
0,1584981,-16.249736785888672,15.169547080993652,14.074211120605469,78.4166030883789
0,1584981,1.006716012954712,-16.507869720458984,25.768150329589844,65.97178649902344
0,1584981,23.899351119995117,-26.5136661529541,-14.076972007751465,52.21006774902344
0,1584981,-5.008993148803711,-32.77520751953125,-24.201824188232422,80.55022430419922
0,1584981,6.197842597961426,0.9565773010253906,-5.839736461639404,40.97720718383789
0,1584982,0.813285768032074,14.307172775268555,8.827994346618652,-10.16303825378418
0,1584982,-24.252540588378906,0.050107914954423904,22.806514739990234,-13.90192699432373
0,1584982,18.197494506835938,-3.2462522983551025,6.032585620880127,-55.691585540771484
0,1584982,2.9951040744781494,-5.278379440307617,-20.974016189575195,-117.91016387939453
0,1584982,-37.29973220825195,2.094326972961426,-28.99091911315918,-88.12738037109375
0,1584982,-24.792522430419922,3.277928590774536,16.17464828491211,31.14617919921875
0,1584983,11.122857093811035,19.756608963012695,6.607375144958496,38.326751708984375
0,1584983,14.864168167114258,4.145723342895508,-45.96525573730469,11.402851104736328
0,1584983,-25.904375076293945,-15.015094757080078,24.906383514404297,47.21343231201172
0,1584983,-9.088465690612793,13.639793395996094,31.482969284057617,19.465635299682617
0,1584983,28.77754020690918,2.608959436416626,-34.25449752807617,34.40962219238281
0,1584983,1.065700650215149,-31.88538932800293,-5.3506269454956055,76.91468048095703
0,1584984,9.78526496887207,-6.848620891571045,28.3593807220459,35.823768615722656
0,1584984,28.026060104370117,30.57234764099121,-0.601676881313324,1.549824833869934
0,1584984,-17.71418571472168,3.4877402782440186,-18.553466796875,4.22403621673584
0,1584984,10.31473445892334,-21.55727767944336,15.79183292388916,5.819125652313232
0,1584985,8.904401779174805,-9.009772300720215,9.945560455322266,5.577112197875977
0,1584986,-35.71424102783203,13.302719116210938,-30.92162322998047,-50.56920623779297
0,1584986,1.3427590131759644,4.77047872543335,-10.947513580322266,-83.30989074707031
0,1584986,18.446887969970703,-8.258047103881836,34.86970520019531,-17.79618263244629
0,1584986,6.868250370025635,15.8646240234375,9.156693458557129,-16.40667724609375
0,1584986,-21.76589584350586,-5.100311279296875,-3.035818576812744,-14.771390914916992
0,1584986,-13.59945011138916,-3.0374763011932373,19.738157272338867,15.792680740356445
0,1584987,35.770484924316406,7.859191417694092,-40.67472457885742,2.027602434158325
0,1584987,3.1037917137145996,-2.127103090286255,-18.975191116333008,20.80722427368164
0,1584988,-3.802990436553955,11.076437950134277,41.422325134277344,26.141881942749023
0,1584989,26.53026008605957,13.626209259033203,14.166251182556152,56.664573669433594
0,1584991,23.11673355102539,36.713619232177734,18.496295928955078,-13.297961235046387
0,1584993,-58.807952880859375,39.16460037231445,10.707620620727539,-156.00860595703125
0,1584995,-88.92224884033203,-43.1280632019043,-60.98758316040039,-50.35736083984375
0,1584997,54.92343521118164,-27.527854919433594,-83.00717163085938,53.556251525878906
0,1584999,50.95558166503906,31.64815902709961,26.006084442138672,-38.72221374511719
0,1585001,-54.806644439697266,-96.44339752197266,41.97264862060547,81.47518157958984
0,1585003,-2.379798173904419,-43.49394226074219,-24.880624771118164,218.21124267578125
0,1585005,57.68910217285156,149.6031036376953,64.7196044921875,-124.84850311279297
0,1585007,-32.72780990600586,26.132368087768555,63.14161682128906,-262.87152099609375
0,1585009,-21.02300262451172,-104.4838638305664,-60.484352111816406,110.46102142333984
0,1585011,51.257999420166016,1.0757654905319214,-25.486862182617188,166.88075256347656
0,1585013,-10.312108039855957,40.25266647338867,22.566417694091797,-74.16537475585938
0,1585015,-10.456427574157715,-4.999989986419678,-3.761763334274292,-40.51802062988281
0,1585018,13.009747505187988,-16.478740692138672,0.002632045652717352,59.70203399658203
0,1585019,-5.532727241516113,-7.602208614349365,-12.61954116821289,-70.30188751220703
0,1585020,-14.134994506835938,-4.01710844039917,-55.00538635253906,-53.8216667175293
0,1585023,-2.1669540405273438,9.542911529541016,43.67436981201172,206.55657958984375
0,1585024,-11.935530662536621,9.670316696166992,75.82536315917969,16.752883911132812
0,1585027,-12.633466720581055,-12.609366416931152,-26.927566528320312,-158.41709899902344
0,1585028,44.593074798583984,7.83513879776001,-7.198520183563232,51.121124267578125
0,1585031,28.118072509765625,-7.260975360870361,-37.20832824707031,-22.885997772216797
0,1585032,-23.289257049560547,19.83946990966797,-2.0863120555877686,-37.7353401184082
0,1585035,-14.27742862701416,-0.3702501952648163,81.34629821777344,91.63998413085938
0,1585036,15.893917083740234,-45.58671569824219,1.5085939168930054,76.87203979492188
0,1585231,20.376174926757812,46.62598419189453,-53.86461639404297,-66.6943130493164
0,1585231,-28.415922164916992,21.33457374572754,-25.127531051635742,-113.87080383300781
0,1585231,-23.299114227294922,-29.74458122253418,-2.903991937637329,24.716236114501953
0,1585231,7.196495532989502,7.193010330200195,-10.53538990020752,13.98003101348877
0,1585231,-18.574522018432617,-10.059057235717773,-14.659685134887695,-3.170013904571533
0,1585231,3.281723976135254,-23.138282775878906,-1.246926188468933,22.299823760986328
0,1585231,13.542829513549805,-2.4085986614227295,11.268967628479004,-39.85592269897461
0,1585232,-4.1253180503845215,2.2099831104278564,-24.41737174987793,-23.363468170166016
0,1585232,-3.498812675476074,4.297879219055176,10.667685508728027,45.981239318847656
0,1585232,-8.933518409729004,16.884984970092773,49.96675491333008,13.443315505981445
0,1585232,26.50225830078125,14.595441818237305,-9.824048042297363,-11.09765625
0,1585232,20.2645320892334,-5.102488040924072,26.772249221801758,21.591629028320312
0,1585233,-5.081325054168701,0.9361616373062134,31.749622344970703,13.064160346984863
0,1585233,2.0319948196411133,2.298219680786133,-26.4032039642334,4.922271251678467
0,1585233,-4.131138324737549,-0.7126190066337585,-7.6950764656066895,-11.720074653625488
0,1585233,12.285337448120117,1.5800212621688843,-6.896292209625244,-19.03459930419922
0,1585233,-16.95512580871582,-12.749838829040527,-26.220844268798828,10.968111038208008
0,1585233,-19.908218383789062,-7.085763931274414,-15.55137825012207,18.070232391357422
0,1585234,16.472864151000977,-2.4466652870178223,24.341238021850586,-2.4545528888702393
0,1585234,-13.649697303771973,6.701579570770264,4.146291255950928,3.547621250152588
0,1585234,-6.539944648742676,-2.3802573680877686,-20.79656410217285,2.4977447986602783
0,1585234,10.87947940826416,-19.210084915161133,-0.7303761839866638,-27.395370483398438
0,1585234,-14.277730941772461,-1.938470721244812,-15.91369915008545,-2.4819862842559814
0,1585234,-4.641690254211426,13.116991996765137,3.426374912261963,4.669620037078857
0,1585235,21.500734329223633,10.58529281616211,-4.289545059204102,-31.349599838256836
0,1585235,6.1483073234558105,0.6297112107276917,-24.36603546142578,-7.3549604415893555
0,1585235,-27.434694290161133,-17.02188491821289,19.326087951660156,8.366630554199219
0,1585235,-8.46269416809082,-14.018287658691406,20.754587173461914,18.13650894165039
0,1585235,31.275989532470703,21.37763214111328,-0.2735831141471863,16.489622116088867
0,1585235,10.478215217590332,11.021522521972656,13.46854305267334,-31.006153106689453
0,1585236,-14.985638618469238,-16.023380279541016,2.6023309230804443,12.818048477172852
0,1585236,5.25097131729126,-0.8656877279281616,-26.033693313598633,23.89629554748535
0,1585236,-1.1093225479125977,0.3091074228286743,8.249044418334961,-10.02912712097168
0,1585236,-0.37323588132858276,-2.2203361988067627,30.59952163696289,21.275863647460938
0,1585236,13.961038589477539,22.46824836730957,-5.207395076751709,0.1921517699956894
0,1585237,1.9871535301208496,22.831584930419922,-13.967456817626953,-20.428791046142578
0,1585237,1.9969797134399414,-30.764835357666016,-13.352519989013672,14.350066184997559
0,1585237,-4.4937028884887695,-29.072315216064453,14.357105255126953,17.490463256835938
0,1585237,16.264989852905273,41.192562103271484,30.215457916259766,-37.27721405029297
0,1585237,15.203164100646973,16.003219604492188,-11.629826545715332,-43.80147171020508
0,1585237,-25.036455154418945,-20.968046188354492,-19.221649169921875,12.101920127868652
0,1585238,-33.42267990112305,-5.005148887634277,-9.667742729187012,34.551387786865234
0,1585238,-15.415213584899902,-16.102903366088867,13.584169387817383,17.590639114379883
0,1585238,24.704057693481445,16.302064895629883,-3.169992446899414,-29.73090362548828
0,1585238,11.073616981506348,30.507461547851562,-32.460540771484375,-19.839332580566406
0,1585238,-22.554393768310547,-6.356515407562256,16.905216217041016,23.242528915405273
0,1585238,-11.935803413391113,-35.7679443359375,19.175350189208984,8.873311042785645
0,1585239,13.74014663696289,-20.822872161865234,-8.311629295349121,3.4299726486206055
0,1585239,9.294994354248047,35.884117126464844,-17.998306274414062,1.2664765119552612
0,1585239,-16.367795944213867,41.60597229003906,11.226981163024902,-17.573795318603516
0,1585239,16.901046752929688,-16.411731719970703,34.342952728271484,5.097012042999268
0,1585239,15.411171913146973,-20.78599739074707,-4.8973069190979,22.876895904541016
0,1585239,-4.5951056480407715,16.15912628173828,-10.469856262207031,-29.8961181640625
0,1585240,-0.5444143414497375,-14.943046569824219,-1.0457401275634766,-9.334091186523438
0,1585240,-17.476158142089844,-8.361010551452637,11.791056632995605,33.86458206176758
0,1585240,3.4493415355682373,21.783021926879883,-1.270423173904419,-11.92226505279541
0,1585240,24.479955673217773,-2.391641855239868,-16.656457901000977,-9.81339168548584
0,1585240,2.968470573425293,-16.382831573486328,21.044225692749023,17.258769989013672
0,1585240,-23.18726921081543,4.054842472076416,19.35191535949707,10.587890625
0,1585241,-15.492738723754883,-9.020811080932617,-5.374619483947754,-7.105908393859863
0,1585241,8.494583129882812,-1.1584495306015015,5.877516269683838,-14.032490730285645
0,1585241,29.395423889160156,27.210857391357422,0.49445271492004395,7.271824359893799
0,1585241,-13.159172058105469,-11.756416320800781,-5.274120807647705,9.381817817687988
0,1585241,-32.10852813720703,-13.156907081604004,11.02641773223877,-11.547723770141602
0,1585241,23.484785079956055,15.28879451751709,-2.1450324058532715,6.92140007019043
0,1585242,2.7475781440734863,16.046396255493164,3.1955225467681885,7.940950870513916
0,1585242,0.6542890667915344,-11.793858528137207,0.6091002225875854,-33.24531936645508
0,1585242,3.3539507389068604,-21.441625595092773,-25.452211380004883,4.158348083496094
0,1585242,-21.68286895751953,-0.36217281222343445,-6.125544548034668,25.498043060302734
0,1585242,17.97850227355957,5.977412700653076,-6.517256736755371,-21.243314743041992
0,1585242,12.046365737915039,-10.445036888122559,-8.746764183044434,-12.920707702636719
0,1585243,-25.245473861694336,-8.059332847595215,1.1576426029205322,23.996580123901367
0,1585243,1.344361424446106,6.748292446136475,15.256731986999512,23.774362564086914
0,1585243,22.97228240966797,2.845668315887451,13.769868850708008,-1.19419527053833
0,1585243,1.518681526184082,13.488880157470703,-10.461012840270996,-19.74555206298828
0,1585243,-14.002781867980957,-8.928009986877441,2.800062656402588,20.24151611328125
0,1585243,1.521160364151001,-11.265151977539062,10.315001487731934,30.66546058654785
0,1585244,12.932445526123047,3.7146406173706055,-18.99178123474121,-37.17302703857422
0,1585244,-15.72332763671875,-4.710572719573975,-21.512414932250977,-19.272445678710938
0,1585244,-4.146437168121338,7.946691036224365,22.010719299316406,36.22292709350586
0,1585244,20.828285217285156,0.9813633561134338,-9.958797454833984,14.70091438293457
0,1585244,-22.513992309570312,-0.6137262582778931,-25.93881607055664,-6.690967559814453
0,1585244,-17.25978660583496,15.596719741821289,14.219773292541504,-8.651788711547852
0,1585245,15.878127098083496,-12.400989532470703,-5.578210830688477,-20.14693832397461
0,1585245,-0.11533675342798233,-27.74859619140625,7.7995924949646,7.0400238037109375
0,1585245,6.9668660163879395,9.858905792236328,17.00075340270996,19.264429092407227
0,1585245,16.849977493286133,11.555103302001953,-10.834941864013672,-34.29083251953125
0,1585245,0.52013099193573,-15.069890022277832,3.289309024810791,-19.151824951171875
0,1585245,-7.980974197387695,22.343442916870117,26.082897186279297,24.465225219726562
0,1585246,8.228426933288574,33.7426872253418,-6.004234790802002,-12.535795211791992
0,1585246,0.023649007081985474,-34.23114776611328,-21.97612953186035,-13.030404090881348
0,1585246,-15.268457412719727,-8.224699020385742,16.48246955871582,0.31637611985206604
0,1585246,6.214277744293213,19.93974494934082,-0.9320858716964722,-13.951944351196289
0,1585246,13.310107231140137,-24.238964080810547,-38.318382263183594,-3.0350773334503174
0,1585247,-7.083359241485596,3.9049651622772217,6.5124688148498535,15.312344551086426
0,1585247,-11.953399658203125,20.684301376342773,31.33966827392578,-4.877968788146973
0,1585247,5.440088748931885,-4.412983417510986,-16.97783088684082,-41.36281967163086
0,1585248,7.7674150466918945,9.394824981689453,-0.08791680634021759,4.199728965759277
0,1585248,-5.202730655670166,15.438152313232422,13.041178703308105,43.045406341552734
0,1585249,-22.02009391784668,-1.1567391157150269,-4.76144552230835,16.596677780151367
0,1585249,17.101041793823242,-8.112815856933594,19.933568954467773,-12.459455490112305
0,1585249,22.73018455505371,-18.060091018676758,2.0547375679016113,4.824402809143066
0,1585249,-23.729909896850586,-3.5230202674865723,-11.209349632263184,32.79032516479492
0,1585249,-6.700850963592529,30.409189224243164,3.158518075942993,-7.9709014892578125
0,1585249,20.423736572265625,-3.2234349250793457,-9.172664642333984,-30.383073806762695
0,1585250,-3.6569674015045166,-38.86195755004883,-15.3906831741333,14.515251159667969
0,1585251,-19.372175216674805,-23.579437255859375,-38.75659942626953,2.6468288898468018
0,1585252,21.701818466186523,-10.560147285461426,-10.08712100982666,-32.525901794433594
0,1585255,-13.205897331237793,31.167661666870117,39.05963897705078,17.105113983154297
0,1585256,-35.268245697021484,24.148256301879883,-8.879194259643555,27.430442810058594
0,1585259,8.440706253051758,-28.237565994262695,-6.503450393676758,-37.047943115234375
0,1585260,10.391022682189941,-0.6639687418937683,33.60169219970703,-18.601953506469727
0,1585263,-2.1701645851135254,38.811546325683594,-6.068358898162842,70.6184310913086
0,1585264,-1.539257526397705,14.718653678894043,-37.85187911987305,4.887273788452148
0,1585267,8.90983772277832,-29.962610244750977,17.898643493652344,-87.5838851928711
0,1585268,1.787709355354309,-29.642093658447266,49.59064865112305,29.18293571472168
0,1585271,-4.168521404266357,17.55549430847168,1.856835961341858,61.12711715698242
0,1585272,19.512027740478516,25.93416404724121,-28.962440490722656,-23.886411666870117
0,1585275,9.75975513458252,4.3314595222473145,-1.7987642288208008,-4.65205717086792
0,1585276,-33.42377471923828,-31.306564331054688,15.86950969696045,18.0242977142334
0,1585279,12.012128829956055,-8.424598693847656,-20.445741653442383,-38.30366516113281
0,1585280,19.05902099609375,48.39316177368164,0.19614583253860474,-34.58290481567383
0,1585283,-37.354366302490234,-66.13459014892578,17.99422836303711,33.07390213012695
0,1585284,9.729467391967773,-23.463787078857422,8.557182312011719,-19.803634643554688
0,1585287,62.90415573120117,80.46607971191406,4.04272985458374,14.522839546203613
0,1585288,-24.816022872924805,-53.99526596069336,-49.603153228759766,55.08963394165039
0,1585291,-40.54075622558594,12.79918384552002,-27.64280128479004,-8.57053279876709
0,1585292,5.700638771057129,71.31080627441406,22.378190994262695,-1.3550320863723755
0,1585295,-20.946773529052734,-32.02313232421875,42.25737380981445,-55.75800704956055
0,1585296,23.600406646728516,-11.597710609436035,33.748146057128906,-17.199460983276367
0,1585299,11.565042495727539,-4.279913425445557,-15.124656677246094,89.32239532470703
0,1585300,-1.5773504972457886,-9.889949798583984,-20.07721710205078,-0.5921817421913147
0,1585495,24.829845428466797,6.954401969909668,-28.584989547729492,-83.25081634521484
0,1585496,-12.847210884094238,-5.95944881439209,-30.35304069519043,-10.690925598144531
0,1585496,-11.774852752685547,7.1184563636779785,8.149035453796387,42.81615447998047
0,1585496,-0.13954350352287292,15.264113426208496,37.95967102050781,-12.449307441711426
0,1585496,-0.6130486726760864,-26.809978485107422,23.668455123901367,-16.519824981689453
0,1585496,-9.120715141296387,-26.047466278076172,-12.713359832763672,20.40020179748535
0,1585496,6.52249813079834,17.764169692993164,-28.28067398071289,-17.157901763916016
0,1585497,14.12922477722168,32.755489349365234,13.3032865524292,8.307926177978516
0,1585497,-4.820313930511475,-0.4821663796901703,40.27495574951172,56.63682174682617
0,1585497,27.912691116333008,-9.971190452575684,-3.6687850952148438,-4.811509132385254
0,1585497,-1.7383028268814087,14.897656440734863,-16.7670841217041,-29.010353088378906
0,1585497,-54.925167083740234,-8.968137741088867,-5.506416320800781,14.342079162597656
0,1585497,-5.253973484039307,-5.956176280975342,23.47762107849121,3.582857608795166
0,1585498,31.727191925048828,-6.478699684143066,2.6468348503112793,-6.748048782348633
0,1585498,13.145159721374512,13.726706504821777,-20.231801986694336,31.862140655517578
0,1585498,-0.15658582746982574,25.45423698425293,21.71379852294922,24.448162078857422
0,1585498,-12.704527854919434,-52.88129425048828,0.6899290084838867,-26.426280975341797
0,1585498,-2.0575456619262695,-2.6463871002197266,-35.22990036010742,-43.04714584350586
0,1585499,11.0794677734375,34.93749237060547,-43.820621490478516,-7.324674129486084
0,1585499,-20.910295486450195,-36.96595001220703,7.129499435424805,18.039884567260742
0,1585499,-33.35835266113281,23.408430099487305,44.835227966308594,-1.9831571578979492
0,1585499,22.818571090698242,39.10590744018555,10.58067798614502,-2.3452646732330322
0,1585499,34.568206787109375,-40.1280632019043,-22.465787887573242,-24.53937339782715
0,1585499,-35.410377502441406,-33.7332649230957,-27.721982955932617,-33.822471618652344
0,1585500,-27.04429817199707,7.152853488922119,8.396141052246094,22.89111328125
0,1585500,22.676921844482422,35.70359802246094,12.960314750671387,23.052289962768555
0,1585500,6.85245943069458,-8.513259887695312,13.635174751281738,-6.289633274078369
0,1585500,2.1712021827697754,-29.193809509277344,12.52377700805664,14.786467552185059
0,1585500,26.11175537109375,24.637311935424805,-18.061918258666992,3.24638295173645
0,1585500,8.575420379638672,23.422531127929688,1.8229516744613647,-1.9398900270462036
0,1585501,-19.71988868713379,-12.590067863464355,12.24372386932373,7.641876697540283
0,1585501,2.5761160850524902,-27.202180862426758,-21.02864646911621,-2.0583536624908447
0,1585501,10.00798511505127,7.359045028686523,-2.096196174621582,11.382905960083008
0,1585501,-20.476295471191406,26.50930404663086,29.506105422973633,2.3269550800323486
0,1585501,-11.3375825881958,-6.258321762084961,1.481613039970398,-11.353710174560547
0,1585501,20.226402282714844,-8.579826354980469,-24.302043914794922,-17.19756317138672
0,1585502,5.00986909866333,3.840695858001709,-12.204536437988281,-3.759158134460449
0,1585502,-10.548762321472168,-5.884963035583496,15.732990264892578,27.502914428710938
0,1585502,-3.6838104724884033,5.660087585449219,3.1535115242004395,10.292028427124023
0,1585502,2.663940906524658,4.311965465545654,-19.313512802124023,-21.664886474609375
0,1585502,14.83348560333252,-13.431086540222168,3.019444465637207,-15.358360290527344
0,1585503,2.4028685092926025,-14.916116714477539,11.401549339294434,-11.786355972290039
0,1585503,-26.87393569946289,-12.187320709228516,9.31367015838623,0.9320469498634338
0,1585503,-14.708122253417969,46.98396682739258,10.103096008300781,18.466236114501953
0,1585503,30.168296813964844,46.419925689697266,-4.786609172821045,12.311920166015625
0,1585503,29.34067153930664,-40.47224426269531,-18.326501846313477,12.11276912689209
0,1585503,-14.914854049682617,-32.12851333618164,3.9367589950561523,-1.883184552192688
0,1585504,-19.478626251220703,-2.064382553100586,22.786170959472656,-18.35294532775879
0,1585504,4.615414619445801,-7.602820873260498,11.790977478027344,-16.388456344604492
0,1585504,-8.949975967407227,23.816585540771484,-18.086071014404297,3.225389242172241
0,1585504,-15.099907875061035,-1.585484266281128,-16.542240142822266,15.434283256530762
0,1585504,16.439373016357422,-28.608238220214844,9.526638984680176,10.293283462524414
0,1585504,-7.07074499130249,26.43301010131836,13.107989311218262,10.486387252807617
0,1585505,-18.041404724121094,15.062657356262207,-2.7655270099639893,-7.365004062652588
0,1585505,33.55263137817383,-39.084739685058594,-8.682770729064941,-17.225032806396484
0,1585505,-0.274689644575119,9.662467002868652,-0.5572959780693054,-11.739279747009277
0,1585505,-23.56953239440918,37.77710723876953,-40.731971740722656,0.11184225231409073
0,1585505,21.266542434692383,-22.29572296142578,-4.438295841217041,15.108232498168945
0,1585505,13.80302906036377,-3.133294105529785,33.25379180908203,-17.340341567993164
0,1585506,-20.771501541137695,7.645621299743652,-10.94372844696045,-18.53716278076172
0,1585506,-6.185948371887207,-11.962113380432129,12.61562728881836,23.59815216064453
0,1585506,33.42250442504883,1.864631175994873,4.885169506072998,6.612637042999268
0,1585506,5.753603935241699,5.824728488922119,-27.121212005615234,-16.31502914428711
0,1585506,-55.388614654541016,-32.10504150390625,21.135257720947266,31.881467819213867
0,1585506,-2.5068960189819336,6.775900840759277,25.618152618408203,12.765957832336426
0,1585507,61.754486083984375,60.575870513916016,-11.461419105529785,-52.36933898925781
0,1585507,-10.153135299682617,-21.773345947265625,-7.110785484313965,6.5633955001831055
0,1585507,-25.168790817260742,-11.386600494384766,-22.616098403930664,27.328365325927734
0,1585507,6.479988098144531,-0.4456418752670288,-1.7313820123672485,2.045241355895996
0,1585507,-17.673294067382812,-20.656496047973633,41.400516510009766,-9.942872047424316
0,1585507,9.761332511901855,23.459108352661133,-25.662551879882812,-3.128473997116089
0,1585508,27.306367874145508,17.116697311401367,-20.197710037231445,11.11856746673584
0,1585508,-16.80650520324707,-16.066757202148438,28.281042098999023,-27.79234504699707
0,1585508,-21.113895416259766,-9.255374908447266,-6.3179192543029785,16.979270935058594
0,1585508,17.57697868347168,11.382322311401367,28.249099731445312,34.13251495361328
0,1585508,8.36538314819336,-0.7859364748001099,10.561447143554688,-32.637020111083984
0,1585508,-21.88968276977539,-22.85788917541504,-35.360111236572266,-13.22886848449707
0,1585509,-0.8493047952651978,-17.125097274780273,3.1136651039123535,22.78683090209961
0,1585509,15.845501899719238,19.756641387939453,9.109634399414062,-10.61375617980957
0,1585509,-3.7560019493103027,25.814260482788086,-0.9461513161659241,-1.0722787380218506
0,1585509,-2.798095464706421,15.027846336364746,7.282211780548096,1.7373671531677246
0,1585509,27.784664154052734,-18.47589874267578,-23.375041961669922,-13.566855430603027
0,1585509,-4.266427993774414,-2.4406557083129883,-9.07962417602539,21.31074333190918
0,1585510,-28.8404541015625,18.81842613220215,31.273853302001953,7.872097015380859
0,1585510,5.238195419311523,-15.67532730102539,-8.517379760742188,-9.856555938720703
0,1585510,7.794809818267822,-2.367920160293579,-29.614835739135742,-4.781549453735352
0,1585510,-10.714370727539062,-7.3950395584106445,-7.969381332397461,11.327242851257324
0,1585510,1.7001898288726807,0.34665900468826294,34.806800842285156,9.94528865814209
0,1585510,15.685667991638184,3.037837266921997,9.543375015258789,-26.12478256225586
0,1585511,-13.142007827758789,-11.639693260192871,-45.81344223022461,-17.91083526611328
0,1585511,-5.087261199951172,0.5913086533546448,7.396108627319336,22.512712478637695
0,1585511,3.8142690658569336,7.511647701263428,40.68742370605469,24.9222469329834
0,1585511,5.903350353240967,3.612391710281372,-10.02152156829834,-19.426450729370117
0,1585511,10.336569786071777,-5.073205471038818,-21.416213989257812,-15.982660293579102
0,1585511,-8.964561462402344,-4.214057445526123,21.048118591308594,15.871936798095703
0,1585512,5.992565155029297,4.301798343658447,14.556375503540039,-12.934240341186523
0,1585512,-5.1328043937683105,8.82783317565918,-6.370617866516113,-20.114469528198242
0,1585513,-14.307557106018066,-14.172175407409668,1.8966193199157715,12.814595222473145
0,1585513,16.6641845703125,0.9473026394844055,-11.656646728515625,17.016109466552734
0,1585513,-10.400947570800781,-0.4979572892189026,7.401963710784912,18.387441635131836
0,1585514,-4.721344470977783,-15.234356880187988,-3.1114189624786377,-7.500261306762695
0,1585514,13.404293060302734,26.54572868347168,-22.021684646606445,-16.9149169921875
0,1585514,-12.794058799743652,19.369089126586914,16.56087303161621,19.153125762939453
0,1585514,7.604678153991699,-31.027448654174805,-18.298282623291016,-10.23270034790039
0,1585514,0.7834054231643677,-25.624256134033203,-1.3044486045837402,-2.2603588104248047
0,1585514,-3.231356382369995,30.997079849243164,31.27403450012207,2.8026626110076904
0,1585516,21.602617263793945,22.060577392578125,-23.866744995117188,-31.08946418762207
0,1585517,-2.769519090652466,-16.515735626220703,3.412811756134033,26.564556121826172
0,1585518,-19.77379035949707,-11.880630493164062,16.765138626098633,7.057370185852051
0,1585521,-11.839359283447266,-10.362805366516113,-8.126302719116211,-32.26712417602539
0,1585522,4.356510639190674,11.06999683380127,-10.335384368896484,13.700403213500977
0,1585525,9.235430717468262,19.152633666992188,-10.297514915466309,20.190061569213867
0,1585526,-6.461913585662842,8.77418327331543,28.9013614654541,5.709478378295898
0,1585529,14.50110149383545,-8.771330833435059,2.577483892440796,-4.725004196166992
0,1585530,-11.244160652160645,-36.27556610107422,-40.545066833496094,-15.006343841552734
0,1585533,-11.555041313171387,-5.922938346862793,-3.6070382595062256,-12.991714477539062
0,1585534,25.336240768432617,35.09492111206055,37.66090774536133,20.573406219482422
0,1585537,-4.099865913391113,13.542356491088867,22.14600944519043,20.5063419342041
0,1585539,-4.586199760437012,-6.8242926597595215,-19.173723220825195,-7.139032363891602
0,1585541,3.3837831020355225,11.46147346496582,-31.175716400146484,-13.447332382202148
0,1585543,-4.519907474517822,-36.46037673950195,-11.930498123168945,-1.9645029306411743
1,1585545,-7.48113489151001,-24.553625106811523,30.811635971069336,7.4483842849731445
1,1585547,7.156111240386963,64.93435668945312,27.742919921875,4.286195755004883
1,1585549,3.624594211578369,-5.536281585693359,-9.955069541931152,-30.21258544921875
1,1585551,-23.350967407226562,-71.58403015136719,-30.93692970275879,-79.7176284790039
1,1585553,48.172523498535156,35.34560012817383,4.828557968139648,78.5489501953125
1,1585555,78.31765747070312,46.48731231689453,45.57575988769531,133.4542236328125
1,1585557,-90.38994598388672,-65.89014434814453,-13.961803436279297,-72.07595825195312
1,1585559,-92.44339752197266,-18.53530502319336,-46.2117805480957,-65.30428314208984
1,1585561,52.250709533691406,56.85916519165039,-3.2259185314178467,15.238289833068848
1,1585563,32.48652267456055,6.7556867599487305,33.69472885131836,-7.242794036865234
1,1585565,-24.540273666381836,-10.443330764770508,31.334413528442383,19.779264450073242
1,1585567,7.967934608459473,40.18526077270508,-25.360788345336914,64.0073471069336
1,1585762,24.68733024597168,-8.504941940307617,-30.458948135375977,-36.253841400146484
1,1585762,-30.627904891967773,-53.5771369934082,8.207829475402832,-80.8717041015625
1,1585762,-7.513378620147705,25.301334381103516,-9.205331802368164,29.047666549682617
1,1585762,32.59678649902344,15.713805198669434,10.20569896697998,4.717895984649658
1,1585762,10.818648338317871,-19.23822021484375,6.887145519256592,-17.101768493652344
1,1585762,-15.362137794494629,3.761168956756592,-14.483317375183105,17.3406925201416
1,1585763,-7.401961326599121,1.0607166290283203,24.646116256713867,1.5950465202331543
1,1585763,31.39663314819336,-14.419841766357422,-0.9045403599739075,-4.678685188293457
1,1585763,0.32435327768325806,-24.174591064453125,-29.312246322631836,15.775798797607422
1,1585763,-28.77071762084961,13.012133598327637,-2.2915797233581543,21.006759643554688
1,1585763,-11.727293968200684,14.804438591003418,22.54802703857422,-3.960488796234131
1,1585763,3.14353609085083,7.055368423461914,6.202998638153076,-3.530794620513916
1,1585764,-1.6406251192092896,23.62796974182129,-9.525287628173828,-4.355398178100586
1,1585764,-27.770355224609375,-35.03313064575195,11.161701202392578,11.327067375183105
1,1585764,16.07267189025879,-10.2828950881958,0.7350181937217712,2.38398814201355
1,1585764,36.06515121459961,18.05026626586914,-18.071300506591797,-46.700172424316406
1,1585764,-14.30120849609375,-8.074121475219727,13.422382354736328,10.718262672424316
1,1585765,-11.913986206054688,36.457427978515625,26.482040405273438,44.31768798828125
1,1585765,14.850125312805176,3.3540146350860596,-25.462371826171875,-36.18357467651367
1,1585765,6.566804885864258,-59.65222930908203,-10.509963989257812,-13.85830020904541
1,1585765,-1.6871355772018433,-1.7236180305480957,20.801328659057617,28.538219451904297
1,1585765,4.064539909362793,52.45855712890625,-6.584748268127441,-9.430344581604004
1,1585765,0.06643521040678024,-5.728500843048096,-13.247023582458496,0.4202669560909271
1,1585766,-7.353983402252197,-24.28546142578125,-11.057921409606934,-2.7292304039001465
1,1585766,-12.724470138549805,0.7141710519790649,21.756458282470703,2.6085219383239746
1,1585766,0.8646246194839478,4.984415531158447,14.12653636932373,14.044513702392578
1,1585766,14.08249282836914,14.603585243225098,-21.63417625427246,-13.207289695739746
1,1585766,-12.747512817382812,12.596263885498047,2.5381312370300293,-6.244357585906982
1,1585766,8.007490158081055,-22.505329132080078,10.805946350097656,-11.993022918701172
1,1585767,9.370488166809082,-32.379005432128906,-8.919711112976074,0.4789201021194458
1,1585767,-38.141944885253906,24.64019775390625,2.5617752075195312,35.47096252441406
1,1585767,11.199298858642578,18.3631649017334,11.266786575317383,-1.5493243932724
1,1585767,26.994400024414062,-15.750249862670898,-4.321209907531738,-29.528478622436523
1,1585767,-24.478469848632812,0.633686900138855,-7.935499668121338,0.1634678691625595
1,1585767,-7.389934062957764,6.538234233856201,-19.75511932373047,16.167861938476562
1,1585768,12.433174133300781,-19.96012306213379,-0.8638807535171509,22.154611587524414
1,1585768,4.7239990234375,10.956206321716309,21.19936180114746,-6.83519983291626
1,1585768,31.688276290893555,29.263357162475586,11.295327186584473,-32.77153396606445
1,1585768,2.261042833328247,-27.436168670654297,-0.8069440722465515,11.784004211425781
1,1585768,-31.244638442993164,3.3960511684417725,-21.723960876464844,12.89326286315918
1,1585768,-3.675373077392578,16.10108184814453,2.9178786277770996,-8.564559936523438
1,1585769,-1.1526288986206055,-16.149293899536133,19.99971580505371,-6.507487773895264
1,1585769,8.75949478149414,9.625913619995117,-11.994524955749512,-14.05453872680664
1,1585769,-2.4562981128692627,4.343112468719482,-8.053080558776855,32.01399612426758
1,1585769,-9.176139831542969,-3.725306987762451,-0.8648378252983093,24.567304611206055
1,1585769,12.691752433776855,-10.669361114501953,-6.779900074005127,-38.43877029418945
1,1585769,-16.224815368652344,-1.8508706092834473,17.90058135986328,-4.443833827972412
1,1585770,-2.325653314590454,13.438830375671387,2.6703379154205322,-6.749609470367432
1,1585770,31.817062377929688,-42.32162094116211,-12.54105281829834,-7.791360378265381
1,1585770,-21.29922866821289,-35.15684509277344,5.645623683929443,68.81475067138672
1,1585770,-23.404682159423828,63.33329391479492,5.88344669342041,-8.465584754943848
1,1585770,29.673147201538086,54.12373352050781,1.2487125396728516,-70.06143188476562
1,1585770,5.772612571716309,-46.22547149658203,-21.53338623046875,20.714303970336914
1,1585771,-31.703882217407227,-22.624099731445312,21.40300941467285,6.605293273925781
1,1585771,22.821504592895508,24.03685760498047,23.34389877319336,-23.055683135986328
1,1585771,31.3643856048584,-3.6188156604766846,-41.101661682128906,41.064048767089844
1,1585771,-34.093238830566406,5.470555305480957,20.425321578979492,22.07906723022461
1,1585771,1.3733022212982178,0.008822139352560043,21.210054397583008,-44.604427337646484
1,1585772,35.314517974853516,-4.233625888824463,-51.87132263183594,-14.323165893554688
1,1585772,-30.06312370300293,4.043182849884033,1.613757848739624,26.325265884399414
1,1585772,-27.183881759643555,-10.824213981628418,35.56740951538086,6.244057655334473
1,1585772,29.426937103271484,0.8786727786064148,-18.94760513305664,-19.419374465942383
1,1585772,7.350330829620361,3.9257686138153076,-40.23504638671875,-10.708663940429688
1,1585772,-37.31669235229492,-17.415264129638672,14.951330184936523,5.090448379516602
1,1585772,1.5462599992752075,-20.33416175842285,39.01947784423828,1.4611802101135254
1,1585773,31.230873107910156,24.56230354309082,-10.841696739196777,11.80876350402832
1,1585773,-15.043378829956055,31.985610961914062,0.6289505362510681,12.697921752929688
1,1585773,9.486952781677246,-15.13778018951416,19.34881019592285,-13.741610527038574
1,1585773,11.515342712402344,-16.70870590209961,-15.06116008758545,-21.51592254638672
1,1585773,-41.12338638305664,10.69718074798584,-20.4488525390625,8.75162124633789
1,1585773,12.23272705078125,21.865943908691406,-4.286162853240967,28.111974716186523
1,1585774,44.379703521728516,-8.533684730529785,12.706050872802734,5.840010166168213
1,1585774,-23.39842414855957,-22.29829216003418,19.326913833618164,-26.290639877319336
1,1585774,-4.098452091217041,10.514273643493652,-4.013456344604492,-1.120430588722229
1,1585774,19.727737426757812,27.516225814819336,-15.34011173248291,32.90073013305664
1,1585774,-31.84065818786621,1.770418405532837,-5.689884185791016,-17.824193954467773
1,1585775,0.2658121585845947,-44.130210876464844,3.5250961780548096,-20.253767013549805
1,1585775,11.663410186767578,-15.901284217834473,20.605735778808594,38.953914642333984
1,1585775,-17.76690101623535,35.4062614440918,11.713622093200684,5.133780002593994
1,1585775,17.04227066040039,0.25017595291137695,-25.224943161010742,-48.66080093383789
1,1585775,6.880381107330322,-29.120447158813477,-22.21204948425293,10.38999080657959
1,1585775,-20.254961013793945,14.889460563659668,28.15363311767578,34.71076202392578
1,1585776,18.998722076416016,14.96414852142334,14.690842628479004,-32.06509780883789
1,1585776,11.881797790527344,-15.072869300842285,-19.405527114868164,-2.6027309894561768
1,1585776,-25.258047103881836,2.0793607234954834,-2.4109058380126953,32.505401611328125
1,1585776,-0.07881065458059311,11.449584007263184,2.837862014770508,-19.927465438842773
1,1585776,18.151641845703125,3.605372190475464,-0.28051528334617615,-30.85809898376465
1,1585776,-8.385518074035645,-21.619604110717773,-3.9847683906555176,19.439476013183594
1,1585777,0.84991055727005,10.899521827697754,-2.570502758026123,-2.924254894256592
1,1585777,18.879470825195312,23.410566329956055,-0.3626568913459778,-21.884910583496094
1,1585777,-25.02758026123047,-17.152711868286133,15.654572486877441,50.24448013305664
1,1585777,-25.790769577026367,1.56465744972229,10.356034278869629,17.653976440429688
1,1585777,19.677005767822266,13.931248664855957,-24.483564376831055,-52.333797454833984
1,1585777,1.6315937042236328,-13.030558586120605,0.4112459421157837,3.6165931224823
1,1585778,3.873605251312256,-18.90020751953125,19.072834014892578,19.411094665527344
1,1585778,16.53082847595215,16.620084762573242,-32.975982666015625,-30.40377426147461
1,1585778,-22.230398178100586,-8.664385795593262,-17.955583572387695,20.30718994140625
1,1585779,-5.8383049964904785,-19.074256896972656,48.71589660644531,33.12761306762695
1,1585779,16.08330535888672,34.952484130859375,3.9991185665130615,-41.76591491699219
1,1585780,-0.6859070658683777,-4.678215980529785,-44.97486114501953,-19.1758975982666
1,1585780,-7.4439568519592285,-34.18157196044922,19.671031951904297,32.914512634277344
1,1585780,-3.215839147567749,26.63028907775879,25.792930603027344,-3.7200286388397217
1,1585780,17.748464584350586,12.528260231018066,-25.124441146850586,-25.19684600830078
1,1585780,-2.6513164043426514,-38.68798065185547,-13.144675254821777,18.759960174560547
1,1585780,-26.257699966430664,-1.5195528268814087,12.598001480102539,26.050498962402344
1,1585781,3.8287389278411865,23.321645736694336,33.30723571777344,-14.346345901489258
1,1585782,17.40020751953125,-3.618886709213257,-6.248138427734375,-20.331371307373047
1,1585783,11.251429557800293,8.043572425842285,-35.394866943359375,-3.0261194705963135
1,1585784,-17.101612091064453,29.438129425048828,18.506778717041016,19.264638900756836
1,1585787,-16.16526222229004,-4.865969181060791,22.8721866607666,57.69575881958008
1,1585788,19.09744644165039,-28.530925750732422,-3.4524126052856445,14.821810722351074
1,1585791,22.981904983520508,1.2840204238891602,0.423878014087677,-131.02932739257812
1,1585792,-5.350766181945801,5.289280891418457,-13.459850311279297,-52.444786071777344
1,1585795,-29.348752975463867,2.381378650665283,-26.053592681884766,125.4422607421875
1,1585796,22.224225997924805,8.21799373626709,-20.067771911621094,35.434974670410156
1,1585799,15.33294677734375,-18.241147994995117,24.964214324951172,-4.380092620849609
1,1585800,-12.132659912109375,9.970651626586914,44.95064926147461,-28.869686126708984
1,1585803,3.9103379249572754,3.5627822875976562,-14.735912322998047,-54.71800994873047
1,1585804,-32.32505798339844,-31.446861267089844,-7.57861852645874,22.05523109436035
1,1585807,-5.114312171936035,18.56001853942871,0.25926437973976135,7.457595348358154
1,1585808,28.208620071411133,15.26200008392334,-16.422801971435547,26.08209800720215
1,1585811,3.100330114364624,-14.099306106567383,1.371705174446106,2.3340792655944824
1,1585812,-10.504897117614746,-11.153488159179688,0.4778818190097809,-17.98016357421875
1,1585815,-2.6437087059020996,9.761124610900879,19.05669593811035,21.4835205078125
1,1585816,7.555129528045654,-3.7927372455596924,5.669217109680176,-27.936920166015625
1,1585819,-10.316204071044922,-4.299090385437012,-13.07278823852539,4.170474529266357
1,1585820,5.664650917053223,28.10295867919922,-10.996650695800781,-6.5566487312316895
1,1586075,3.4317588806152344,-10.346038818359375,-12.045101165771484,-54.340843200683594
1,1586077,-12.034271240234375,-5.828887939453125,1.9386576414108276,65.18466186523438
1,1586079,25.66340446472168,16.28136444091797,-11.183547019958496,57.40462112426758
1,1586080,9.34386920928955,-2.7576496601104736,-0.5807358622550964,-46.37213897705078
1,1586083,-40.11019515991211,-16.85604476928711,28.359928131103516,-44.45797348022461
1,1586084,-1.0620908737182617,3.3651909828186035,5.138624668121338,-6.075700759887695
1,1586087,31.00555419921875,23.63574981689453,-0.8753281831741333,48.668548583984375
1,1586088,-15.512642860412598,-11.91301155090332,12.5838623046875,3.7703959941864014
1,1586091,-7.27332878112793,0.5145418047904968,-9.171833992004395,-37.38710403442383
1,1586285,12.553243637084961,16.045076370239258,-12.21353530883789,12.977088928222656
1,1586285,-16.251388549804688,-21.643911361694336,0.10810817778110504,7.942433834075928
1,1586285,-0.7485639452934265,-13.930444717407227,8.354923248291016,3.574416399002075
1,1586285,9.357558250427246,8.25627613067627,20.674968719482422,8.979935646057129
1,1586285,-4.776343822479248,5.053985595703125,-16.6334171295166,-8.508930206298828
1,1586285,6.546564102172852,-2.120426893234253,-18.165021896362305,-11.011255264282227
1,1586286,5.732900142669678,-5.34321403503418,12.467606544494629,-8.955011367797852
1,1586286,3.625117301940918,-5.5953850746154785,-17.886625289916992,8.490659713745117
1,1586286,-11.33545207977295,17.51235580444336,-6.834669589996338,13.508833885192871
1,1586286,-11.874279975891113,17.329631805419922,17.72972869873047,11.901649475097656
1,1586286,21.23362922668457,-25.490100860595703,-1.8657053709030151,8.777621269226074
1,1586286,12.842954635620117,-13.594637870788574,-2.110050916671753,-21.882368087768555
1,1586287,-12.821159362792969,-5.211814880371094,-1.7145270109176636,1.8270691633224487
1,1586287,-11.450112342834473,-6.322448253631592,5.71901798248291,16.203672409057617
1,1586287,-0.019411979243159294,1.9948103427886963,-2.094419479370117,-43.2093391418457
1,1586287,0.5936520099639893,1.4198617935180664,-11.722625732421875,-24.617952346801758
1,1586287,-11.324145317077637,-4.663841247558594,20.073976516723633,37.539920806884766
1,1586287,9.16404914855957,-7.293719291687012,6.3282294273376465,14.403105735778809
1,1586288,17.0379638671875,20.523685455322266,-8.005257606506348,0.9967435598373413
1,1586288,-20.802593231201172,2.2729580402374268,-2.0218677520751953,14.424734115600586
1,1586288,-4.020101070404053,11.098969459533691,6.974966526031494,-20.8963623046875
1,1586288,14.905594825744629,29.14354705810547,5.476039409637451,-15.28161334991455
1,1586288,-5.6137237548828125,-2.744509220123291,-5.583799362182617,17.169618606567383
1,1586289,12.622824668884277,-15.928499221801758,10.83298110961914,-7.605940818786621
1,1586289,16.374958038330078,-22.440916061401367,-10.260727882385254,4.419240951538086
1,1586289,-10.223346710205078,6.046136379241943,-1.6055094003677368,32.5355339050293
1,1586289,-11.225837707519531,9.468188285827637,-7.446998119354248,-3.099935293197632
1,1586289,-8.113531112670898,-15.88023853302002,-11.681787490844727,-13.139608383178711
1,1586289,0.906263530254364,10.648096084594727,24.432554244995117,-2.657416582107544
1,1586290,15.724174499511719,10.980147361755371,-14.53758716583252,-24.138307571411133
1,1586290,-3.4269869327545166,-30.709699630737305,-23.381032943725586,-16.92265510559082
1,1586290,-23.83878517150879,-17.950557708740234,-1.2405918836593628,10.542790412902832
1,1586290,0.3949630856513977,15.82617473602295,3.6094112396240234,4.908334732055664
1,1586290,17.47309684753418,27.13379669189453,19.0462646484375,4.321490287780762
1,1586290,-6.823296546936035,8.176703453063965,9.408040046691895,3.82509708404541
1,1586291,-6.502989768981934,-16.245689392089844,0.31595513224601746,1.6572415828704834
1,1586291,1.8595185279846191,-0.08570767939090729,10.861245155334473,9.635189056396484
1,1586291,11.305066108703613,9.069375991821289,-6.554782867431641,-13.881515502929688
1,1586291,16.836284637451172,-2.711304187774658,-18.143308639526367,3.059528112411499
1,1586291,-14.880130767822266,-7.332511901855469,15.576388359069824,15.65068531036377
1,1586291,-2.1108057498931885,-8.402267456054688,27.17781639099121,-14.298095703125
1,1586292,4.63452672958374,9.769078254699707,-21.564088821411133,-18.729503631591797
1,1586292,-9.835866928100586,5.024209499359131,-12.437129020690918,-17.31833839416504
1,1586292,3.801828145980835,-25.498144149780273,13.69711971282959,26.65813446044922
1,1586292,8.10571002960205,30.573734283447266,-11.345377922058105,25.75346565246582
1,1586292,1.7089234590530396,28.6080379486084,19.109134674072266,-26.429187774658203
1,1586292,-12.127147674560547,-21.354679107666016,12.76323127746582,-12.387709617614746
1,1586293,4.090359687805176,-7.107601165771484,-18.177845001220703,4.640320777893066
1,1586293,18.95918083190918,-18.553937911987305,-26.666488647460938,-17.082530975341797
1,1586293,-16.544872283935547,9.81411075592041,-16.130001068115234,-1.552716851234436
1,1586293,-38.865150451660156,15.755095481872559,35.67254638671875,47.17986297607422
1,1586293,18.397674560546875,-21.911283493041992,4.69368314743042,31.855979919433594
1,1586293,42.88990783691406,4.7505645751953125,-29.08316993713379,-24.382061004638672
1,1586294,-13.34822940826416,6.426786422729492,8.871694564819336,-25.096052169799805
1,1586294,-26.388660430908203,-22.08931541442871,-5.644161701202393,22.64617347717285
1,1586294,-5.351470470428467,15.262547492980957,-1.0003156661987305,31.44638442993164
1,1586294,13.514404296875,17.647018432617188,28.077430725097656,7.879267692565918
1,1586294,7.843981742858887,-14.00561237335205,3.3873188495635986,-46.03120803833008
1,1586295,-6.2130608558654785,16.604598999023438,-3.0229811668395996,9.66620922088623
1,1586295,4.806361675262451,6.0346150398254395,-6.058836460113525,51.4655876159668
1,1586295,15.225714683532715,-30.015827178955078,-13.116122245788574,-62.78641891479492
1,1586295,0.55650395154953,-12.495972633361816,8.987312316894531,-3.093132257461548
1,1586295,-19.123960494995117,16.848134994506836,18.643856048583984,52.534610748291016
1,1586295,8.179197311401367,16.486614227294922,-5.766592025756836,-46.291664123535156
1,1586295,5.577284336090088,-16.243745803833008,-24.261457443237305,-28.284866333007812
1,1586296,-31.56937026977539,-12.919937133789062,-11.390677452087402,27.385387420654297
1,1586296,1.2351704835891724,0.6172471046447754,27.620922088623047,-4.07341194152832
1,1586296,30.051620483398438,10.584260940551758,20.408397674560547,3.1968164443969727
1,1586296,6.182864189147949,30.735536575317383,-47.592933654785156,-6.187992095947266
1,1586296,-22.745662689208984,-1.6897412538528442,-0.2946009635925293,-31.03822135925293
1,1586296,6.1990065574646,-20.462873458862305,52.65919876098633,-9.923933982849121
1,1586297,9.832009315490723,-7.41628885269165,-36.008785247802734,-8.455487251281738
1,1586297,-25.14024543762207,-13.377299308776855,-25.439180374145508,21.602758407592773
1,1586297,6.8249688148498535,9.08487319946289,40.45943069458008,13.869548797607422
1,1586297,16.878219604492188,28.1908016204834,9.057043075561523,-41.24643325805664
1,1586297,1.95892333984375,-20.714630126953125,-16.666555404663086,7.859021186828613
1,1586298,-15.593094825744629,-23.7401123046875,-15.928675651550293,43.839115142822266
1,1586298,-4.8902130126953125,26.72698211669922,3.382307767868042,-5.982010841369629
1,1586298,19.19790267944336,3.848813772201538,1.9126214981079102,-1.2183330059051514
1,1586298,-23.104808807373047,-5.58128547668457,0.07435271143913269,9.883016586303711
1,1586298,-16.373552322387695,-2.0977344512939453,0.152236208319664,18.488658905029297
1,1586298,9.328767776489258,-14.651494979858398,-28.174345016479492,31.060487747192383
1,1586299,-0.31847456097602844,33.31673049926758,25.964101791381836,-2.9991605281829834
1,1586299,20.180253982543945,24.284297943115234,37.24968719482422,-6.494232177734375
1,1586299,4.130991458892822,-26.633363723754883,-23.243408203125,2.7667417526245117
1,1586299,-9.902827262878418,-22.52605628967285,-17.76015281677246,-17.55065155029297
1,1586299,8.840885162353516,-5.644377708435059,-7.472967624664307,-0.0845901221036911
1,1586299,-5.567385196685791,19.341188430786133,19.421300888061523,-6.7043328285217285
1,1586300,-6.69076681137085,-18.722562789916992,13.514355659484863,-21.269105911254883
1,1586300,15.84959602355957,-32.23898696899414,-19.32669448852539,10.286026000976562
1,1586300,-1.3320502042770386,41.591827392578125,13.56997299194336,7.498228549957275
1,1586300,-16.3027400970459,5.9724040031433105,10.17442512512207,-7.53266716003418
1,1586300,14.658069610595703,-10.7764253616333,-14.269609451293945,-20.499862670898438
1,1586300,22.676532745361328,28.76822853088379,-0.7339580059051514,-29.361785888671875
1,1586301,-24.860149383544922,-13.882566452026367,-4.338045597076416,11.69854736328125
1,1586301,-24.719762802124023,-34.800880432128906,-6.726534366607666,37.210750579833984
1,1586301,18.376129150390625,1.3814311027526855,9.500368118286133,-5.160431385040283
1,1586302,-4.100149154663086,21.56894302368164,6.827692031860352,-70.27236938476562
1,1586302,-14.773208618164062,8.09553050994873,-17.107261657714844,-46.637332916259766
1,1586303,37.546180725097656,6.15472936630249,1.4478081464767456,17.760438919067383
1,1586303,10.37738037109375,-1.5041983127593994,16.32758331298828,20.159143447875977
1,1586303,-40.57902526855469,-2.4921910762786865,-11.095385551452637,20.605222702026367
1,1586303,14.954947471618652,3.428420305252075,-21.440336227416992,5.667901039123535
1,1586303,34.28352737426758,-15.098204612731934,12.553935050964355,31.36692237854004
1,1586303,-9.984498977661133,8.9275484085083,10.061750411987305,34.033843994140625
1,1586304,-19.22929573059082,26.897903442382812,-25.82512855529785,-1.830449104309082
1,1586305,-1.1100053787231445,-12.771077156066895,30.94751739501953,74.93172454833984
1,1586306,5.003481864929199,-3.5682077407836914,19.449325561523438,87.33393859863281
1,1587171,0.12433642148971558,7.659562587738037,-30.0347843170166,-121.03929901123047
1,1587172,-11.108114242553711,-22.897926330566406,7.088306427001953,-104.79005432128906
1,1587175,-18.984704971313477,-24.024616241455078,8.191472053527832,126.14599609375
1,1587176,15.288911819458008,14.143949508666992,-7.533663272857666,75.81253051757812
1,1587179,-2.382282257080078,2.5606987476348877,-28.347599029541016,-152.63088989257812
1,1587180,-3.897609233856201,-32.330970764160156,4.556178092956543,-158.629638671875
1,1587183,34.41926956176758,-3.219409465789795,44.9749641418457,134.66415405273438
1,1587184,0.03680364415049553,22.95696449279785,2.40594482421875,130.40902709960938
1,1587187,-34.2679443359375,24.288782119750977,-30.386333465576172,-87.25053405761719
1,1587188,-12.495545387268066,12.479771614074707,-11.47248649597168,-64.18446350097656
1,1587191,21.733814239501953,11.616649627685547,12.528745651245117,10.914957046508789
1,1587192,-12.245563507080078,-4.247443199157715,4.282543182373047,17.94270133972168
1,1587195,4.106410026550293,-52.68132019042969,18.228450775146484,-7.340458393096924
1,1587196,29.98725700378418,-19.261585235595703,0.61304771900177,-1.4572653770446777
1,1587199,21.459980010986328,60.4290885925293,-28.599868774414062,36.234867095947266
1,1587200,-18.912033081054688,30.866914749145508,-19.63181495666504,25.947309494018555
1,1587203,-71.6856918334961,-21.617345809936523,-6.874009609222412,-17.623321533203125
1,1587204,14.181289672851562,-21.769834518432617,14.93720817565918,-74.76142883300781
1,1587207,31.448843002319336,1.2517372369766235,19.394243240356445,-38.9370002746582
1,1587208,-27.665925979614258,14.344146728515625,62.92352294921875,86.11418914794922
1,1587211,18.18340492248535,-9.098332405090332,30.00636863708496,80.82709503173828
1,1587212,56.295772552490234,-12.944687843322754,-68.42485809326172,2.2827978134155273
1,1587215,1.1826550960540771,-20.22031593322754,-85.74256896972656,-36.18440628051758
1,1587216,-52.7634162902832,42.357765197753906,-8.315606117248535,-23.08452606201172
1,1587411,-13.607484817504883,27.238740921020508,102.83848571777344,-15.048826217651367
1,1587411,25.762998580932617,-80.23507690429688,25.39150619506836,8.500197410583496
1,1587412,-18.860857009887695,3.828059434890747,-62.516571044921875,17.166894912719727
1,1587412,-4.40216064453125,43.27805709838867,-0.9705670475959778,-9.300509452819824
1,1587412,47.93309020996094,-13.742012023925781,14.451512336730957,11.555266380310059
1,1587412,8.469063758850098,10.65548324584961,-14.872647285461426,4.914776802062988
1,1587412,-9.779606819152832,5.1047587394714355,5.461962699890137,8.045694351196289
1,1587413,13.46848201751709,-9.382062911987305,18.586894989013672,8.544928550720215
1,1587413,-26.97766876220703,16.6470947265625,-14.928487777709961,-43.8079719543457
1,1587413,-37.91742706298828,-4.690981864929199,-8.124894142150879,-22.881855010986328
1,1587413,13.292417526245117,-6.095911979675293,7.527374744415283,-17.67417335510254
1,1587413,6.370535850524902,16.010284423828125,-11.376300811767578,-38.905860900878906
1,1587413,-16.702314376831055,-17.327604293823242,-11.714052200317383,-10.674921989440918
1,1587414,-4.906989574432373,-31.021825790405273,-9.508280754089355,5.954855918884277
1,1587414,-5.770482063293457,-22.829973220825195,-13.00773811340332,33.78156661987305
1,1587414,-4.782202243804932,16.25582504272461,4.358054161071777,9.320300102233887
1,1587414,18.649826049804688,42.646297454833984,29.22438621520996,-8.769877433776855
1,1587414,9.03819465637207,-1.836042046546936,18.26266098022461,38.13616180419922
1,1587414,-17.346132278442383,-23.478199005126953,-8.760452270507812,17.932266235351562
1,1587415,16.426090240478516,7.617484092712402,10.357197761535645,4.08976411819458
1,1587415,16.455867767333984,17.06976890563965,2.3804028034210205,9.180989265441895
1,1587415,-8.751484870910645,-3.8014097213745117,-18.11050796508789,3.292415142059326
1,1587415,26.405563354492188,10.139091491699219,12.534603118896484,28.71371078491211
1,1587415,8.268834114074707,9.321117401123047,15.366604804992676,-4.343982696533203
1,1587415,-8.471088409423828,-42.510467529296875,-3.0262539386749268,-42.288578033447266
1,1587416,5.635271072387695,-16.04489517211914,-1.7791762351989746,-23.420677185058594
1,1587416,-24.929956436157227,54.32168960571289,-14.366687774658203,0.527941882610321
1,1587416,-11.21446418762207,19.670766830444336,-20.47572135925293,4.879326343536377
1,1587416,16.487476348876953,-37.89342498779297,17.910804748535156,14.906105041503906
1,1587416,0.9470580816268921,-3.3923752307891846,29.341089248657227,-1.1704747676849365
1,1587417,-0.4351969361305237,27.239280700683594,-17.17164421081543,-26.032840728759766
1,1587417,-15.718306541442871,-6.160754680633545,-11.820588111877441,0.32544755935668945
1,1587417,-7.44185733795166,9.7006196975708,6.707582950592041,0.06383573263883591
1,1587417,23.139673233032227,10.102473258972168,-15.669498443603516,-15.299335479736328
1,1587417,-12.102655410766602,-38.85940170288086,-5.047817707061768,12.630112648010254
1,1587417,-20.13865852355957,-3.6342132091522217,4.237063884735107,2.7915031909942627
1,1587418,15.58141803741455,27.585079193115234,-4.604620933532715,-39.39992904663086
1,1587418,10.514582633972168,-26.502338409423828,-11.927417755126953,9.808252334594727
1,1587418,-2.255753993988037,-29.842086791992188,-1.1262484788894653,40.31702423095703
1,1587418,-3.1628639698028564,7.573602199554443,15.325664520263672,-1.7073744535446167
1,1587418,3.7198374271392822,-6.8920578956604,6.9503960609436035,-16.547740936279297
1,1587418,5.754319190979004,-5.545956611633301,-4.40784215927124,-14.01410961151123
1,1587419,-15.291309356689453,4.17897367477417,13.884652137756348,-3.1358182430267334
1,1587419,8.57582950592041,12.407602310180664,39.633209228515625,11.619529724121094
1,1587419,49.632781982421875,36.35393524169922,-6.568786144256592,-1.4564498662948608
1,1587419,-9.059771537780762,6.479313850402832,-36.0639762878418,-29.529449462890625
1,1587419,-40.0521125793457,-29.216257095336914,10.508601188659668,24.752822875976562
1,1587419,12.338109016418457,1.9820866584777832,3.3811259269714355,50.0409049987793
1,1587420,-12.728262901306152,0.9063991904258728,-11.042008399963379,14.659124374389648
1,1587420,-13.457219123840332,4.615677356719971,26.060150146484375,12.128824234008789
1,1587420,51.738311767578125,17.92621612548828,5.300761699676514,-2.7057838439941406
1,1587420,14.055087089538574,-4.013299942016602,-40.58600616455078,-23.571748733520508
1,1587420,-27.0390567779541,4.92960786819458,-9.112998962402344,32.76106262207031
1,1587420,-9.400043487548828,-17.85565948486328,19.87464141845703,48.613304138183594
1,1587421,1.321236491203308,-22.444416046142578,-0.8481724858283997,-79.49998474121094
1,1587421,12.46798038482666,-7.337142467498779,-13.9625244140625,-35.082515716552734
1,1587421,-33.49375534057617,-9.173137664794922,-6.744437217712402,52.27004623413086
1,1587421,-23.162742614746094,8.132017135620117,18.927576065063477,-21.954185485839844
1,1587421,45.597469329833984,-14.29761791229248,-2.3832478523254395,-21.241222381591797
1,1587421,-5.956673622131348,-12.716209411621094,-14.932642936706543,31.596269607543945
1,1587422,-26.18471908569336,32.164485931396484,26.16314697265625,9.63034725189209
1,1587422,32.295616149902344,8.529306411743164,9.177898406982422,7.120737552642822
1,1587422,7.667721271514893,-15.47675895690918,-25.32992935180664,36.345882415771484
1,1587422,-26.684003829956055,22.06597900390625,-19.812908172607422,6.41166353225708
1,1587422,-15.212166786193848,1.7488887310028076,9.648394584655762,13.943086624145508
1,1587422,3.0484447479248047,-2.321605682373047,12.448426246643066,15.44607925415039
1,1587423,11.425981521606445,48.384334564208984,8.45023250579834,-41.85162353515625
1,1587423,15.010265350341797,-4.284582614898682,18.886621475219727,-44.255104064941406
1,1587423,-1.3170987367630005,-24.242769241333008,-14.300277709960938,-11.932673454284668
1,1587423,-30.119895935058594,26.356266021728516,-15.731307029724121,17.182985305786133
1,1587423,-5.518791675567627,3.0026392936706543,18.945999145507812,-3.5856080055236816
1,1587424,-0.07064133137464523,-31.03413963317871,-7.622460842132568,-33.08693313598633
1,1587424,-22.5794620513916,-19.00613021850586,-29.47303009033203,9.432394027709961
1,1587424,-1.9452147483825684,-8.120030403137207,17.948402404785156,25.48676872253418
1,1587424,19.47951889038086,18.137256622314453,12.235577583312988,-4.552791118621826
1,1587424,20.940570831298828,16.48106575012207,-36.42871856689453,-28.47245216369629
1,1587424,11.459651947021484,-32.37019348144531,3.202425718307495,-27.889314651489258
1,1587424,-23.78447151184082,-10.565743446350098,31.948448181152344,-25.695356369018555
1,1587425,-7.54832649230957,16.845993041992188,-9.019155502319336,-12.451427459716797
1,1587425,32.187721252441406,5.228586196899414,4.601162910461426,42.91338348388672
1,1587425,3.8997256755828857,-2.974959373474121,16.648984909057617,27.331871032714844
1,1587425,3.4858906269073486,-2.4816267490386963,-9.333771705627441,-30.624406814575195
1,1587425,-4.2235565185546875,4.682901859283447,-5.235760688781738,-10.181158065795898
1,1587425,-5.166017055511475,24.6904354095459,3.8676021099090576,16.575475692749023
1,1587426,27.907175064086914,1.0274832248687744,-7.813508033752441,8.85807991027832
1,1587426,-16.320554733276367,-36.6202278137207,-8.491716384887695,6.410754203796387
1,1587426,-30.290231704711914,9.200718879699707,22.799301147460938,8.51355266571045
1,1587426,21.725074768066406,18.25973129272461,-2.769514322280884,-8.280085563659668
1,1587426,12.441807746887207,-31.388057708740234,-27.951248168945312,-1.2092372179031372
1,1587427,-23.199766159057617,2.4844815731048584,18.52381134033203,13.2039213180542
1,1587427,-1.7993587255477905,21.318328857421875,1.746295690536499,-41.93912887573242
1,1587427,-4.618420124053955,-40.220420837402344,-26.209758758544922,-31.170549392700195
1,1587427,-34.1299934387207,-5.4705305099487305,1.6265422105789185,45.894840240478516
1,1587427,1.7409651279449463,30.529863357543945,4.243494987487793,19.72981071472168
1,1587427,34.76481628417969,-9.270877838134766,10.497475624084473,-11.887066841125488
1,1587428,3.9812304973602295,-27.93032455444336,15.992546081542969,38.01746368408203
1,1587428,-6.76539945602417,5.403514862060547,2.4090309143066406,68.2094955444336
1,1587429,42.61281204223633,61.21145248413086,8.05469036102295,42.45395278930664
1,1587429,20.461227416992188,-1.0335968732833862,-1.724858283996582,-23.21031951904297
1,1587429,-55.215087890625,-42.87836456298828,-10.095621109008789,-53.15913009643555
1,1587429,-14.038763999938965,4.870047569274902,-6.987823009490967,-27.25566864013672
1,1587430,32.08181381225586,-5.515387058258057,-11.655280113220215,-20.641529083251953
1,1587430,-13.994904518127441,6.691247463226318,11.85999870300293,-20.1124267578125
1,1587430,-7.235535621643066,27.33010482788086,14.305078506469727,-24.465417861938477
1,1587430,19.368728637695312,-10.898869514465332,-5.78193473815918,-24.806039810180664
1,1587430,-11.17529296875,-23.977184295654297,-14.404359817504883,5.782812118530273
1,1587432,-33.09375762939453,-24.209190368652344,-21.88728904724121,76.89856719970703
1,1587433,4.512520790100098,65.32201385498047,-5.26300573348999,12.504866600036621
1,1587434,44.02700424194336,137.5139923095703,49.07332229614258,-66.94840240478516
1,1587437,9.694923400878906,-26.955169677734375,3.5991809368133545,-47.45167922973633
1,1587438,-28.852956771850586,-122.25525665283203,-71.2288589477539,-64.36882019042969
1,1587441,4.904176712036133,4.982549667358398,23.791955947875977,116.36104583740234
1,1587442,19.16135025024414,59.94157791137695,53.05247497558594,156.80615234375
1,1587445,-12.29150676727295,-44.403297424316406,-41.32035446166992,-73.97122192382812
1,1587446,14.145234107971191,-45.065528869628906,2.9014744758605957,-66.07524108886719
1,1587449,-10.180046081542969,4.009461879730225,44.154815673828125,38.78250503540039
1,1587450,-19.129674911499023,12.16325855255127,-17.802433013916016,13.942547798156738
1,1587453,16.93608283996582,42.39597702026367,-1.2053755521774292,-73.31501007080078
1,1587455,-47.06031799316406,-38.61392593383789,-31.891557693481445,-58.225486755371094
1,1587457,-12.102261543273926,-99.12429809570312,-32.06609344482422,26.240201950073242
1,1587459,75.34016418457031,27.28729248046875,63.21400451660156,99.55767822265625
1,1587461,-14.709710121154785,103.59465789794922,-7.467576503753662,69.11416625976562
1,1587463,-42.18815612792969,5.123778820037842,-17.081192016601562,-68.02410125732422
1,1587465,46.84939956665039,-93.24048614501953,43.04810333251953,-7.866181373596191
1,1587467,-11.09813117980957,-13.196105003356934,-4.852755546569824,-21.127296447753906
1,1587469,-15.815656661987305,115.40675354003906,-16.09996223449707,43.30781555175781
1,1587471,26.411012649536133,8.32801628112793,-2.0985124111175537,81.03654479980469
1,1587473,-22.980369567871094,-82.80986785888672,7.537352561950684,-245.79832458496094
1,1587475,-0.7621906995773315,6.792527675628662,-19.338022232055664,-0.36146947741508484
1,1587477,28.732946395874023,-7.0649237632751465,-4.793754577636719,305.9317626953125
1,1587479,12.735067367553711,28.18583869934082,29.910560607910156,-69.8582992553711
1,1587481,-17.755277633666992,128.5387725830078,-2.4547224044799805,-194.3715362548828
1,1587483,-30.37696075439453,-45.0136833190918,-22.38041114807129,-23.79286003112793
1,1587676,-24.389745712280273,-111.18175506591797,-8.973410606384277,33.23234176635742
1,1587676,4.545408248901367,49.99238967895508,0.4541377127170563,23.86859130859375
1,1587677,19.84525489807129,28.961345672607422,-16.658544540405273,-35.16169357299805
1,1587677,-7.430640697479248,-42.44792938232422,-14.188141822814941,-21.034286499023438
1,1587677,-15.960512161254883,-25.99039077758789,23.88372802734375,61.231143951416016
1,1587677,-9.088113784790039,12.18907642364502,26.173315048217773,43.46540832519531
1,1587677,24.535207748413086,25.18259620666504,-12.38666820526123,-19.72433853149414
1,1587677,14.933065414428711,-13.502914428710938,-2.629185676574707,19.524669647216797
1,1587678,-6.609303951263428,-19.00153350830078,12.848912239074707,40.19192886352539
1,1587678,5.736320972442627,-0.9292341470718384,-8.624771118164062,-14.973191261291504
1,1587678,14.78071117401123,23.699663162231445,7.2822723388671875,-24.282161712646484
1,1587678,33.70132827758789,13.17872428894043,8.998308181762695,4.461945056915283
1,1587678,-21.21519660949707,-35.0999870300293,-28.362594604492188,-17.201868057250977
1,1587678,-36.42311477661133,-5.3988165855407715,10.750571250915527,-13.12391471862793
1,1587679,27.68235206604004,23.379291534423828,35.03590774536133,19.137060165405273
1,1587679,18.98361587524414,-11.995304107666016,-23.41375732421875,-18.883182525634766
1,1587679,-10.380273818969727,-19.683637619018555,-21.41053581237793,-29.85066795349121
1,1587679,-20.93414306640625,5.369149208068848,19.78923797607422,37.52315902709961
1,1587679,1.5352598428726196,23.40433692932129,7.307213306427002,19.68893814086914
1,1587679,11.018046379089355,11.867012977600098,-7.309569835662842,-28.397974014282227
1,1587680,-14.44701862335205,-12.348353385925293,2.7774078845977783,4.253300666809082
1,1587680,1.2144755125045776,11.965595245361328,-9.470756530761719,-15.8936128616333
1,1587680,6.778564453125,-4.697882652282715,-16.687397003173828,-4.446832180023193
1,1587680,2.9972007274627686,-25.061256408691406,8.01151180267334,25.840707778930664
1,1587680,-9.508384704589844,20.603553771972656,13.072654724121094,5.966811180114746
1,1587680,-23.493492126464844,0.5307666659355164,-17.24422264099121,4.8374505043029785
1,1587681,11.966731071472168,-18.642822265625,-13.141454696655273,4.094165802001953
1,1587681,24.197528839111328,-16.607633590698242,18.186609268188477,20.516695022583008
1,1587681,-12.570076942443848,5.058852195739746,19.086063385009766,-10.309922218322754
1,1587681,4.168492317199707,34.57802200317383,-16.407752990722656,-32.83082962036133
1,1587681,20.10065269470215,-16.561513900756836,-16.512800216674805,4.161122798919678
1,1587681,-22.54380989074707,-32.53291320800781,19.19681739807129,12.108055114746094
1,1587682,12.96857738494873,12.615826606750488,-11.008537292480469,0.10806448757648468
1,1587682,21.146766662597656,29.60272979736328,-23.587966918945312,-13.358100891113281
1,1587682,-26.423171997070312,-2.569737434387207,8.488130569458008,23.680782318115234
1,1587682,-10.325695991516113,-11.079691886901855,26.527090072631836,33.48183822631836
1,1587682,7.170780181884766,13.298861503601074,17.584697723388672,-19.950559616088867
1,1587683,18.20737075805664,11.267705917358398,-18.089580535888672,-7.215516567230225
1,1587683,-5.062477111816406,5.505707263946533,-3.1238722801208496,7.9904704093933105
1,1587683,-18.113365173339844,-7.682794094085693,10.653495788574219,-4.654527187347412
1,1587683,2.6376686096191406,-28.770339965820312,0.43551933765411377,19.61762809753418
1,1587683,-15.600530624389648,-5.216663837432861,2.832522392272949,11.41164779663086
1,1587683,-7.5413818359375,12.1697998046875,0.8219695687294006,-27.180818557739258
1,1587684,12.66728687286377,9.341554641723633,10.378838539123535,37.664791107177734
1,1587684,9.064350128173828,35.32915115356445,1.2265037298202515,2.3021717071533203
1,1587684,3.0367941856384277,-9.47128963470459,-38.94490051269531,-82.18816375732422
1,1587684,-12.48090648651123,-24.3902587890625,21.0135555267334,12.351726531982422
1,1587684,1.174392580986023,-2.145131826400757,33.05521774291992,23.965320587158203
1,1587684,-8.13972282409668,-20.25340461730957,-57.291648864746094,-20.534276962280273
1,1587685,-15.134109497070312,-2.6860904693603516,18.164676666259766,-21.875732421875
1,1587685,21.021228790283203,9.652398109436035,35.56256866455078,-9.778164863586426
1,1587685,11.463770866394043,16.8902645111084,-16.643512725830078,5.835882663726807
1,1587685,-0.8754116296768188,-8.855278015136719,25.68362045288086,-12.856592178344727
1,1587685,6.284409523010254,-5.290276050567627,-14.893255233764648,2.7561750411987305
1,1587685,9.441914558410645,12.203478813171387,-21.667068481445312,3.43007755279541
1,1587686,8.328864097595215,-17.79596710205078,35.845760345458984,8.580092430114746
1,1587686,-3.998218297958374,-21.530038833618164,12.357449531555176,68.3581771850586
1,1587686,-0.4388740360736847,20.88042449951172,-13.064799308776855,80.066650390625
1,1587686,-3.8999698162078857,20.493825912475586,-10.333636283874512,8.08564567565918
1,1587686,9.008859634399414,7.046249866485596,2.453965187072754,-15.37621784210205
1,1587686,25.98444366455078,40.894508361816406,-21.943130493164062,3.991281032562256
1,1587687,-12.008713722229004,-1.6815745830535889,-11.712004661560059,-14.84174633026123
1,1587687,-15.579779624938965,-36.22190856933594,36.04471969604492,-35.11985778808594
1,1587687,25.071969985961914,-0.16107960045337677,-16.069299697875977,-42.98069763183594
1,1587687,-15.39749526977539,3.1747608184814453,-23.261381149291992,-26.45105743408203
1,1587687,-45.51603698730469,-9.35486125946045,7.577410697937012,-37.403377532958984
1,1587687,2.6647825241088867,8.104585647583008,-30.006019592285156,-34.83180618286133
1,1587688,-11.302412033081055,7.275850772857666,13.465950965881348,-32.20539093017578
1,1587688,-6.811491966247559,-5.612104415893555,39.882972717285156,-51.35190963745117
1,1587688,29.681129455566406,-8.853708267211914,-56.26832962036133,38.23899459838867
1,1587688,0.8891910314559937,-25.398223876953125,-3.8454816341400146,73.43965911865234
1,1587688,-22.195959091186523,10.297540664672852,69.61746215820312,12.929099082946777
1,1587688,-21.42555046081543,27.213665008544922,-21.716861724853516,26.874975204467773
1,1587689,-0.16664208471775055,-28.75241470336914,-38.19383239746094,18.445117950439453
1,1587689,9.680909156799316,-12.202308654785156,15.910343170166016,-5.858590602874756
1,1587689,5.648962497711182,25.455244064331055,23.62211036682129,-14.528512001037598
1,1587689,7.232508659362793,-0.9015734195709229,-3.94724702835083,-22.49431800842285
1,1587689,5.292152404785156,-18.7017822265625,-24.02783966064453,-4.258234977722168
1,1587689,0.8127205967903137,9.4866361618042,12.578219413757324,11.252131462097168
1,1587690,4.662926197052002,19.113040924072266,27.23158836364746,19.666032791137695
1,1587690,20.486181259155273,-15.256590843200684,-34.70494079589844,2.931844711303711
1,1587690,5.666182994842529,-3.2081832885742188,-28.502986907958984,4.542178153991699
1,1587690,-5.732048988342285,9.420999526977539,20.479476928710938,33.57196044921875
1,1587690,-1.6624064445495605,-11.220429420471191,11.247570037841797,37.929317474365234
1,1587691,-13.22989273071289,-0.05578995868563652,5.419490337371826,10.743252754211426
1,1587691,12.04588508605957,24.57611083984375,-1.6359840631484985,-27.718748092651367
1,1587691,26.72484588623047,-11.366447448730469,-20.553152084350586,-12.900628089904785
1,1587691,-24.944011688232422,-24.80974006652832,-14.154451370239258,-6.975942611694336
1,1587691,-27.496854782104492,11.339385032653809,17.323627471923828,-26.920167922973633
1,1587691,4.620938777923584,3.7025723457336426,21.002819061279297,-7.926368236541748
1,1587691,1.875246286392212,2.420497417449951,-6.5460405349731445,-34.040836334228516
1,1587692,0.6757350564002991,-13.425469398498535,-13.36987590789795,-57.76160430908203
1,1587692,5.320751667022705,-12.513145446777344,5.846160888671875,-0.729447603225708
1,1587692,-22.878366470336914,35.16169738769531,6.938875198364258,45.703941345214844
1,1587692,-15.522785186767578,-1.4700828790664673,-3.8791251182556152,22.324806213378906
1,1587692,39.41424560546875,-34.85997009277344,-1.240295648574829,-11.979190826416016
1,1587692,10.295916557312012,27.613157272338867,4.2213969230651855,-8.892525672912598
1,1587694,-1.4811753034591675,-37.749595642089844,8.177982330322266,34.52582550048828
1,1587694,40.34079360961914,-58.126766204833984,1.9805389642715454,58.52998352050781
1,1587694,0.04134011268615723,72.66800689697266,2.4663708209991455,10.445690155029297
1,1587694,-29.86891746520996,34.28082275390625,-1.1554319858551025,-31.826725006103516
1,1587694,5.0011186599731445,-27.35944366455078,-4.927447319030762,-12.72774887084961
1,1587695,-7.0153679847717285,-8.84593391418457,6.308023929595947,8.615068435668945
1,1587695,-21.691484451293945,18.890666961669922,10.320141792297363,6.544667720794678
1,1587695,6.327223300933838,27.09642219543457,15.28983211517334,-7.535783767700195
1,1587696,-16.562713623046875,-12.527684211730957,-8.234580993652344,34.0006217956543
1,1587696,-33.57718276977539,2.504485845565796,-8.835389137268066,52.60062026977539
1,1587699,-29.7236385345459,38.1703987121582,-24.11258316040039,-87.7043228149414
1,1587700,-49.06595230102539,26.895282745361328,-13.135765075683594,-123.8396224975586
1,1587703,59.29912185668945,-54.91281509399414,26.17362403869629,27.718984603881836
