Aktueller Finger,timestamp_ms,sensor_0,sensor_1,sensor_2,sensor_3
0,277403,28.506330490112305,1.609198808670044,7.686471462249756,-28.821029663085938
0,277405,-14.048867225646973,-12.923210144042969,18.66251564025879,-28.900985717773438
0,277407,-19.633834838867188,6.251655101776123,-10.487988471984863,17.309452056884766
0,277409,11.375372886657715,19.2869930267334,-11.199703216552734,1.249543309211731
0,277664,-5.246735572814941,-14.276165008544922,16.789440155029297,-32.370330810546875
0,277665,-7.404576778411865,-6.2146148681640625,-9.067222595214844,-12.638718605041504
0,277666,13.73868465423584,8.308736801147461,-17.993846893310547,57.672340393066406
0,277669,-2.0109150409698486,-6.415441513061523,0.9202390909194946,17.14331817626953
0,277670,-16.468385696411133,-7.542821407318115,23.816505432128906,-37.95252990722656
0,277673,2.1238484382629395,-2.4432103633880615,11.914506912231445,-22.9207763671875
0,277674,13.209851264953613,15.981672286987305,-32.03218460083008,-2.2583656311035156
0,277677,-1.3361902236938477,4.22970724105835,-17.212377548217773,14.240521430969238
0,282039,-1.0125675201416016,-29.792308807373047,15.478435516357422,-37.952884674072266
0,282039,8.273303031921387,2.318481922149658,0.1612989753484726,-39.09523010253906
0,282039,0.4143194556236267,16.649707794189453,-3.5194592475891113,45.17074203491211
0,282040,-17.85828399658203,-5.517914772033691,29.769420623779297,33.33957290649414
0,282040,-0.9488478302955627,20.46197509765625,13.564436912536621,5.814690589904785
0,282040,26.401874542236328,1.1582468748092651,-21.504966735839844,-2.567174196243286
0,282040,-3.474161386489868,-15.779807090759277,2.272311210632324,-24.569847106933594
0,282040,-9.050409317016602,23.8391056060791,3.0459232330322266,7.031808376312256
0,282042,2.3601479530334473,-7.264189720153809,-24.2153263092041,41.4635009765625
0,282043,-6.640949726104736,-19.1998348236084,9.107281684875488,31.177001953125
0,282046,4.626062393188477,-4.387735366821289,17.502410888671875,-0.22712315618991852
0,282047,-0.5508710145950317,-8.272051811218262,-18.129358291625977,-15.860268592834473
0,282048,-4.178830623626709,20.78449821472168,-12.590083122253418,-5.289032459259033
0,282051,-0.5786346793174744,0.03591770678758621,20.89105796813965,0.8384392261505127
0,282052,-24.13770866394043,-35.79654312133789,7.666128158569336,-11.552839279174805
0,282055,-9.857589721679688,9.318256378173828,-15.027462005615234,-5.377843856811523
0,282056,30.52111053466797,38.47819900512695,5.3495774269104,-6.42915153503418
0,282059,15.357901573181152,-14.178321838378906,-2.3676929473876953,-13.4887056350708
0,282060,-10.739592552185059,-14.513921737670898,-2.4129459857940674,-5.427280902862549
0,282063,6.616464138031006,19.183853149414062,7.798559665679932,-22.466428756713867
0,282065,9.824258804321289,2.447338581085205,-16.751928329467773,-4.176813125610352
0,282094,-11.801454544067383,-17.87489128112793,-9.283926963806152,42.45149230957031
0,282094,-8.25096607208252,4.01229190826416,6.457814693450928,1.4141905307769775
0,282094,1.5989596843719482,25.450069427490234,5.376208782196045,-20.16630744934082
0,282094,-4.871121883392334,-12.293478012084961,24.276294708251953,21.843059539794922
0,282095,4.26950740814209,-21.24721908569336,-14.384549140930176,-4.939818859100342
0,282095,6.4372076988220215,1.6913155317306519,-14.943321228027344,-20.428604125976562
0,282095,-7.341211795806885,15.54384708404541,13.774653434753418,-3.4541053771972656
0,282095,-3.850099802017212,0.6639171242713928,-19.872791290283203,-2.4240684509277344
0,282095,2.5122692584991455,-34.0085334777832,17.024978637695312,7.314222812652588
0,282095,4.93234920501709,0.7583568692207336,21.747879028320312,11.860129356384277
0,282096,-5.1473307609558105,43.37841033935547,-5.56296443939209,17.09389877319336
0,282096,-4.060776233673096,10.439046859741211,7.512956142425537,6.0245890617370605
0,282096,10.639662742614746,-22.452587127685547,-29.303020477294922,-3.7490551471710205
0,282096,10.303114891052246,-11.62683391571045,-16.64264488220215,-3.288883686065674
0,282097,-3.055875539779663,-1.0821256637573242,33.404598236083984,-6.5054121017456055
0,282098,3.6494007110595703,8.32563304901123,7.749183177947998,7.551994800567627
0,282099,6.4776458740234375,23.716636657714844,-18.004295349121094,-12.945913314819336
0,282102,-20.053665161132812,-22.962804794311523,16.039791107177734,-69.40642547607422
0,282103,-8.255698204040527,-26.07979965209961,15.196717262268066,5.188417434692383
0,282104,0.5540840029716492,31.876468658447266,-32.330047607421875,93.70093536376953
0,282107,-9.31553840637207,-5.696718692779541,-19.716487884521484,-4.068865776062012
0,282108,9.844677925109863,-10.069989204406738,11.033330917358398,-39.65581130981445
0,282111,15.479742050170898,30.941909790039062,24.95598602294922,15.046225547790527
0,282112,0.7460158467292786,-5.964709758758545,-2.9501287937164307,-10.678224563598633
0,282115,-8.813563346862793,-28.045902252197266,-29.66875457763672,-1.4915531873703003
0,282116,-1.2898691892623901,-4.939088821411133,7.606669902801514,34.362892150878906
0,282119,-0.7286871671676636,0.5368018746376038,12.473198890686035,-5.973944187164307
0,282120,1.0511406660079956,31.60554313659668,5.960872650146484,-24.61416244506836
0,282123,6.948455810546875,8.480899810791016,11.497836112976074,23.450183868408203
0,282164,-5.277595043182373,-35.37604522705078,-10.713116645812988,3.1404266357421875
0,282165,-3.9593584537506104,5.778645992279053,-15.942967414855957,-28.4174861907959
0,282165,7.4775495529174805,27.844953536987305,-2.9580068588256836,-9.669281959533691
0,282165,5.336258411407471,-3.2453572750091553,1.2192151546478271,-12.654741287231445
0,282165,-3.7170276641845703,-25.057212829589844,5.32274055480957,19.707082748413086
0,282165,-0.7843869924545288,9.511670112609863,6.129663944244385,21.594972610473633
0,282165,13.205425262451172,7.4108357429504395,2.0207622051239014,-19.864822387695312
0,282166,-4.541693210601807,0.64935302734375,-14.845389366149902,-5.386143684387207
0,282166,-24.452213287353516,-2.2506561279296875,1.4813045263290405,16.89849853515625
0,282166,-0.22887250781059265,-24.362913131713867,8.714506149291992,11.291878700256348
0,282166,13.305503845214844,12.942432403564453,-15.022348403930664,-3.5212533473968506
0,282166,-2.197608232498169,9.554328918457031,11.994200706481934,-7.916391372680664
0,282166,-11.803770065307617,-20.869121551513672,12.511190414428711,-15.024800300598145
0,282167,4.323344707489014,-0.6441092491149902,0.6083495616912842,-7.289107799530029
0,282167,10.175179481506348,18.15496063232422,1.4875558614730835,15.397696495056152
0,282167,-3.9284701347351074,-7.287957668304443,-2.4281935691833496,3.921004295349121
0,282167,-11.135259628295898,-12.01181697845459,2.9894156455993652,3.951908588409424
0,282167,-4.399608135223389,22.225509643554688,-3.038311243057251,1.9794621467590332
0,282168,15.412079811096191,5.316827774047852,15.549464225769043,-5.31569766998291
0,282168,13.894399642944336,-10.915839195251465,-13.484501838684082,-1.8145134449005127
0,282168,-9.661675453186035,-4.939034461975098,-25.46721839904785,-6.357102870941162
0,282169,-6.113731384277344,2.3457448482513428,19.09583854675293,6.951516151428223
0,282169,20.77713394165039,6.858299255371094,1.4088820219039917,13.435792922973633
0,282171,11.174020767211914,-1.9763368368148804,-8.987394332885742,-4.499987602233887
0,282173,-33.486968994140625,-9.274417877197266,-3.672576904296875,-4.643213272094727
0,282175,-21.464868545532227,-29.084482192993164,-9.016855239868164,1.3843883275985718
0,282177,37.542457580566406,23.927000045776367,14.376899719238281,-13.56739616394043
0,282179,-0.8129224181175232,59.02424240112305,7.777281761169434,-0.15374015271663666
0,282181,-34.178401947021484,-15.7907075881958,-19.4619083404541,4.153946876525879
0,282183,14.760887145996094,-37.05751419067383,7.536373615264893,6.177905082702637
0,282185,22.238115310668945,-4.819694519042969,8.973445892333984,11.10938835144043
0,282187,-0.34665489196777344,7.681230068206787,-21.072660446166992,-20.26384925842285
0,282189,-13.732564926147461,-10.787283897399902,12.861393928527832,2.2576277256011963
0,282191,-0.5324692130088806,2.0080983638763428,18.204858779907227,27.799577713012695
0,282193,-1.2841376066207886,26.820695877075195,-12.52873420715332,-12.842971801757812
0,282195,-11.608842849731445,-13.740812301635742,-12.063871383666992,-30.004798889160156
0,282198,18.427539825439453,-5.641598701477051,-16.89056968688965,11.871772766113281
0,282252,2.617417573928833,3.9451005458831787,11.801204681396484,25.51779556274414
0,282252,-21.09302520751953,-11.671156883239746,35.58575439453125,-2.8192214965820312
0,282252,12.828753471374512,17.614778518676758,9.931217193603516,-4.823155403137207
0,282252,6.979188442230225,-4.6026458740234375,-12.487344741821289,-9.90536880493164
0,282252,1.128108263015747,-1.698164463043213,-2.2917189598083496,-11.55485725402832
0,282252,-2.972656488418579,19.775936126708984,-6.237245082855225,-16.20171356201172
0,282253,-22.33494758605957,-21.182405471801758,-18.904674530029297,-13.969902992248535
0,282253,16.34505271911621,-10.13362979888916,9.059501647949219,13.913776397705078
0,282253,20.71051597595215,16.939620971679688,12.172176361083984,-0.8054392337799072
0,282253,-7.793341159820557,0.05809633806347847,-5.3853230476379395,-26.91973114013672
0,282253,-5.190981388092041,-15.734842300415039,-16.15709686279297,15.333769798278809
0,282253,4.794277191162109,2.5398659706115723,10.293965339660645,19.800291061401367
0,282254,-1.8458765745162964,22.969358444213867,14.477174758911133,-1.9835312366485596
0,282254,-16.69541358947754,2.8536429405212402,-28.61832618713379,18.850223541259766
0,282254,8.51054573059082,-3.815784215927124,-4.63663911819458,-12.497629165649414
0,282254,3.052191734313965,-11.866897583007812,14.892706871032715,-2.9169154167175293
0,282254,-17.253612518310547,-9.112756729125977,20.497217178344727,33.18959426879883
0,282254,7.700246334075928,15.231709480285645,13.694783210754395,10.619566917419434
0,282255,16.599580764770508,0.5713008046150208,-25.527795791625977,2.749173164367676
0,282255,3.043489694595337,-12.378478050231934,-8.401962280273438,-0.8693366646766663
0,282255,-17.539955139160156,-15.698084831237793,2.6887543201446533,5.892199993133545
0,282255,-8.502769470214844,-5.427072048187256,-0.6624738574028015,10.450611114501953
0,282255,19.113853454589844,21.56953239440918,10.683621406555176,-14.771270751953125
0,282256,1.0255532264709473,8.804898262023926,-17.313106536865234,-4.566895961761475
0,282256,-22.665054321289062,-19.498910903930664,-1.040085792541504,6.379437446594238
0,282256,5.063011646270752,3.20158052444458,33.48185729980469,-4.161733150482178
0,282256,25.555959701538086,20.3333740234375,-14.840564727783203,3.5216000080108643
0,282257,-1.426520586013794,3.1128695011138916,-18.61014747619629,-4.395336627960205
0,282257,-13.099837303161621,5.573054313659668,-0.13515183329582214,-3.947793960571289
0,282258,-2.2349727153778076,-4.454380512237549,-2.814203977584839,0.10626842081546783
0,282259,-0.4456600248813629,-9.923858642578125,28.946237564086914,-15.884939193725586
0,282262,-3.87782621383667,2.7117819786071777,2.0473668575286865,-19.99171257019043
0,282263,1.8237414360046387,2.28730845451355,-16.48655128479004,-0.8869282603263855
0,282266,0.9896367788314819,-12.811324119567871,-0.775413453578949,15.264456748962402
0,282267,9.157224655151367,-12.703542709350586,-13.133254051208496,-1.4781205654144287
0,282270,-1.1549452543258667,-3.5109899044036865,3.2847142219543457,20.670251846313477
0,282271,-15.774383544921875,13.03049087524414,9.55228042602539,5.153278350830078
0,282274,5.66689920425415,17.272966384887695,-8.949386596679688,-91.70265197753906
0,282275,1.2344685792922974,-21.397436141967773,6.171360015869141,-44.99974822998047
0,282278,19.390687942504883,2.153764247894287,14.653035163879395,98.11212921142578
0,282279,-3.6112756729125977,8.394486427307129,-2.3563971519470215,82.63806915283203
0,282282,-21.43939781188965,-4.445104598999023,-14.959562301635742,-35.89924621582031
0,282283,24.724365234375,24.300600051879883,-6.3970627784729,-40.90163040161133
0,282286,-10.273770332336426,-13.274313926696777,11.499488830566406,-8.44836139678955
0,282287,-21.656583786010742,-9.01559829711914,12.771059036254883,2.5552377700805664
0,282353,16.75373077392578,22.110469818115234,0.5292720198631287,11.947907447814941
0,282353,4.178252220153809,-16.830236434936523,-15.122498512268066,-5.150854587554932
0,282353,-3.356013774871826,-16.50054931640625,-8.24161148071289,1.0061367750167847
0,282354,1.1347014904022217,-3.8632965087890625,2.7294344902038574,13.50827693939209
0,282354,-11.803583145141602,-1.258137822151184,7.197900295257568,10.979785919189453
0,282354,-2.6863057613372803,22.280324935913086,2.9973371028900146,-25.578584671020508
0,282354,6.625417232513428,-0.29771503806114197,-17.411401748657227,-15.110657691955566
0,282354,-4.473550796508789,-10.20160961151123,-1.9318140745162964,24.66681671142578
0,282354,11.589293479919434,23.33310317993164,24.49953842163086,-0.48535528779029846
0,282355,14.92431926727295,4.380342483520508,-11.052734375,-8.852705955505371
0,282355,-11.498071670532227,-19.919418334960938,-15.18210506439209,5.468029022216797
0,282355,-9.984821319580078,-8.807209014892578,32.25907516479492,23.630762100219727
0,282355,12.396618843078613,10.423697471618652,15.374613761901855,16.29482650756836
0,282355,-4.587507247924805,15.492417335510254,-23.634382247924805,-32.36918640136719
0,282356,-19.89508628845215,-6.89391565322876,-10.405580520629883,-19.982500076293945
0,282356,17.953933715820312,-1.8488816022872925,7.095132350921631,4.818432331085205
0,282356,14.79172134399414,-20.20270347595215,-8.305798530578613,-2.3152778148651123
0,282356,-4.145660400390625,-11.758044242858887,-1.138342261314392,12.581156730651855
0,282356,7.720010280609131,37.79281234741211,22.393592834472656,10.92518138885498
0,282356,-6.509799003601074,-10.535247802734375,-7.157717227935791,-5.82050895690918
0,282357,-22.849401473999023,-20.70708465576172,-7.560742378234863,1.8887248039245605
0,282357,-5.7814483642578125,29.734643936157227,16.64383888244629,-7.605315208435059
0,282357,23.390071868896484,1.775415301322937,-7.120658874511719,-7.783240795135498
0,282357,-3.6520869731903076,-19.60991096496582,-6.850470542907715,23.575414657592773
0,282357,-14.40410327911377,-3.124783515930176,-6.364440441131592,-6.251506328582764
0,282357,16.123018264770508,1.181444764137268,-11.450736045837402,-25.189470291137695
0,282358,0.1006244570016861,2.924785852432251,4.797443389892578,27.08613395690918
0,282358,-1.6696945428848267,10.611104965209961,1.9348578453063965,8.398458480834961
0,282358,-4.388132572174072,-0.2659115195274353,-0.63270503282547,-34.85711669921875
0,282358,-7.62352180480957,-17.576135635375977,3.676114559173584,14.718880653381348
0,282358,6.566171169281006,16.728818893432617,-1.2394335269927979,13.143564224243164
0,282358,-0.3749542534351349,9.025483131408691,-0.41431865096092224,-14.208133697509766
0,282359,-6.8467559814453125,-28.441118240356445,11.774852752685547,-2.093296766281128
0,282360,-1.7955026626586914,-0.949141263961792,17.786046981811523,-0.6909948587417603
0,282360,3.598963737487793,9.913394927978516,-10.498080253601074,13.663797378540039
0,282360,5.033362865447998,1.538909912109375,-10.462104797363281,-17.161439895629883
0,282362,3.7909204959869385,-6.125114440917969,21.777774810791016,-6.698466777801514
0,282363,13.307291030883789,-2.3660337924957275,-2.8193016052246094,14.71919059753418
0,282366,-8.492284774780273,9.313563346862793,-21.04201889038086,-12.581936836242676
0,282367,-22.81222152709961,1.437102198600769,-0.3352012038230896,15.071023941040039
0,282370,29.019569396972656,8.50294303894043,-4.229902744293213,10.780654907226562
0,282371,6.449881076812744,11.436578750610352,5.093780517578125,-12.628913879394531
0,282372,-29.3619441986084,-4.845921039581299,-1.7194066047668457,2.052997350692749
0,282375,20.914005279541016,3.849147319793701,-25.96410369873047,-7.82305908203125
0,282376,11.907769203186035,5.240024089813232,18.209732055664062,-1.3934921026229858
0,282379,-24.295534133911133,-11.360404014587402,19.07288932800293,10.017474174499512
0,282380,-11.012154579162598,-15.320390701293945,-23.967037200927734,-33.73603057861328
0,282383,13.191365242004395,-16.885046005249023,-0.03507273644208908,12.10420036315918
0,282384,-1.0705196857452393,8.66430950164795,19.95441246032715,49.48680877685547
0,282387,-19.260839462280273,7.395170211791992,11.418671607971191,-11.77013111114502
0,282388,30.691650390625,1.066714882850647,-22.015886306762695,-4.969600200653076
0,282391,10.31918716430664,3.705453634262085,-10.668753623962402,-31.79559898376465
0,282392,-29.938936233520508,-3.827117919921875,26.4676570892334,-67.41609954833984
0,282471,0.9196895956993103,18.751222610473633,10.093174934387207,59.40073776245117
0,282472,13.885624885559082,-2.9529573917388916,0.3094640374183655,98.55956268310547
0,282472,5.757554531097412,-15.270028114318848,-14.156205177307129,-50.911293029785156
0,282472,-15.819753646850586,2.738640546798706,-5.778687953948975,-48.85696029663086
0,282472,-3.393611431121826,6.020719051361084,14.194314002990723,24.595239639282227
0,282472,5.839601039886475,4.1333136558532715,-0.25110191106796265,1.489383339881897
0,282472,-17.90746307373047,-10.69249153137207,-12.240067481994629,-11.580347061157227
0,282473,-6.185538291931152,-7.337423324584961,7.209611892700195,6.551126003265381
0,282473,28.631587982177734,-4.756872177124023,0.694387674331665,7.350377082824707
0,282473,8.534163475036621,3.2584354877471924,-25.20229721069336,8.361072540283203
0,282473,-20.41229248046875,11.336000442504883,7.0792765617370605,13.094623565673828
0,282473,14.514615058898926,-7.765456676483154,13.175503730773926,-19.80477523803711
0,282474,11.175518989562988,-18.572904586791992,-16.9420166015625,-23.78668975830078
0,282474,1.787154197692871,25.04010581970215,5.389394283294678,19.420597076416016
0,282474,-4.9586381912231445,25.0379695892334,3.970745086669922,14.014504432678223
0,282474,-76.0842514038086,-27.66708755493164,10.613779067993164,-18.576171875
0,282474,17.390708923339844,-5.3765034675598145,12.506294250488281,-2.754503011703491
0,282474,94.2899169921875,10.356804847717285,-26.83647346496582,-0.8772651553153992
0,282475,-33.2957763671875,10.737140655517578,22.318920135498047,-0.9465019702911377
0,282475,-29.175615310668945,4.264993667602539,13.195524215698242,5.489917278289795
0,282475,15.113408088684082,-15.061025619506836,-20.118785858154297,0.055706705898046494
0,282475,-2.3662211894989014,3.5229403972625732,12.221817970275879,3.2874765396118164
0,282475,6.17300271987915,-5.768648624420166,-20.101512908935547,2.8484315872192383
0,282475,3.0243310928344727,-9.204865455627441,-4.18886137008667,-6.338839530944824
0,282476,-6.686079025268555,7.232536792755127,15.321980476379395,-6.475860595703125
0,282476,-7.637277126312256,12.950459480285645,-21.664541244506836,5.631223678588867
0,282476,16.46769905090332,-5.778078556060791,-8.730552673339844,1.526058554649353
0,282476,4.346903324127197,-28.580345153808594,-0.11588748544454575,5.381618022918701
0,282476,-10.762619018554688,5.96638822555542,10.824885368347168,12.161850929260254
0,282476,8.97733211517334,24.036701202392578,7.977541923522949,-8.99300765991211
0,282477,-6.746018886566162,-16.912681579589844,-28.33085823059082,-3.379762887954712
0,282477,-17.648048400878906,-15.511073112487793,-3.6515402793884277,20.755027770996094
0,282477,-3.786980628967285,22.738264083862305,23.827054977416992,-3.337144613265991
0,282477,5.262415409088135,17.918132781982422,-4.397791385650635,-30.80223274230957
0,282477,14.46957778930664,-7.568076133728027,-17.40897560119629,-5.574163436889648
0,282478,-1.8386404514312744,-22.304716110229492,19.90445327758789,33.33659362792969
0,282478,-8.473352432250977,10.088652610778809,21.00510597229004,-3.221740484237671
0,282478,2.0535807609558105,5.589015483856201,-16.31444549560547,-19.939313888549805
0,282478,-5.29013204574585,-14.712719917297363,-4.281180381774902,12.545251846313477
0,282479,18.703845977783203,34.76899719238281,4.940557479858398,-2.4521596431732178
0,282479,26.368844985961914,23.34644889831543,-15.705764770507812,-2.269749641418457
0,282480,-25.003572463989258,-40.30131530761719,-8.549747467041016,11.70810604095459
0,282480,-20.877456665039062,-15.254840850830078,13.420525550842285,3.2351551055908203
0,282481,6.574462413787842,21.222267150878906,1.6716649532318115,-26.959686279296875
0,282482,-0.14812813699245453,-12.2423095703125,-54.7015380859375,-14.527180671691895
0,282485,15.145024299621582,-2.5487282276153564,1.5568045377731323,41.07454299926758
0,282486,16.939468383789062,23.213787078857422,125.79312896728516,3.391983985900879
0,282489,-9.862655639648438,-11.899747848510742,0.7392567992210388,-32.73563766479492
0,282490,-28.709321975708008,-26.089330673217773,-76.05474090576172,18.935531616210938
0,282493,-26.504013061523438,-5.520931243896484,42.611793518066406,0.6000291109085083
0,282494,22.977550506591797,6.959212303161621,34.852272033691406,-27.26681137084961
0,282497,15.52995777130127,13.067506790161133,-21.356945037841797,4.240794658660889
0,282498,-20.603137969970703,15.12134075164795,-30.05615234375,19.840553283691406
0,282501,12.122543334960938,0.006272563710808754,-25.91688346862793,-1.0148873329162598
0,282503,-3.9020369052886963,-13.344304084777832,3.70318865776062,-22.119102478027344
0,282505,-17.33544921875,7.978809833526611,18.16058349609375,17.396135330200195
0,282507,29.238801956176758,20.813976287841797,-8.38766098022461,39.05159378051758
0,282509,36.53404235839844,-8.812017440795898,-9.4386625289917,-14.68114185333252
0,282511,-19.5988826751709,-28.71968650817871,-1.5742789506912231,-34.97057342529297
0,282513,-46.49189376831055,2.364894390106201,-1.842861294746399,-11.821022987365723
0,282515,15.563854217529297,23.973731994628906,45.518192291259766,-0.5780162811279297
0,282605,29.688556671142578,-2.9919142723083496,-3.258439540863037,76.0133285522461
0,282605,-21.356128692626953,-27.619869232177734,-64.62517547607422,50.091007232666016
0,282606,-3.3264734745025635,-4.73101282119751,30.40292739868164,-80.36656188964844
0,282606,12.664545059204102,-6.7893595695495605,10.668074607849121,-41.82496643066406
0,282606,-9.190136909484863,1.0289555788040161,-19.573040008544922,18.60711669921875
0,282606,-4.365602970123291,34.30305480957031,3.3754496574401855,-17.329660415649414
0,282606,4.128030776977539,-14.682543754577637,-29.539852142333984,-23.39316177368164
0,282606,0.762337327003479,-21.46365737915039,-6.322941780090332,6.579937934875488
0,282607,-0.25355908274650574,19.811717987060547,17.508766174316406,5.47935152053833
0,282607,9.263920783996582,10.866491317749023,31.911794662475586,-18.05988883972168
0,282607,15.638492584228516,23.1811466217041,20.384984970092773,4.255441665649414
0,282607,4.3488593101501465,17.45077896118164,4.737117767333984,14.101655006408691
0,282607,-10.983036041259766,-20.368961334228516,2.0489797592163086,11.98410415649414
0,282608,0.9355912804603577,-17.2016544342041,-3.2356839179992676,8.59586238861084
0,282608,3.617461919784546,-9.921245574951172,1.1745836734771729,6.226223468780518
0,282608,-10.013516426086426,10.860705375671387,8.966450691223145,37.847740173339844
0,282608,7.095902919769287,30.87909698486328,-5.0378241539001465,1.9715570211410522
0,282608,-10.85861873626709,-24.687593460083008,-28.634567260742188,-16.476837158203125
0,282608,-32.461708068847656,-47.605247497558594,-6.230380058288574,17.490867614746094
0,282608,4.5484466552734375,25.9639949798584,-8.051719665527344,-15.733566284179688
0,282609,24.88437843322754,30.35792350769043,-19.999404907226562,-57.90289306640625
0,282609,-1.5018962621688843,-30.9542293548584,-9.468180656433105,-19.983844757080078
0,282609,-23.560705184936523,-6.259013652801514,-0.3938070237636566,8.689311981201172
0,282609,4.340689659118652,3.6658968925476074,32.36762237548828,-1.2067805528640747
0,282609,16.97737693786621,-5.309424877166748,12.418777465820312,12.658392906188965
0,282610,-9.651559829711914,25.970680236816406,-20.39337158203125,1.9938825368881226
0,282610,-7.6067728996276855,-11.287266731262207,-0.7315112948417664,1.2536823749542236
0,282610,4.653050422668457,-26.0523738861084,12.188848495483398,26.951494216918945
0,282610,0.3666057884693146,34.19260025024414,-4.642785549163818,15.29703426361084
0,282610,-5.166971683502197,10.366891860961914,-4.072077751159668,14.69955825805664
0,282610,2.072908878326416,-38.00043487548828,28.7889347076416,37.56576919555664
0,282611,17.275218963623047,23.11948585510254,20.08003044128418,0.21801108121871948
0,282611,21.0516357421875,30.560272216796875,7.399594783782959,-9.0365629196167
0,282611,5.12355899810791,-13.76469898223877,-0.6825132966041565,18.725799560546875
0,282611,-9.310537338256836,17.439769744873047,-16.027873992919922,-12.77662467956543
0,282611,1.1781631708145142,-11.179908752441406,1.403313159942627,-5.0696234703063965
0,282611,3.9622058868408203,-15.732504844665527,19.973970413208008,4.798315048217773
0,282612,9.044513702392578,24.8865966796875,-13.936366081237793,-26.247350692749023
0,282612,-3.670774459838867,0.3172331750392914,-22.979646682739258,2.0407495498657227
0,282612,-18.704580307006836,-14.737801551818848,22.450820922851562,5.980441093444824
0,282612,2.81752872467041,-31.020416259765625,6.158589839935303,-19.40271759033203
0,282612,-7.777242183685303,-9.138068199157715,-11.524971961975098,3.955395460128784
0,282612,-16.800092697143555,21.269088745117188,-1.2340465784072876,-18.2259521484375
0,282613,5.796849250793457,8.900592803955078,-0.8779585361480713,-27.595224380493164
0,282613,-3.3759772777557373,-31.162403106689453,-20.043535232543945,13.744504928588867
0,282614,-30.04306411743164,-29.412561416625977,-56.4277458190918,8.082294464111328
0,282614,-3.0874826908111572,21.28120994567871,-20.70732307434082,0.40657171607017517
0,282614,38.16585159301758,12.802266120910645,35.869869232177734,-4.588906288146973
0,282615,3.2104713916778564,10.979634284973145,12.553757667541504,-7.733760356903076
0,282616,-27.563732147216797,6.225347518920898,-12.643104553222656,20.5190372467041
0,282617,19.415119171142578,-28.057329177856445,-4.058060169219971,-22.352815628051758
0,282619,25.867273330688477,17.950536727905273,-8.916133880615234,-64.35841369628906
0,282621,12.360565185546875,45.186153411865234,-22.19546127319336,-10.623441696166992
0,282623,3.4735043048858643,-23.28342628479004,-7.568942546844482,-45.38298034667969
0,282625,-20.497745513916016,-26.9886474609375,83.02052307128906,87.02241516113281
0,282627,-8.609620094299316,13.521517753601074,67.40422058105469,218.8121337890625
0,282629,-15.999274253845215,2.221116065979004,-67.78789520263672,-64.26356506347656
0,282631,4.066637992858887,0.7103961706161499,-71.22765350341797,-118.92694854736328
0,282633,8.239267349243164,-7.864226341247559,61.177459716796875,-9.720473289489746
0,282635,-10.921528816223145,1.2734947204589844,112.02346801757812,-67.8922348022461
0,282637,25.3398380279541,46.538265228271484,-22.264102935791016,8.10417652130127
0,282639,-5.287132263183594,-12.051101684570312,-74.12116241455078,110.17172241210938
0,282641,-33.72016906738281,-58.40599060058594,-66.8341064453125,94.05567932128906
0,282643,28.619722366333008,10.931962966918945,-61.18167495727539,58.424964904785156
0,282645,24.438417434692383,24.753036499023438,92.04600524902344,30.359233856201172
0,282647,-27.884613037109375,-28.502511978149414,100.57520294189453,-106.08780670166016
0,282649,-11.858908653259277,3.6145474910736084,-24.227678298950195,-426.96710205078125
0,282651,8.717425346374512,57.4521484375,-21.853551864624023,-98.74186706542969
0,282754,-0.3487931489944458,-21.60300636291504,-27.846744537353516,619.4083251953125
0,282754,1.086780309677124,-33.88743209838867,-8.087197303771973,196.13894653320312
0,282754,-0.8942521810531616,35.430641174316406,31.49740982055664,-317.28271484375
0,282754,9.893763542175293,-10.379355430603027,8.263397216796875,-81.91690063476562
0,282755,7.869647026062012,-19.468074798583984,-1.9701626300811768,6.819269180297852
0,282755,-27.387615203857422,33.35841751098633,-3.997588634490967,-33.75261688232422
0,282755,-16.654876708984375,9.890442848205566,-3.495959997177124,-3.4668338298797607
0,282755,15.445831298828125,-34.132667541503906,-17.895132064819336,10.233805656433105
0,282755,12.707280158996582,-10.501253128051758,-13.840471267700195,7.377825736999512
0,282755,12.187643051147461,11.517430305480957,-7.633266448974609,-4.696264266967773
0,282756,3.11125111579895,-23.01911163330078,-11.508193969726562,-14.392592430114746
0,282756,-9.721660614013672,-3.1581270694732666,14.569025039672852,-11.362495422363281
0,282756,-1.1287877559661865,33.72834396362305,10.785054206848145,-2.849141836166382
0,282756,-6.5171589851379395,6.202007293701172,4.762604236602783,-3.8804080486297607
0,282756,-8.555795669555664,-15.185746192932129,23.896268844604492,6.815737247467041
0,282756,9.577089309692383,-2.8771345615386963,-2.6304376125335693,21.865676879882812
0,282757,8.320239067077637,7.273303031921387,-22.144023895263672,13.406893730163574
0,282757,5.920287132263184,8.916167259216309,-1.6655340194702148,30.909780502319336
0,282757,3.850576400756836,12.258913040161133,-3.582749605178833,17.372900009155273
0,282757,-10.624135971069336,-12.029932022094727,-3.7704827785491943,-5.679030895233154
0,282757,13.190937995910645,-21.891712188720703,-14.42404556274414,-8.167436599731445
0,282757,0.42289218306541443,6.917635917663574,-15.859546661376953,-27.148513793945312
0,282758,-29.37987518310547,4.897197723388672,30.037185668945312,2.409991502761841
0,282758,1.4362854957580566,-3.4353716373443604,29.845462799072266,7.758446216583252
0,282758,7.489224910736084,-2.4571704864501953,-2.9093432426452637,-14.167895317077637
0,282758,0.9843366146087646,-8.347616195678711,-11.090237617492676,5.363847732543945
0,282758,6.446743965148926,18.87978744506836,-5.433633327484131,-4.059432029724121
0,282759,2.472658395767212,26.204233169555664,9.14377212524414,5.875895023345947
0,282759,7.694247245788574,4.417180061340332,7.522736549377441,26.415517807006836
0,282759,-5.812457084655762,-20.90479278564453,-11.031928062438965,-17.749706268310547
0,282759,-14.426793098449707,-36.57733917236328,-15.05730152130127,-8.463549613952637
0,282759,-0.28896161913871765,7.5945281982421875,1.3094133138656616,14.608785629272461
0,282759,7.377051830291748,22.441818237304688,-1.4845608472824097,-20.331899642944336
0,282760,0.12086458504199982,-17.3878231048584,-1.5812360048294067,-11.225732803344727
0,282760,-14.191154479980469,-5.183375835418701,7.018049240112305,13.744189262390137
0,282760,11.170705795288086,15.875608444213867,-10.979138374328613,-10.254694938659668
0,282760,-4.174678325653076,-0.4572184383869171,10.910066604614258,-8.273927688598633
0,282760,-24.12540054321289,-0.9411002397537231,11.98847770690918,24.262094497680664
0,282760,26.18634605407715,-1.3544508218765259,-22.320709228515625,7.616351127624512
0,282761,4.35584831237793,-6.299541473388672,5.5086870193481445,-7.012505531311035
0,282761,-20.03716278076172,-2.4732213020324707,17.814470291137695,9.413739204406738
0,282761,23.705636978149414,8.744183540344238,-1.2711353302001953,-11.04947566986084
0,282761,4.432497501373291,10.295509338378906,-20.18755531311035,-25.353307723999023
0,282761,-20.421634674072266,-1.6058419942855835,-12.13101577758789,20.0439510345459
0,282761,1.1177090406417847,-17.292081832885742,31.488819122314453,27.44822120666504
0,282762,11.212952613830566,-1.7166639566421509,14.024934768676758,-18.713077545166016
0,282762,4.256746292114258,5.322447299957275,-23.514211654663086,-22.85063934326172
0,282762,1.5266151428222656,-3.0377674102783203,-5.911316871643066,14.03127384185791
0,282762,-0.3609572947025299,20.758777618408203,12.448076248168945,17.530906677246094
0,282762,2.061068534851074,10.850570678710938,6.044706344604492,-12.984285354614258
0,282762,15.00149154663086,-8.654979705810547,-3.6893675327301025,-9.545754432678223
0,282764,-13.72198486328125,-7.832414627075195,0.11905601620674133,11.925493240356445
0,282764,-5.633489608764648,-8.871545791625977,-0.8750911355018616,6.250276565551758
0,282764,4.899770259857178,5.561570167541504,2.0782389640808105,-9.601097106933594
0,282764,-20.991085052490234,15.737645149230957,1.2371020317077637,-15.143261909484863
0,282764,4.907846450805664,-12.442928314208984,-13.817173957824707,4.202681541442871
0,282766,10.964768409729004,-24.667274475097656,-9.733235359191895,7.693542957305908
0,282767,-2.2859771251678467,14.907535552978516,8.220171928405762,-4.11276912689209
0,282768,-6.83748197555542,6.065031051635742,5.654682636260986,-1.093118667602539
0,282771,-9.088565826416016,-25.095643997192383,-9.412720680236816,19.230619430541992
0,282772,5.282087326049805,11.851537704467773,-0.7326779365539551,4.766234397888184
0,282775,0.8763330578804016,2.764408826828003,8.234112739562988,-54.942508697509766
0,282776,1.8568124771118164,-0.3478409945964813,-11.353824615478516,-25.288820266723633
0,282779,20.190353393554688,21.628847122192383,-1.4719295501708984,66.74134063720703
0,282780,-0.9547291994094849,6.932910442352295,44.38296890258789,55.61555480957031
0,282783,-25.191904067993164,1.3777509927749634,-0.8379318118095398,-44.14644241333008
0,282784,1.835989236831665,-32.46213150024414,-46.78571319580078,-35.75762939453125
0,282787,26.198930740356445,-7.389559268951416,8.503938674926758,29.767166137695312
0,282788,-4.779961585998535,20.881017684936523,12.064189910888672,1.832240343093872
0,282791,-16.941097259521484,1.2625468969345093,-4.597872734069824,-6.4392828941345215
0,282792,0.0673358142375946,8.824785232543945,10.580809593200684,9.820385932922363
0,282795,-3.150852918624878,-12.022820472717285,-22.0050106048584,-17.01646614074707
0,282796,3.321697235107422,-21.102523803710938,1.6763421297073364,16.580358505249023
0,282799,5.181922435760498,8.436688423156738,33.551815032958984,20.70265769958496
0,282800,-6.642288684844971,9.417563438415527,-24.213441848754883,-31.290372848510742
0,282803,-0.0470268651843071,1.7819442749023438,-12.458915710449219,-4.081847667694092
0,282917,15.197221755981445,19.104557037353516,34.23711395263672,7.059610366821289
0,282917,2.9192874431610107,9.71318244934082,-0.7479183673858643,-6.477291107177734
0,282918,-5.511134624481201,-20.59109115600586,-30.363235473632812,4.296704292297363
0,282918,-7.749054908752441,-19.96038246154785,4.429701328277588,20.238332748413086
0,282918,-14.470268249511719,4.346071243286133,22.681068420410156,16.211013793945312
0,282918,11.421109199523926,13.621949195861816,-18.329862594604492,-17.059385299682617
0,282918,9.988747596740723,8.86253547668457,-10.886200904846191,-25.6806697845459
0,282918,-15.77341079711914,-4.994927406311035,19.208223342895508,-3.495903491973877
0,282919,8.110450744628906,-11.168794631958008,-3.939209461212158,17.137596130371094
0,282919,18.951496124267578,-5.71328592300415,-4.202362060546875,-7.042809963226318
0,282919,-10.307196617126465,-1.863695740699768,3.2501606941223145,-11.890242576599121
0,282919,-11.883610725402832,7.197168827056885,-3.972639799118042,22.08414649963379
0,282919,12.6933012008667,-10.68312931060791,-3.2351768016815186,4.011056423187256
0,282919,11.43923282623291,-0.1835530549287796,9.26956558227539,-21.14951515197754
0,282920,-15.965723991394043,29.695688247680664,10.293601989746094,-5.718630313873291
0,282920,-9.913122177124023,-5.375446319580078,-2.8271708488464355,8.857319831848145
0,282920,6.383070468902588,-27.892545700073242,3.0069031715393066,-1.7664510011672974
0,282920,3.356497287750244,9.022221565246582,-6.047234535217285,-14.455513000488281
0,282920,-3.2832820415496826,4.1440043449401855,-10.96495532989502,8.816228866577148
0,282921,-10.970783233642578,-10.586362838745117,6.087998390197754,13.303362846374512
0,282921,1.758908987045288,6.406021595001221,-8.12274169921875,-27.710359573364258
0,282921,5.858016014099121,-20.49460792541504,-12.495704650878906,4.101897239685059
0,282921,-4.967411994934082,1.3119806051254272,17.10470962524414,30.54499626159668
0,282921,1.2860875129699707,37.01707077026367,3.893685817718506,-9.298458099365234
0,282921,6.306950569152832,-1.8953135013580322,-21.217100143432617,3.7061398029327393
0,282921,5.781679153442383,-21.243669509887695,-2.3611416816711426,-2.1300954818725586
0,282922,1.7821788787841797,11.905950546264648,22.117929458618164,-24.40831184387207
0,282922,-2.203836441040039,22.006858825683594,2.4333834648132324,-14.040674209594727
0,282922,1.0219430923461914,-20.564573287963867,-13.050561904907227,-7.280428886413574
0,282922,-2.917959690093994,0.04912292957305908,11.979369163513184,4.358534336090088
0,282922,1.6542224884033203,21.377735137939453,10.118221282958984,6.260961532592773
0,282922,1.7756136655807495,-11.923473358154297,9.289167404174805,24.187393188476562
0,282923,-18.44239616394043,5.547940254211426,1.4735772609710693,21.154203414916992
0,282923,-12.472728729248047,14.92859172821045,-24.071537017822266,-25.08102035522461
0,282923,28.69129753112793,-17.81927490234375,-13.165194511413574,-24.008005142211914
0,282923,15.952359199523926,-25.340301513671875,8.685242652893066,16.346036911010742
0,282923,-23.11988067626953,2.8278610706329346,9.154175758361816,12.73934555053711
0,282924,0.7261742353439331,19.85775375366211,-6.355222225189209,3.693997383117676
0,282924,2.5390005111694336,-1.093124508857727,-0.6292601227760315,13.724043846130371
0,282924,-5.200571060180664,-5.671117305755615,10.324457168579102,4.2609429359436035
0,282924,21.942543029785156,17.29170799255371,-2.623746156692505,3.293189764022827
0,282924,-2.9891774654388428,-14.154611587524414,-12.6532621383667,9.01973819732666
0,282924,-8.832419395446777,-25.366382598876953,-10.991460800170898,-1.1669563055038452
0,282925,-2.17804217338562,17.38728904724121,12.027143478393555,-1.526930570602417
0,282925,-6.198497295379639,10.716764450073242,31.43753433227539,11.345147132873535
0,282925,21.27515411376953,2.731901168823242,-11.256160736083984,-3.3790054321289062
0,282925,-12.352651596069336,-6.5052008628845215,-15.012984275817871,9.172341346740723
0,282925,-10.319944381713867,-13.528996467590332,12.161802291870117,15.834616661071777
0,282925,13.837512969970703,7.326462745666504,-21.778162002563477,-16.707111358642578
0,282926,-13.294788360595703,7.196566104888916,-0.4470933675765991,-19.523618698120117
0,282926,6.652589321136475,-7.4469146728515625,25.51856231689453,-12.107521057128906
0,282926,9.360128402709961,0.4068257808685303,-13.242238998413086,-5.368789196014404
0,282926,-14.175183296203613,6.649097442626953,-5.883984565734863,-12.619438171386719
0,282926,-2.343667507171631,-9.571642875671387,24.05010414123535,0.2742137312889099
0,282926,12.394768714904785,15.733956336975098,-13.433075904846191,3.40177583694458
0,282927,-0.31012198328971863,10.094470024108887,-20.859304428100586,-3.9319987297058105
0,282927,-17.502050399780273,-29.548431396484375,30.573781967163086,11.292830467224121
0,282928,6.36631441116333,9.54467487335205,7.096116542816162,-2.8227832317352295
0,282928,8.129881858825684,7.911239147186279,-35.08984375,-17.02935218811035
0,282928,-17.23122215270996,-22.895885467529297,1.933205485343933,6.875889778137207
0,282929,9.225174903869629,17.724031448364258,14.78176212310791,8.919187545776367
0,282929,18.053098678588867,9.901239395141602,-21.544897079467773,-24.784574508666992
0,282930,-4.808590412139893,-38.08073043823242,-3.681671380996704,10.586308479309082
0,282931,-13.183446884155273,1.7167130708694458,31.614395141601562,35.289188385009766
0,282933,3.019019603729248,31.983266830444336,8.274428367614746,-17.19695281982422
0,282935,12.45903491973877,-25.106712341308594,-25.34857749938965,-13.58924674987793
0,282937,-5.16011905670166,-10.054563522338867,0.21897156536579132,13.935219764709473
0,282939,-3.0104823112487793,36.98991394042969,7.227306365966797,-1.0062450170516968
0,282941,-4.490349769592285,-16.672142028808594,-14.980003356933594,-2.4007914066314697
0,282943,-6.664751052856445,-37.925079345703125,4.655425071716309,-1.0752531290054321
0,282945,8.044610023498535,27.325092315673828,13.28903865814209,-0.9934284090995789
0,282947,2.861353874206543,42.96613693237305,4.68074369430542,27.628643035888672
0,282949,-18.843482971191406,-0.7560321092605591,7.995200157165527,17.783843994140625
0,282951,1.8587610721588135,-20.72822380065918,-0.8112074732780457,-42.40342712402344
0,282953,24.21839714050293,-11.266154289245605,-18.547460556030273,-34.37965774536133
0,282955,-3.2555572986602783,-5.251688480377197,-7.90601921081543,22.881370544433594
0,282957,-4.68743371963501,-6.7488555908203125,7.762803077697754,24.724191665649414
0,282959,-2.4917047023773193,19.276079177856445,8.160696029663086,-10.813586235046387
0,282961,-1.8133281469345093,27.768531799316406,10.823177337646484,-9.738970756530762
0,282963,6.210281848907471,-25.25774574279785,-5.282144069671631,-3.087203025817871
0,282965,-13.301776885986328,-28.49827003479004,-17.822813034057617,10.667716026306152
0,282967,0.934649646282196,28.058040618896484,7.123490810394287,9.69520378112793
0,282969,17.481338500976562,6.938589096069336,-2.774240493774414,-14.404109954833984
0,283093,7.625333786010742,-14.531500816345215,-12.441024780273438,13.547523498535156
0,283093,-6.825680255889893,26.945972442626953,33.371726989746094,9.667256355285645
0,283094,-5.582059860229492,4.384918689727783,-8.488361358642578,-0.6959967613220215
0,283094,-2.7620575428009033,-27.174678802490234,-24.002809524536133,0.23636294901371002
0,283094,-11.994674682617188,-13.957711219787598,26.256717681884766,-7.478125095367432
0,283094,-2.16127347946167,27.77808952331543,9.046587944030762,3.788914918899536
0,283094,16.22590446472168,-1.6908423900604248,-10.767396926879883,-2.532708168029785
0,283095,5.138347148895264,-43.3331184387207,-20.30662727355957,-6.5146870613098145
0,283095,-20.227922439575195,20.125072479248047,-0.6753929257392883,-5.5985565185546875
0,283095,0.3343699276447296,15.714123725891113,14.689983367919922,-2.209623098373413
0,283095,16.437639236450195,-4.526191711425781,2.822343587875366,-4.091488838195801
0,283095,0.9807258248329163,-13.360513687133789,-15.422554016113281,-14.342024803161621
0,283095,-11.498090744018555,-14.40107250213623,1.5480459928512573,-1.5094051361083984
0,283095,-3.202962636947632,36.77949905395508,13.72805404663086,9.30669116973877
0,283096,9.269266128540039,0.776290237903595,-7.348476886749268,-13.172414779663086
0,283096,-0.8258101344108582,-22.39003562927246,5.705286026000977,-20.404733657836914
0,283096,4.406301021575928,29.095243453979492,-0.21900694072246552,1.8596707582473755
0,283096,15.683850288391113,6.823203086853027,-2.842559337615967,-1.5818370580673218
0,283096,-8.052143096923828,-26.410688400268555,-1.6129311323165894,-8.41748332977295
0,283097,-17.293407440185547,-4.522082805633545,4.504945278167725,17.866376876831055
0,283097,9.752827644348145,7.195596694946289,10.937666893005371,13.999242782592773
0,283097,9.207253456115723,8.686873435974121,-21.223926544189453,7.899510860443115
0,283097,-19.421716690063477,-1.8566969633102417,-9.777709007263184,20.37042236328125
0,283097,1.012224793434143,-3.8925893306732178,16.479259490966797,6.327720642089844
0,283097,23.21278190612793,1.6730278730392456,-2.2049007415771484,9.234916687011719
0,283098,-13.475010871887207,-15.405173301696777,-0.4483756422996521,4.0542144775390625
0,283098,-4.05525541305542,-10.853778839111328,-0.4073375165462494,-5.477507591247559
0,283098,10.564115524291992,10.179732322692871,-4.289864540100098,11.128640174865723
0,283098,-14.489381790161133,19.890804290771484,9.617927551269531,6.439310073852539
0,283098,-6.061585426330566,-2.414167642593384,1.22468101978302,7.8156819343566895
0,283099,0.7131239175796509,-11.806720733642578,1.6043658256530762,6.820960521697998
0,283099,0.4341868758201599,12.756823539733887,5.010394096374512,-10.235918998718262
0,283099,9.43922233581543,-2.1173620223999023,-20.085308074951172,0.504004180431366
0,283099,-2.3532636165618896,2.810974597930908,-11.561456680297852,-6.407761573791504
0,283099,-12.424893379211426,1.566531777381897,23.05560874938965,-14.395061492919922
0,283099,2.9468252658843994,-17.105693817138672,8.882533073425293,14.637303352355957
0,283100,11.249943733215332,10.631962776184082,-4.071236610412598,0.8760565519332886
0,283100,-0.7860526442527771,-6.692213535308838,-5.752615451812744,-19.310701370239258
0,283100,-5.947700500488281,-13.317673683166504,-9.426762580871582,-0.6396751999855042
0,283100,10.748607635498047,21.011455535888672,0.5507767200469971,-18.786008834838867
0,283100,-8.036434173583984,10.82363224029541,1.5833936929702759,-17.781414031982422
0,283100,-3.39273738861084,-11.150182723999023,4.10465145111084,11.041970252990723
0,283101,21.833290100097656,-18.560321807861328,7.83648157119751,7.152855396270752
0,283101,-2.5098257064819336,7.864457607269287,-2.7804031372070312,-5.589241027832031
0,283101,2.24985933303833,15.134592056274414,-11.494672775268555,-16.65998649597168
0,283101,-2.7657458782196045,-19.56330108642578,-6.370870113372803,13.86292839050293
0,283101,-24.331449508666992,-6.410382270812988,15.550490379333496,36.095550537109375
0,283101,3.617424726486206,17.783903121948242,26.15966033935547,-14.46833324432373
0,283102,19.824811935424805,6.227504730224609,-16.063709259033203,-33.57194900512695
0,283102,-4.651389122009277,-0.9635511636734009,-16.41106605529785,10.695852279663086
0,283102,-4.069472789764404,-4.783327102661133,2.851097345352173,20.74749183654785
0,283102,-10.462421417236328,-11.036797523498535,-8.649382591247559,-1.8465927839279175
0,283102,-13.292793273925781,3.654350996017456,14.181978225708008,-10.820951461791992
0,283102,19.281089782714844,0.5137737393379211,-11.058296203613281,-20.8117618560791
0,283103,1.0627391338348389,-1.8994234800338745,-10.44016170501709,-3.846376419067383
0,283103,-17.050138473510742,16.882238388061523,24.783159255981445,19.803842544555664
0,283103,15.190566062927246,4.267164707183838,-7.462861061096191,-4.044527053833008
0,283103,5.981665134429932,-13.709601402282715,-0.16751191020011902,-12.049392700195312
0,283103,-10.637398719787598,-0.6191558837890625,-0.4216972291469574,2.1109678745269775
0,283103,-1.2220650911331177,2.628511905670166,-10.048543930053711,-4.7052507400512695
0,283104,-5.378516674041748,-4.654921531677246,26.633256912231445,-13.486089706420898
0,283104,2.5536043643951416,-5.880308628082275,11.345849990844727,2.5520684719085693
0,283105,17.741310119628906,-1.3611747026443481,-16.259056091308594,25.68644142150879
0,283105,9.30817985534668,11.82079029083252,-10.594481468200684,14.287050247192383
0,283105,-1.5688774585723877,12.919154167175293,8.405133247375488,-5.309257984161377
0,283106,9.96069049835205,15.121647834777832,9.129377365112305,-27.22767448425293
0,283106,-3.553256034851074,-8.935267448425293,-27.70084571838379,-23.468482971191406
0,283106,-21.330493927001953,-28.726713180541992,-7.826092720031738,18.77773094177246
0,283107,-4.656594753265381,-8.074316024780273,29.348493576049805,57.55196762084961
0,283108,13.431743621826172,18.433847427368164,-13.02043628692627,54.788299560546875
0,283111,-3.0677688121795654,18.177486419677734,1.03126859664917,-17.874116897583008
0,283112,-22.490886688232422,-10.720861434936523,23.424448013305664,-27.294071197509766
0,283115,-0.5513452887535095,-11.465149879455566,-21.014968872070312,-1.72413969039917
0,283116,14.667363166809082,-7.4874958992004395,-6.858585357666016,-28.237150192260742
0,283119,14.671186447143555,5.386322975158691,4.323843479156494,4.211480140686035
0,283120,2.5963103771209717,22.70529556274414,8.618155479431152,23.48210906982422
0,283123,-10.082793235778809,-23.74251365661621,6.50272274017334,-2.8412654399871826
0,283124,6.155710220336914,-10.59124755859375,-26.2645206451416,3.0263121128082275
0,283127,-12.153275489807129,23.702539443969727,-7.170149803161621,-31.47696876525879
0,283128,-4.6972575187683105,-4.129948616027832,30.477590560913086,-30.319332122802734
0,283131,17.93144989013672,-7.672675609588623,-3.7459614276885986,26.72743034362793
0,283132,-10.196816444396973,-4.068946361541748,-22.188495635986328,9.735749244689941
0,283135,2.4170591831207275,8.870858192443848,18.416244506835938,-29.192310333251953
0,283137,3.2711827754974365,-7.194459915161133,11.613360404968262,9.227310180664062
0,283139,-5.1538519859313965,3.7628867626190186,-8.624885559082031,38.52290344238281
0,283141,1.096308708190918,10.608595848083496,-18.713869094848633,-23.70850944519043
0,283143,-14.516888618469238,-33.151973724365234,-3.189969301223755,-0.097475066781044
0,283145,4.529472827911377,-5.260970592498779,30.73067855834961,30.042293548583984
0,283147,8.287690162658691,43.82347106933594,11.627692222595215,-41.39943313598633
0,283149,-0.5232245326042175,15.668095588684082,-26.88226318359375,-19.529218673706055
0,283283,17.26793098449707,-19.042694091796875,-7.2801594734191895,44.66984558105469
0,283284,-1.984449863433838,4.61161470413208,3.2935900688171387,-1.4411333799362183
0,283284,-28.789661407470703,-3.105410575866699,-7.29806661605835,-25.711626052856445
0,283284,-12.820768356323242,-18.616302490234375,17.739843368530273,20.70963478088379
0,283284,20.999540328979492,4.8453240394592285,-5.420285701751709,1.8902021646499634
0,283284,10.26672077178955,3.1815178394317627,-12.391210556030273,-8.481057167053223
0,283284,-13.912949562072754,-3.3353233337402344,24.123401641845703,4.6374664306640625
0,283285,-9.503615379333496,6.903529167175293,4.133521556854248,-3.2167398929595947
0,283285,4.013684272766113,5.596282482147217,-28.96395492553711,1.2902532815933228
0,283285,24.723085403442383,2.656367301940918,-12.264345169067383,-0.5035235285758972
0,283285,6.350772857666016,-19.132389068603516,17.037677764892578,-13.488602638244629
0,283285,-17.210586547851562,-10.850112915039062,22.53484344482422,-13.132681846618652
0,283285,0.021600758656859398,15.691611289978027,-9.40955638885498,4.807076454162598
0,283286,5.310949802398682,-3.3954038619995117,-24.710071563720703,32.49600601196289
0,283286,2.484834909439087,3.6759159564971924,24.04798698425293,21.22218894958496
0,283286,-1.0543643236160278,16.930522918701172,15.418485641479492,-38.308231353759766
0,283286,-4.773303031921387,-20.17869758605957,-31.63307762145996,-17.590492248535156
0,283286,2.6035993099212646,-14.423487663269043,3.586239814758301,27.0479679107666
0,283286,-3.98319673538208,9.947137832641602,18.7896785736084,8.6007661819458
0,283287,1.3539950847625732,-8.177309036254883,-15.210795402526855,-0.12935349345207214
0,283287,-0.13012704253196716,1.8505827188491821,-7.712494373321533,0.07115790992975235
0,283287,-14.074136734008789,18.205123901367188,13.916902542114258,-1.1143285036087036
0,283287,7.438787460327148,11.705362319946289,-2.46854567527771,-9.424006462097168
0,283287,9.529494285583496,-12.804769515991211,-13.930370330810547,-5.9836530685424805
0,283287,-1.9327553510665894,-5.824241638183594,14.56870174407959,4.177157878875732
0,283288,5.492763996124268,17.84834098815918,7.500370025634766,-7.343095302581787
0,283288,1.545170545578003,-9.18757152557373,-1.2817096710205078,3.9749507904052734
0,283288,-13.943950653076172,-7.608990669250488,1.582919716835022,-2.995584011077881
0,283288,-7.639828681945801,11.271344184875488,-9.506134986877441,-2.535632848739624
0,283288,20.713693618774414,-1.1224690675735474,-5.447277545928955,10.236527442932129
0,283288,5.106570720672607,-6.009668350219727,4.296346664428711,-14.993932723999023
0,283289,-20.5118408203125,-14.389386177062988,15.030916213989258,8.973194122314453
0,283289,7.368150234222412,-0.9667198061943054,-8.687835693359375,1.6207386255264282
0,283289,6.338300704956055,16.418216705322266,-4.067140102386475,-33.84319305419922
0,283289,-23.62910270690918,4.631972789764404,8.131974220275879,22.218074798583984
0,283289,2.919973373413086,-2.5414979457855225,-8.310094833374023,21.493268966674805
0,283290,22.59465789794922,1.3161306381225586,-0.7006049156188965,-22.688039779663086
0,283290,-9.236398696899414,-2.1257591247558594,0.8675914406776428,18.041976928710938
0,283290,-19.135221481323242,-3.4222445487976074,-0.1259620189666748,4.380355358123779
0,283290,20.09627342224121,3.4603488445281982,2.003690719604492,-25.22368812561035
0,283290,20.02014923095703,0.07737819850444794,2.915654420852661,12.74064826965332
0,283290,-24.707080841064453,4.596367835998535,-4.843700885772705,24.844085693359375
0,283291,-17.609525680541992,8.954577445983887,0.2876654267311096,-7.055205821990967
0,283291,24.209049224853516,-27.321805953979492,-5.690324306488037,-19.247007369995117
0,283291,21.872379302978516,-12.386512756347656,8.024712562561035,34.38230895996094
0,283291,-25.22108268737793,34.84526824951172,22.038684844970703,19.485729217529297
0,283291,-20.224424362182617,-6.803711414337158,-16.821552276611328,-38.330039978027344
0,283291,23.891328811645508,-6.721844673156738,-12.7753267288208,-15.696473121643066
0,283292,15.754136085510254,9.323551177978516,14.047418594360352,11.82077407836914
0,283292,-9.66992473602295,-4.104171276092529,14.0592622756958,-16.434432983398438
0,283292,1.415541410446167,0.016080226749181747,-19.098264694213867,-11.365943908691406
0,283292,3.074035406112671,-13.64678955078125,-13.795235633850098,31.14194107055664
0,283292,-9.513703346252441,6.858874797821045,12.51332950592041,-14.408805847167969
0,283292,-2.2134220600128174,-6.635836601257324,-6.80918550491333,-17.962982177734375
0,283293,-11.158265113830566,-7.122472763061523,-0.9250078797340393,28.807329177856445
0,283293,4.0296759605407715,40.919464111328125,10.621077537536621,-2.4463815689086914
0,283293,20.941003799438477,0.08853527158498764,-13.016196250915527,-18.96906852722168
0,283293,-6.341124057769775,-33.56087112426758,-12.395885467529297,-1.9747681617736816
0,283293,-20.818571090698242,-4.836016654968262,16.378421783447266,17.024349212646484
0,283293,-3.2828826904296875,12.844594955444336,16.76492691040039,8.841401100158691
0,283294,14.921335220336914,11.160512924194336,-10.074838638305664,-3.646775960922241
0,283294,-11.186586380004883,-14.237909317016602,-2.626117706298828,-6.427849292755127
0,283294,7.8662214279174805,1.3432483673095703,14.011645317077637,-13.878164291381836
0,283294,21.64473533630371,11.573225975036621,-20.66481590270996,8.767927169799805
0,283294,-28.518569946289062,-21.318519592285156,-11.932199478149414,21.040693283081055
0,283294,-2.829437255859375,7.770849704742432,23.407947540283203,15.074919700622559
0,283295,28.424896240234375,8.446418762207031,3.641343116760254,-15.442496299743652
0,283296,-1.4147179126739502,-7.56797981262207,-28.368074417114258,-26.173818588256836
0,283296,-5.425262451171875,15.547582626342773,-1.485455870628357,15.827459335327148
0,283296,7.6341681480407715,11.136743545532227,28.004539489746094,5.5355048179626465
0,283296,-12.044360160827637,-15.614128112792969,-2.714618682861328,-8.67416763305664
0,283297,-6.915746212005615,-16.581003189086914,-8.53872299194336,6.230262756347656
0,283297,16.784320831298828,18.018091201782227,4.438104629516602,-3.2956109046936035
0,283298,-6.8270039558410645,-11.577211380004883,-2.4392404556274414,-4.609860897064209
0,283299,-24.112646102905273,-4.3448567390441895,-5.46621561050415,-4.042776584625244
0,283301,-3.2642874717712402,21.601354598999023,13.042874336242676,3.9701995849609375
0,283303,22.063621520996094,-24.310195922851562,11.631370544433594,8.235974311828613
0,283305,7.596080780029297,-2.24271297454834,-14.051843643188477,8.15975284576416
0,283307,-23.75281524658203,2.7500455379486084,-7.373477458953857,-15.634613990783691
0,283309,-5.808415412902832,-8.934932708740234,3.8116517066955566,-11.320489883422852
0,283311,23.3482723236084,31.299856185913086,19.426816940307617,28.12592315673828
0,283313,-6.611990451812744,0.8427477478981018,5.18592643737793,-5.564541816711426
0,283315,-7.834385871887207,-15.576386451721191,-31.134057998657227,-27.925647735595703
0,283317,22.59787940979004,15.402806282043457,8.887166976928711,4.01975154876709
0,283319,-1.0653313398361206,0.3185807764530182,12.22011947631836,24.91810417175293
0,283321,-5.8867878913879395,-16.495330810546875,-32.532752990722656,4.012768268585205
0,283323,-0.08885079622268677,-13.716987609863281,7.5141496658325195,-11.071784973144531
0,283325,-12.034036636352539,3.4695541858673096,20.856884002685547,-8.213319778442383
0,283327,-2.3407881259918213,22.430801391601562,-8.870904922485352,-1.7668137550354004
0,283329,13.194306373596191,6.39952278137207,3.57018780708313,11.680333137512207
0,283331,10.614540100097656,-20.094463348388672,0.08318202942609787,-5.457455158233643
0,283333,-14.18613052368164,-13.678470611572266,-11.11318302154541,-7.58613920211792
0,283335,-16.36384391784668,-3.7641923427581787,-13.625579833984375,5.913455009460449
0,283337,10.647860527038574,3.264312505722046,3.2884156703948975,2.4080443382263184
0,283340,4.124343395233154,29.578941345214844,28.988914489746094,-10.42004108428955
0,283341,10.490856170654297,5.275935173034668,7.179150581359863,-7.699203014373779
0,283486,14.132765769958496,-36.181732177734375,-29.81170082092285,10.268202781677246
0,283486,-16.105690002441406,12.868064880371094,-7.575745582580566,14.101847648620605
0,283486,-18.84354019165039,28.464691162109375,12.540872573852539,9.532149314880371
0,283486,-3.7274281978607178,-13.313887596130371,3.2596330642700195,-1.9478880167007446
0,283486,23.485370635986328,-4.544945240020752,10.083815574645996,-10.669381141662598
0,283487,6.578855514526367,-3.7711315155029297,-3.866069793701172,-3.105691432952881
0,283487,-22.85511589050293,-20.99547576904297,-8.598544120788574,9.250974655151367
0,283487,5.105583667755127,21.51582145690918,-2.5777430534362793,-10.101483345031738
0,283487,16.595930099487305,33.800479888916016,5.10081672668457,-15.34786319732666
0,283487,-12.183558464050293,-24.830575942993164,8.855340003967285,5.800085067749023
0,283487,-20.68378257751465,-16.53708267211914,7.981449127197266,15.557844161987305
0,283488,14.24245834350586,12.401025772094727,2.4546942710876465,-3.2709312438964844
0,283488,17.574810028076172,-4.585532188415527,-9.870613098144531,-23.902746200561523
0,283488,-10.715110778808594,-17.416845321655273,-2.333482027053833,8.219930648803711
0,283488,-4.654785633087158,-2.3752405643463135,-12.483176231384277,22.620141983032227
0,283488,21.565162658691406,22.222599029541016,-6.294901371002197,-8.035270690917969
0,283489,5.949714660644531,-1.8121548891067505,15.733688354492188,5.306771755218506
0,283489,-23.459156036376953,-1.5766674280166626,7.335024356842041,14.571966171264648
0,283489,-0.7388754487037659,22.36029624938965,-11.12158489227295,-19.409467697143555
0,283489,2.7430295944213867,-19.513057708740234,-5.9252400398254395,-0.7003295421600342
0,283489,-6.820708274841309,-21.280750274658203,10.862013816833496,10.831790924072266
0,283489,7.174288749694824,9.524075508117676,4.775927543640137,-21.557531356811523
0,283490,4.607177257537842,14.568598747253418,3.3835761547088623,-13.640628814697266
0,283490,-9.752681732177734,16.185596466064453,-16.068174362182617,18.184316635131836
0,283490,-12.474788665771484,-6.555842876434326,-0.4605913758277893,19.02503204345703
0,283490,4.559351921081543,-19.530113220214844,29.714496612548828,-11.076350212097168
0,283490,3.5668230056762695,0.8193046450614929,-7.173356056213379,-12.412276268005371
0,283490,-1.9201689958572388,6.633254528045654,-9.058364868164062,-0.35061225295066833
0,283491,16.124191284179688,-4.020630359649658,-1.2162151336669922,-4.146067142486572
0,283491,-3.7771012783050537,-0.9028068780899048,-16.55479621887207,12.248953819274902
0,283491,-16.64815902709961,-1.094573974609375,2.013099431991577,12.077631950378418
0,283491,21.67683982849121,4.368937015533447,7.0849504470825195,-11.902019500732422
0,283491,16.494632720947266,11.086315155029297,-7.842280387878418,-3.9847195148468018
0,283492,-8.609236717224121,-11.824602127075195,16.020511627197266,19.890098571777344
0,283492,-8.011771202087402,-12.745688438415527,-4.237107276916504,-6.493739128112793
0,283492,-5.885497093200684,7.659897327423096,-20.60249137878418,-8.065424919128418
0,283492,0.7686898112297058,3.7879176139831543,21.218952178955078,8.00554370880127
0,283492,2.9784233570098877,4.577682971954346,5.927669525146484,-13.035625457763672
0,283492,-8.244583129882812,-4.386497974395752,-12.247788429260254,-6.971757888793945
0,283493,-9.627522468566895,-8.114425659179688,-12.693778038024902,14.888596534729004
0,283493,0.7610323429107666,16.21424674987793,9.803009986877441,13.239392280578613
0,283493,-0.3146359622478485,8.677788734436035,11.601237297058105,-24.79920196533203
0,283493,-2.318682909011841,-32.83811950683594,-15.846137046813965,-2.965068817138672
0,283493,-3.7411348819732666,-17.5047550201416,15.584538459777832,27.789701461791992
0,283493,17.28854751586914,38.60760498046875,10.999091148376465,-16.288850784301758
0,283494,19.073848724365234,14.968341827392578,-23.252883911132812,-23.381685256958008
0,283494,-17.81890869140625,-31.891077041625977,-5.621870517730713,13.678749084472656
0,283494,-8.048210144042969,0.07385967671871185,21.994192123413086,21.73162841796875
0,283494,14.8726167678833,2.378532886505127,-5.944177150726318,-11.938774108886719
0,283494,4.331127166748047,2.890409231185913,-22.088268280029297,-7.477862358093262
0,283494,-21.395557403564453,31.15713119506836,12.799164772033691,18.157846450805664
0,283495,2.0788867473602295,-20.720693588256836,11.614060401916504,-11.174333572387695
0,283495,23.381864547729492,-22.282703399658203,-7.70729923248291,-7.145352363586426
0,283495,-28.648414611816406,14.685425758361816,-5.201981544494629,32.67156219482422
0,283495,-11.52758502960205,-8.743586540222168,-1.4603517055511475,-4.566460609436035
0,283495,25.494285583496094,14.639415740966797,-9.043556213378906,-16.331298828125
0,283495,-6.487539291381836,24.119306564331055,25.95732307434082,14.10581111907959
0,283496,2.224619150161743,-13.419404983520508,14.517931938171387,-8.799286842346191
0,283496,15.329134941101074,-9.140111923217773,-19.515600204467773,-9.363565444946289
0,283496,-1.0363209247589111,-3.056288480758667,7.261473178863525,7.1837687492370605
0,283496,-12.258905410766602,-10.802007675170898,-10.885528564453125,-7.90169095993042
0,283496,-19.04458236694336,6.0586395263671875,-11.84783935546875,-9.076568603515625
0,283496,8.86799430847168,10.06241226196289,21.612712860107422,22.33979034423828
0,283497,22.63010025024414,4.063009738922119,7.367282867431641,-3.9765846729278564
0,283497,7.946915626525879,-0.7364891767501831,-25.30368423461914,-23.15988540649414
0,283497,3.7319352626800537,-7.519985198974609,-11.903416633605957,14.514734268188477
0,283497,-19.215347290039062,11.607271194458008,19.760761260986328,9.320327758789062
0,283497,-15.587897300720215,-10.334303855895996,-3.214724063873291,-8.450531959533691
0,283497,9.90002727508545,-13.901054382324219,-1.1048747301101685,2.091707706451416
0,283498,4.109645366668701,21.454442977905273,26.48009490966797,-0.47162145376205444
0,283498,5.314655303955078,-1.8090900182724,-14.197555541992188,-24.938135147094727
0,283498,-4.942149639129639,-15.872570037841797,-27.795927047729492,4.064253330230713
0,283499,-4.494865417480469,8.478656768798828,12.343088150024414,21.088542938232422
0,283499,6.558759689331055,0.41291970014572144,4.936290264129639,-13.257225036621094
0,283500,-14.861455917358398,-11.670002937316895,3.8120834827423096,-2.6903884410858154
0,283500,-6.153848648071289,7.697987079620361,10.157685279846191,9.467999458312988
0,283500,9.914778709411621,9.883748054504395,-16.972726821899414,-11.50518798828125
0,283500,-9.029144287109375,-5.518409252166748,7.722840785980225,-7.6960225105285645
0,283500,-1.6709694862365723,-6.323360919952393,-2.623297929763794,6.131518840789795
0,283502,25.55657196044922,3.925960063934326,-25.767364501953125,28.155717849731445
0,283503,9.505760192871094,12.522150039672852,27.332460403442383,19.68992805480957
0,283506,-14.076048851013184,-16.42112159729004,16.569915771484375,-36.41496276855469
0,283507,-4.022312164306641,-4.823671340942383,-9.364234924316406,-6.141541004180908
0,283510,0.0636262521147728,14.257344245910645,4.810190200805664,31.013269424438477
0,283511,4.830844879150391,-12.687899589538574,-2.1180646419525146,6.19904088973999
0,283514,1.5036239624023438,10.882346153259277,-3.8202483654022217,-4.233448028564453
0,283515,-14.741311073303223,5.866856575012207,-16.24403953552246,-33.641788482666016
0,283518,12.878270149230957,-4.311413288116455,-4.694948673248291,-7.9832353591918945
0,283519,8.8812255859375,16.477142333984375,19.90409278869629,27.533540725708008
0,283520,-19.280040740966797,-9.938429832458496,5.356193542480469,-7.353935718536377
0,283523,10.717303276062012,-14.996983528137207,0.8498464226722717,-6.175785064697266
0,283524,1.8765933513641357,12.533855438232422,-10.628334045410156,-5.357547760009766
0,283527,-13.308629035949707,-30.09604835510254,-16.880359649658203,8.672160148620605
0,283528,10.33425521850586,-4.024529933929443,12.81263542175293,25.17824363708496
0,283531,-15.238511085510254,49.32937240600586,13.003405570983887,-18.364700317382812
0,283532,-5.247195720672607,-27.240436553955078,-17.19055938720703,-6.033115386962891
0,283535,24.120698928833008,-23.342506408691406,5.004879474639893,12.536308288574219
0,283536,-20.61737060546875,22.35455894470215,3.552490234375,-14.45949935913086
0,283539,-1.4195890426635742,1.1965923309326172,-9.928645133972168,0.7762268781661987
0,283540,31.2864933013916,-3.1737771034240723,18.928144454956055,14.877394676208496
0,283543,-1.8041833639144897,17.913387298583984,-10.229143142700195,-0.07475004345178604
0,283544,-19.7128963470459,3.8516652584075928,-6.619462013244629,-1.9794862270355225
0,283547,3.2480380535125732,-28.150121688842773,2.8058483600616455,-25.4273624420166
0,283702,29.792146682739258,22.155296325683594,-15.825321197509766,-11.654006004333496
0,283703,-18.9754638671875,23.624248504638672,18.200504302978516,37.383026123046875
0,283703,-25.768199920654297,-32.84600830078125,23.200531005859375,-1.0365182161331177
0,283703,21.6396484375,-17.38932228088379,-6.616475582122803,-18.903894424438477
0,283703,5.123601913452148,0.8215847611427307,-25.368310928344727,9.4638090133667
0,283703,-12.280420303344727,5.577616214752197,-15.061210632324219,14.229850769042969
0,283703,-11.675708770751953,-4.733297348022461,16.237367630004883,0.6817030310630798
0,283704,-7.619744777679443,-8.482166290283203,9.775467872619629,-16.31039047241211
0,283704,3.5356950759887695,21.006614685058594,-2.820887565612793,5.770079612731934
0,283704,13.349560737609863,17.82669448852539,12.10639476776123,2.7148244380950928
0,283704,7.590631008148193,-7.837799072265625,-15.277841567993164,-15.528820991516113
0,283704,-9.837396621704102,-6.738971710205078,-14.6398344039917,-1.6277662515640259
0,283705,8.354019165039062,-4.011351108551025,21.47109603881836,-1.5788136720657349
0,283705,8.36298942565918,13.064850807189941,-1.9273706674575806,2.2772645950317383
0,283705,-11.742138862609863,18.81635856628418,1.2118525505065918,7.733499050140381
0,283705,-0.1924503743648529,-30.403291702270508,14.731891632080078,-4.272840976715088
0,283705,0.8522531986236572,-18.212427139282227,-13.257107734680176,7.3007049560546875
0,283705,0.9626613259315491,21.595369338989258,-2.5974576473236084,7.053428649902344
0,283706,-4.52058744430542,6.159108638763428,19.61972427368164,-21.715354919433594
0,283706,-3.581859827041626,5.125847816467285,-9.816871643066406,4.122955322265625
0,283706,11.227802276611328,5.353047847747803,-12.52471923828125,20.976999282836914
0,283706,7.925967693328857,-8.88610553741455,9.463823318481445,-3.8646039962768555
0,283706,-13.515776634216309,-17.78915786743164,-6.541003227233887,-3.757160186767578
0,283706,-22.343730926513672,-4.292089462280273,-9.284982681274414,4.486053466796875
0,283707,13.066816329956055,25.66578483581543,-1.277472734451294,2.012006998062134
0,283707,18.427114486694336,2.3006374835968018,12.460719108581543,-7.694297790527344
0,283707,3.1090633869171143,-12.234989166259766,13.706185340881348,6.819225311279297
0,283707,5.712798118591309,2.222316265106201,-11.440849304199219,4.0927228927612305
0,283707,0.415645033121109,-16.961042404174805,-18.742515563964844,-20.08681869506836
0,283707,-9.880050659179688,-8.720498085021973,-3.446737051010132,-3.661355972290039
0,283708,-17.5555477142334,21.222206115722656,22.649477005004883,17.565488815307617
0,283708,18.862520217895508,15.414411544799805,-4.194789409637451,-9.530296325683594
0,283708,10.43140697479248,-12.467486381530762,-10.26412296295166,-12.652832984924316
0,283708,-16.569936752319336,-14.130125999450684,24.517789840698242,21.602806091308594
0,283708,13.994693756103516,11.969330787658691,-9.008526802062988,-6.136316776275635
0,283708,5.181060314178467,14.33398723602295,-26.588098526000977,-23.806720733642578
0,283709,-15.913355827331543,-19.71852684020996,9.23661994934082,17.913236618041992
0,283709,-11.870685577392578,-6.4324541091918945,21.04798126220703,8.47593879699707
0,283709,-3.5866341590881348,30.941970825195312,4.32945442199707,-4.126851558685303
0,283709,-7.976768970489502,-15.083313941955566,-11.017024993896484,11.873926162719727
0,283709,7.851496696472168,-23.98352813720703,-3.7217867374420166,-20.263656616210938
0,283710,16.650053024291992,18.561246871948242,-0.5054157376289368,-7.147451877593994
0,283710,-9.54421615600586,0.3356688618659973,-6.566538333892822,26.513639450073242
0,283710,-8.858551025390625,-13.04694652557373,15.954050064086914,8.096835136413574
0,283710,11.943184852600098,12.942554473876953,8.430119514465332,0.4091964066028595
0,283710,-5.905289173126221,8.838191986083984,-17.90044403076172,-4.73793888092041
0,283710,-10.248849868774414,-17.07674789428711,-6.457400321960449,-27.681411743164062
0,283711,30.39175796508789,0.6958608627319336,5.6280837059021,-5.541713714599609
0,283711,-8.934159278869629,11.977081298828125,1.4292997121810913,37.49083709716797
0,283711,-18.907508850097656,1.2946383953094482,7.507147312164307,0.7950077652931213
0,283711,21.24138069152832,3.0469512939453125,-2.193080186843872,-37.07441329956055
0,283711,-4.046534538269043,-8.62947940826416,-27.0717716217041,-6.35643196105957
0,283711,-5.489361763000488,-7.944548606872559,6.679318428039551,23.651430130004883
0,283712,11.114056587219238,7.613988399505615,30.618331909179688,11.676589012145996
0,283712,-4.862886428833008,0.31711670756340027,-7.418136119842529,-9.796480178833008
0,283712,-15.760202407836914,-8.172541618347168,-12.947199821472168,-4.818085670471191
0,283712,-3.906770944595337,14.673697471618652,13.920530319213867,-5.500634670257568
0,283712,12.814543724060059,4.146410942077637,-7.714818954467773,-5.049106121063232
0,283712,12.092008590698242,-26.72077178955078,-23.106050491333008,18.619211196899414
0,283713,-10.013784408569336,3.4645557403564453,16.928937911987305,8.871580123901367
0,283713,3.4960312843322754,19.467802047729492,23.41448211669922,-5.788205623626709
0,283713,3.9778800010681152,4.248031139373779,-19.984088897705078,-0.2604457437992096
0,283713,-19.79667854309082,-3.6732048988342285,-5.747679233551025,-6.289819717407227
0,283713,13.271859169006348,-8.81865119934082,28.2879638671875,8.501084327697754
0,283713,17.018238067626953,2.8942129611968994,-13.18679428100586,3.2983510494232178
0,283714,-11.595580101013184,0.29868045449256897,-16.718341827392578,-7.969967842102051
0,283714,-0.08464544266462326,-2.198051929473877,-1.9238135814666748,-0.3294011652469635
0,283714,4.837164878845215,9.626056671142578,-5.015547752380371,-7.952397346496582
0,283714,-14.824090003967285,-21.15428924560547,30.615829467773438,-0.11202843487262726
0,283714,-0.12780480086803436,3.987095832824707,0.38723865151405334,2.8893303871154785
0,283714,15.16421127319336,20.076101303100586,-32.513160705566406,-7.25271463394165
0,283715,-15.438719749450684,-26.486713409423828,12.105605125427246,-0.23722867667675018
0,283715,-11.410589218139648,6.501584053039551,18.362085342407227,12.421077728271484
0,283715,10.838601112365723,4.621677875518799,-13.237279891967773,4.389349460601807
0,283715,1.3959894180297852,-0.6036441922187805,4.640836238861084,-18.039121627807617
0,283715,-3.7922909259796143,7.6280293464660645,9.606685638427734,-0.7260025143623352
0,283715,0.09521372616291046,-23.591094970703125,-13.738776206970215,28.000741958618164
0,283716,15.314608573913574,12.46206283569336,-8.763022422790527,-10.425354957580566
0,283717,6.19230842590332,13.171598434448242,-4.547329902648926,-3.0434911251068115
0,283717,-26.509843826293945,-8.676883697509766,13.985867500305176,21.2969913482666
0,283717,-1.3984872102737427,6.602752685546875,10.326729774475098,-33.305419921875
0,283717,15.695958137512207,-1.795167088508606,-15.953714370727539,-16.71711540222168
0,283718,-2.499089479446411,-3.7291276454925537,-12.408562660217285,27.42852020263672
0,283718,9.62925910949707,6.65907096862793,11.227402687072754,-0.3964075446128845
0,283718,16.57513427734375,8.572647094726562,5.081784725189209,-13.102801322937012
0,283719,-6.771761894226074,-1.399342656135559,3.5177769660949707,7.775613784790039
0,283721,-19.347293853759766,-7.294349670410156,19.085033416748047,22.697118759155273
0,283723,-4.044284343719482,-6.4845499992370605,-3.0576322078704834,-2.3076515197753906
0,283725,17.0391845703125,10.413683891296387,-7.5597333908081055,-26.618980407714844
0,283727,10.445765495300293,7.800159454345703,-6.451242923736572,-18.42458152770996
0,283729,-15.246443748474121,-11.896391868591309,-0.8246868252754211,2.3894574642181396
0,283731,-7.17566442489624,1.8150358200073242,-4.124614715576172,38.60041046142578
0,283733,5.400239944458008,-4.37439489364624,-11.244338035583496,1.9537891149520874
0,283735,1.8979566097259521,-25.796052932739258,10.663116455078125,-22.65390396118164
0,283737,-7.012803077697754,4.946036338806152,1.5341343879699707,15.373982429504395
0,283739,-12.244123458862305,12.262646675109863,-15.250967979431152,-8.160354614257812
0,283741,-14.434898376464844,-6.471240043640137,-3.2457997798919678,-7.15725040435791
0,283743,20.150453567504883,14.32481861114502,2.584782838821411,12.36838150024414
0,283745,25.52143669128418,1.4366519451141357,13.622116088867188,1.9910361766815186
0,283747,-33.76039505004883,-15.10141372680664,8.65936279296875,12.546624183654785
0,283749,-12.231266021728516,12.102498054504395,-6.560620307922363,-3.237459897994995
0,283751,20.000444412231445,13.598648071289062,12.116272926330566,-20.309814453125
0,283753,2.384960889816284,-2.0932605266571045,-1.5823858976364136,-13.021735191345215
0,283755,2.0072593688964844,0.35154592990875244,-18.258098602294922,19.036935806274414
0,283757,3.163562297821045,5.509266376495361,-4.470714092254639,20.76927375793457
0,283759,10.833775520324707,-5.442275047302246,17.56980323791504,-30.16598129272461
0,283761,-2.269862651824951,-16.256885528564453,15.777373313903809,0.8219703435897827
0,283763,-4.966189384460449,17.465051651000977,-18.839479446411133,19.6761417388916
0,283765,4.194134712219238,-1.7811827659606934,-1.5264545679092407,-14.832690238952637
1,285557,-19.952714920043945,-41.27663040161133,49.433082580566406,1.1537529230117798
1,285559,14.111689567565918,15.337096214294434,-21.886226654052734,-4.74474573135376
1,285561,20.42908477783203,20.01557731628418,-83.11054229736328,-13.054232597351074
1,285563,-14.920334815979004,-17.719348907470703,22.102800369262695,5.184751510620117
1,285565,-11.001230239868164,-1.2445869445800781,44.76101303100586,11.643803596496582
1,285567,3.3994040489196777,14.140191078186035,-10.174839973449707,3.3732547760009766
1,285569,9.677133560180664,-0.0883769765496254,-6.882752418518066,-12.87208366394043
1,285571,-9.987691879272461,6.0123090744018555,-10.83908748626709,-2.777700424194336
1,285574,-1.2458488941192627,12.471814155578613,-1.6084539890289307,0.560686469078064
1,285585,-3.95096755027771,-26.238569259643555,18.299806594848633,6.736509323120117
1,285585,-1.9077856540679932,-16.952239990234375,-8.660658836364746,18.091445922851562
1,285585,12.517680168151855,15.987996101379395,-12.059946060180664,-1.0522699356079102
1,285586,-1.4736433029174805,3.941960096359253,13.773933410644531,-14.361001968383789
1,285586,-11.266064643859863,-8.594467163085938,10.105957984924316,11.849616050720215
1,285586,-8.494634628295898,7.622519493103027,12.110807418823242,10.423346519470215
1,285587,10.36883544921875,28.859909057617188,1.7019778490066528,-15.752494812011719
1,285588,-0.11287865042686462,4.225029945373535,-14.301932334899902,-5.654872894287109
1,285591,-15.65129280090332,-36.62064743041992,-7.364749431610107,-0.616741418838501
1,285592,7.378145694732666,-5.286351203918457,3.426044464111328,-1.7681195735931396
1,285595,13.596921920776367,26.69192123413086,-2.591043472290039,22.05803108215332
1,285596,2.416116714477539,7.901942729949951,-6.668398857116699,12.637615203857422
1,285599,10.541448593139648,3.468400001525879,18.586502075195312,-26.2960147857666
1,285601,-4.035728454589844,-25.904356002807617,8.732625007629395,-8.781664848327637
1,285603,-8.702195167541504,-8.772408485412598,-15.621929168701172,1.945418357849121
1,285605,11.526101112365723,17.274551391601562,5.444319725036621,1.1998794078826904
1,285607,-6.040615081787109,-13.417667388916016,-6.442538261413574,3.057988166809082
1,285609,-5.030892372131348,9.723864555358887,-7.859585285186768,-4.039932727813721
1,285633,6.068509101867676,-10.325189590454102,6.216191291809082,-1.2972735166549683
1,285633,-9.06013011932373,-21.217697143554688,-10.903067588806152,6.154261589050293
1,285633,4.505364418029785,40.30443572998047,10.187935829162598,15.265485763549805
1,285634,6.6456475257873535,6.416318416595459,10.246636390686035,-0.06711123883724213
1,285634,0.5156751275062561,-13.407632827758789,-3.910858631134033,-8.589973449707031
1,285634,5.755610942840576,18.053802490234375,-1.1286940574645996,-9.339048385620117
1,285634,-14.895031929016113,-24.75554084777832,-10.816767692565918,-11.80434513092041
1,285634,-5.76506233215332,-13.130786895751953,-2.3292529582977295,-3.5097460746765137
1,285635,11.957716941833496,23.52140998840332,4.580458641052246,3.9853169918060303
1,285635,-21.016992568969727,-8.803445816040039,13.11738109588623,16.344959259033203
1,285635,-5.68121862411499,4.529783725738525,-3.8132035732269287,3.938025951385498
1,285635,33.33341979980469,4.053865432739258,-26.579622268676758,-19.162446975708008
1,285636,2.199934244155884,-12.667783737182617,17.413814544677734,8.260660171508789
1,285637,-17.05895233154297,-5.53363037109375,13.617729187011719,15.569059371948242
1,285639,-11.359369277954102,-12.904228210449219,-14.615131378173828,-5.763426780700684
1,285641,-1.6086177825927734,10.715086936950684,9.125066757202148,-12.681294441223145
1,285643,4.195351600646973,15.786099433898926,-5.726054668426514,-3.7079429626464844
1,285645,4.985246181488037,-9.603952407836914,-12.664531707763672,28.030122756958008
1,285647,10.509512901306152,5.972866535186768,7.41826868057251,-3.331664562225342
1,285649,-6.755796909332275,14.585732460021973,23.367094039916992,-20.998640060424805
1,285651,0.4669378101825714,-16.03217315673828,0.14080414175987244,-4.226024627685547
1,285653,6.752532005310059,-2.581193685531616,-28.9695987701416,-4.414103031158447
1,285655,-4.711071491241455,17.919231414794922,14.504940032958984,19.16933250427246
1,285657,4.039468765258789,3.1642234325408936,20.628746032714844,-10.173345565795898
1,285659,-9.361401557922363,-22.659893035888672,-27.553598403930664,-18.128013610839844
1,285661,-1.8754448890686035,-5.956100940704346,-8.085177421569824,34.932247161865234
1,285698,24.2640323638916,23.119197845458984,17.691390991210938,29.881324768066406
1,285698,-5.96577262878418,-19.90033721923828,-8.678446769714355,-23.930065155029297
1,285698,-11.205375671386719,-14.211838722229004,5.675037860870361,-30.744037628173828
1,285699,3.664083957672119,16.11790657043457,0.5173007845878601,8.881023406982422
1,285699,-11.404083251953125,0.4279758930206299,-17.55158233642578,7.594468593597412
1,285699,3.372361421585083,12.939476013183594,3.6969616413116455,-5.0240278244018555
1,285699,10.391596794128418,-3.6957006454467773,7.873533248901367,-9.068479537963867
1,285699,-3.2776081562042236,-6.3792595863342285,1.2439812421798706,-10.748494148254395
1,285699,-6.4485554695129395,18.712873458862305,-6.728395462036133,20.156341552734375
1,285700,3.413764715194702,-6.145084381103516,11.62155818939209,-1.9534990787506104
1,285700,0.23600183427333832,-8.375873565673828,7.009590148925781,-17.71449851989746
1,285700,-21.763473510742188,1.7043906450271606,-5.591585636138916,33.34236526489258
1,285700,7.92951774597168,9.34738540649414,20.341707229614258,-3.9153406620025635
1,285700,23.522628784179688,-5.074862957000732,0.29671457409858704,-33.53472900390625
1,285700,-2.216418504714966,-21.68601417541504,-21.90707015991211,17.63327407836914
1,285701,-10.320977210998535,11.226390838623047,1.6977688074111938,24.169095993041992
1,285701,-4.483363151550293,16.795286178588867,7.77158260345459,4.869221210479736
1,285701,20.660512924194336,-0.23927617073059082,-11.091302871704102,-17.330202102661133
1,285702,1.0968754291534424,-2.7033119201660156,-0.9706466794013977,-6.973369121551514
1,285702,-33.344661712646484,-16.428512573242188,14.76839542388916,20.14662742614746
1,285704,3.280583381652832,-0.758489191532135,-5.538107395172119,3.026094675064087
1,285705,24.120370864868164,3.1662228107452393,-7.71663236618042,-12.929076194763184
1,285706,0.505514919757843,-20.602256774902344,2.1084041595458984,-8.337584495544434
1,285709,-7.291654586791992,16.396108627319336,-8.700726509094238,2.393153429031372
1,285710,-15.451626777648926,24.636899948120117,-19.39360237121582,1.7676939964294434
1,285713,-0.6391940116882324,-2.131376266479492,10.541200637817383,-7.360507965087891
1,285714,16.99677085876465,-7.3246073722839355,17.991275787353516,2.529500722885132
1,285717,7.626121520996094,-17.470458984375,-18.318836212158203,2.61653208732605
1,285718,-2.9406750202178955,-10.754410743713379,-4.527644157409668,-12.059961318969727
1,285721,-11.976080894470215,17.20821762084961,22.903451919555664,6.593031406402588
1,285722,0.3706187307834625,30.92290687561035,2.942265748977661,5.711125373840332
1,285725,-2.693499803543091,-20.255023956298828,-24.8208065032959,-6.657878875732422
1,285726,-3.9030838012695312,-31.640003204345703,8.744134902954102,0.12950746715068817
1,285729,17.693893432617188,27.652761459350586,11.648889541625977,6.152728080749512
1,285778,-2.4877586364746094,-7.484119415283203,-27.405550003051758,7.493587493896484
1,285778,-14.297470092773438,-29.896638870239258,23.01430320739746,-2.068859338760376
1,285779,11.48058032989502,33.39723587036133,41.40393829345703,10.924379348754883
1,285779,8.524373054504395,29.293079376220703,-22.620765686035156,-14.18674087524414
1,285779,1.1562844514846802,-15.947907447814941,-34.13820266723633,-17.291996002197266
1,285779,-2.1744227409362793,-21.399864196777344,14.975968360900879,21.91716766357422
1,285779,-12.266045570373535,1.6919811964035034,20.584150314331055,0.6476437449455261
1,285779,8.307518005371094,24.527217864990234,-14.807828903198242,-2.780423641204834
1,285780,10.360721588134766,8.668895721435547,-7.936120986938477,11.403637886047363
1,285780,-9.689811706542969,-22.39400291442871,0.7568108439445496,-14.941415786743164
1,285780,-4.346553325653076,-12.480881690979004,8.552704811096191,-13.91581916809082
1,285780,-9.301130294799805,-5.916080951690674,4.164178848266602,6.112204551696777
1,285780,-12.392449378967285,-1.6335127353668213,-6.760733127593994,0.2221451997756958
1,285781,14.280367851257324,19.144241333007812,5.79403018951416,1.0080233812332153
1,285781,8.50338077545166,5.836519718170166,-11.41063404083252,10.4861421585083
1,285781,-6.565145492553711,-7.728151321411133,-18.317249298095703,3.3247530460357666
1,285781,-3.639846086502075,-1.6990171670913696,17.94109535217285,-21.051326751708984
1,285781,5.056204795837402,8.878024101257324,11.494301795959473,-1.8662269115447998
1,285781,8.348183631896973,-0.9086987972259521,-22.569683074951172,20.08547592163086
1,285781,-14.526535034179688,-19.343791961669922,6.196704864501953,-5.14178991317749
1,285782,-6.712482452392578,-1.2271437644958496,24.5545654296875,1.2935889959335327
1,285782,6.595608711242676,24.216520309448242,-0.5072832107543945,7.322208404541016
1,285782,4.4579691886901855,25.05130958557129,-12.291973114013672,-19.675413131713867
1,285782,7.548574924468994,-25.840375900268555,-9.511075973510742,-8.954218864440918
1,285783,9.071352005004883,-32.0706787109375,9.853184700012207,16.049863815307617
1,285784,7.130048751831055,27.081932067871094,7.0447678565979,-11.384293556213379
1,285784,-7.740490913391113,12.54189682006836,-19.248605728149414,-8.214986801147461
1,285785,-21.569015502929688,-14.690241813659668,4.224905014038086,38.52516555786133
1,285786,12.135174751281738,1.02956223487854,21.078109741210938,29.272136688232422
1,285789,16.934364318847656,-15.89665412902832,-17.32929801940918,-16.26228904724121
1,285790,-29.090909957885742,0.3673108220100403,-15.45582389831543,-29.016401290893555
1,285793,2.6927647590637207,20.46111297607422,2.5576090812683105,-5.539330959320068
1,285794,23.541011810302734,-16.53799819946289,-1.6711949110031128,6.7082200050354
1,285797,-11.342765808105469,-7.490450859069824,5.754577159881592,3.130549430847168
1,285798,-12.144540786743164,10.971613883972168,17.372699737548828,-12.838644981384277
1,285801,-10.244913101196289,0.4274793565273285,-0.49923062324523926,-8.697237014770508
1,285802,-0.8804007172584534,-13.132713317871094,-26.292011260986328,17.63005256652832
1,285805,12.850115776062012,14.071551322937012,20.590532302856445,18.590246200561523
1,285806,1.3396954536437988,25.195884704589844,30.83263397216797,-5.793248653411865
1,285809,21.585500717163086,-15.598883628845215,-26.97925567626953,-19.740877151489258
1,285810,2.1407244205474854,4.953122615814209,-13.520572662353516,-10.190814018249512
1,285813,-30.48996353149414,0.3044033944606781,18.881650924682617,13.115799903869629
1,285875,19.251934051513672,-17.996829986572266,12.054582595825195,6.593847751617432
1,285875,10.562854766845703,11.778501510620117,-2.4870026111602783,-19.754831314086914
1,285876,-22.995492935180664,-12.147919654846191,-19.144760131835938,12.447319984436035
1,285876,-4.122193813323975,-9.64194393157959,-7.681869983673096,26.802440643310547
1,285876,3.8256914615631104,34.88505935668945,5.636443614959717,-15.51575756072998
1,285876,5.411446571350098,-13.052388191223145,-3.3913283348083496,-31.702119827270508
1,285876,0.3085211217403412,-18.54982566833496,9.283016204833984,2.607455015182495
1,285876,2.519660234451294,28.891237258911133,12.016647338867188,31.069629669189453
1,285877,0.9120365381240845,-16.182151794433594,-4.5074286460876465,-1.3612514734268188
1,285877,-10.207362174987793,-25.67453384399414,-11.464577674865723,-18.97687530517578
1,285877,0.2828126549720764,25.674654006958008,-8.846147537231445,15.67416763305664
1,285877,-0.7914957404136658,27.220165252685547,4.005042552947998,20.029041290283203
1,285877,-1.4932712316513062,-16.294902801513672,12.386412620544434,-2.65069842338562
1,285878,7.593710422515869,-23.80907440185547,1.5937488079071045,-17.4020938873291
1,285878,3.24477219581604,0.5546068549156189,-6.905223846435547,-14.00672721862793
1,285878,-1.9863345623016357,16.348426818847656,-2.940809488296509,2.3445138931274414
1,285878,-9.668173789978027,2.336965322494507,-14.00876522064209,2.3295094966888428
1,285878,-2.7731730937957764,-22.930036544799805,-9.28559398651123,-0.30173900723457336
1,285878,5.083368301391602,9.196619033813477,20.375520706176758,8.203631401062012
1,285879,-0.9880982041358948,26.34720802307129,11.989973068237305,5.209927082061768
1,285879,-5.629791259765625,-20.375043869018555,-28.71925163269043,0.4928814470767975
1,285879,-7.5137248039245605,-26.16884422302246,-0.5320796966552734,7.181768894195557
1,285879,7.496767997741699,23.25149917602539,28.500797271728516,-1.6959728002548218
1,285879,23.796531677246094,15.550348281860352,-12.643037796020508,-24.28163719177246
1,285879,3.5309088230133057,-14.49409008026123,-5.1975250244140625,-8.01978874206543
1,285880,-19.072622299194336,-4.999156951904297,29.55877685546875,22.406566619873047
1,285880,1.6180578470230103,9.417862892150879,10.036484718322754,-2.248901605606079
1,285880,0.8308268785476685,7.126028060913086,-17.810001373291016,-10.003907203674316
1,285880,1.4297854900360107,-4.188043117523193,5.7330756187438965,9.574230194091797
1,285880,28.001882553100586,7.947264194488525,11.435273170471191,-12.944890975952148
1,285880,-0.03628634661436081,-1.3192481994628906,-22.125791549682617,-10.619991302490234
1,285882,-31.303922653198242,-3.1820015907287598,4.979506969451904,13.56788158416748
1,285882,8.020400047302246,9.866141319274902,15.111221313476562,-9.193394660949707
1,285882,21.568286895751953,-16.326919555664062,-18.8472843170166,7.160903453826904
1,285883,-11.954346656799316,-20.42822265625,-7.139817714691162,25.029664993286133
1,285885,-10.576541900634766,10.569851875305176,-31.17487144470215,2.7696759700775146
1,285887,-1.6400601863861084,16.718849182128906,-53.92499542236328,8.742429733276367
1,285889,-8.66213607788086,-8.131306648254395,6.897332668304443,-12.781635284423828
1,285891,-27.905132293701172,-14.212705612182617,8.853970527648926,12.697996139526367
1,285893,5.73883581161499,5.977736473083496,2.966639995574951,36.38557815551758
1,285895,30.490800857543945,10.891010284423828,67.27426147460938,-33.34528732299805
1,285897,-5.703248500823975,-23.331581115722656,33.851253509521484,-43.52180862426758
1,285900,-3.5535542964935303,3.951697587966919,-20.240556716918945,-13.058981895446777
1,285901,6.71484375,59.610137939453125,-5.085968494415283,0.43652766942977905
1,285904,7.143521308898926,-3.6568353176116943,16.562177658081055,17.110090255737305
1,285905,-0.9913363456726074,-56.69660186767578,9.995872497558594,20.024717330932617
1,285908,2.219916343688965,13.466419219970703,-16.39988136291504,-12.670516014099121
1,285909,-0.32410675287246704,27.318662643432617,-1.0135078430175781,-26.891368865966797
1,285912,-2.346912384033203,-19.189727783203125,11.76944637298584,9.396516799926758
1,285913,16.14542579650879,-9.222487449645996,-4.299166202545166,15.05998420715332
1,285986,-12.998283386230469,-8.789352416992188,-2.7568743228912354,-6.982967376708984
1,285987,-16.684412002563477,13.098544120788574,-13.869180679321289,-12.967110633850098
1,285987,-7.517735958099365,14.947707176208496,-31.9352970123291,7.921137809753418
1,285987,-9.634629249572754,-24.282215118408203,15.033509254455566,20.140522003173828
1,285987,18.424287796020508,-5.8906779289245605,22.664278030395508,13.025430679321289
1,285987,12.022364616394043,16.474119186401367,-5.915467739105225,-10.042165756225586
1,285987,-2.761821985244751,4.535223960876465,4.97982120513916,-11.761761665344238
1,285988,7.5381999015808105,7.429571151733398,-2.6796681880950928,5.924952983856201
1,285988,9.209744453430176,-5.26960563659668,-17.313167572021484,-6.757663249969482
1,285988,-9.384593963623047,-5.887335777282715,-10.80101490020752,21.06017303466797
1,285988,-26.485992431640625,2.577176809310913,-7.719627380371094,19.47895622253418
1,285988,2.683363676071167,-22.95615577697754,-4.771640777587891,-10.730646133422852
1,285988,15.098614692687988,11.00990104675293,15.366057395935059,4.701603412628174
1,285989,-2.7680060863494873,27.76165771484375,17.504581451416016,-19.91541290283203
1,285989,12.226773262023926,-18.995311737060547,-8.06200122833252,-28.44161033630371
1,285989,-4.146862506866455,-25.905681610107422,-12.022470474243164,13.486689567565918
1,285989,-16.678207397460938,8.813810348510742,31.874988555908203,0.991922914981842
1,285989,21.015277862548828,28.134342193603516,18.7439022064209,-26.564062118530273
1,285990,25.85458755493164,1.38792884349823,-19.32155418395996,-2.7054309844970703
1,285990,-13.342888832092285,-8.578408241271973,-1.5209294557571411,6.273581504821777
1,285990,-22.98294448852539,14.178297996520996,5.917527675628662,4.096538543701172
1,285990,8.044983863830566,0.38257116079330444,-3.0990993976593018,28.55596351623535
1,285990,14.297297477722168,-25.22126007080078,-20.047754287719727,13.72506332397461
1,285990,-0.027474800124764442,-4.325165271759033,-13.377702713012695,-17.726205825805664
1,285991,-16.859201431274414,16.774009704589844,18.511056900024414,3.9788451194763184
1,285991,0.8037402033805847,15.772344589233398,-2.621804714202881,9.353316307067871
1,285991,10.520049095153809,-1.8997734785079956,-10.19367504119873,-13.969475746154785
1,285991,-20.30982780456543,-23.58180809020996,14.548182487487793,4.3437299728393555
1,285991,-1.41642165184021,-4.887142181396484,-0.5922591686248779,21.313804626464844
1,285991,17.618511199951172,9.433513641357422,1.9974809885025024,0.6203190088272095
1,285992,3.0394842624664307,1.2735202312469482,-12.620686531066895,-12.60063648223877
1,285992,-11.946434020996094,-1.9359873533248901,-14.54725456237793,-12.57807731628418
1,285992,-19.95952606201172,1.1006369590759277,30.303375244140625,-10.71866226196289
1,285992,-6.6017351150512695,-5.924509048461914,9.104009628295898,2.110031843185425
1,285992,16.721097946166992,-6.8522562980651855,-18.268075942993164,6.841832637786865
1,285992,11.030982971191406,12.47946834564209,3.962484121322632,0.3622618317604065
1,285993,-29.19928550720215,2.393641948699951,26.62972640991211,-4.759213447570801
1,285994,-22.865270614624023,-2.6490509510040283,-3.2809011936187744,-11.82046127319336
1,285994,10.566852569580078,-0.004056381992995739,-45.53069305419922,-2.919560432434082
1,285994,26.152917861938477,-12.599495887756348,-5.758458137512207,19.78573226928711
1,285996,13.712804794311523,1.5900404453277588,18.19838523864746,8.81398868560791
1,285997,2.5173239707946777,19.15826416015625,-7.088295936584473,-9.348177909851074
1,286000,15.734296798706055,-4.901284217834473,-50.21935272216797,33.917171478271484
1,286001,-20.521942138671875,-9.283646583557129,2.767427444458008,-6.427907466888428
1,286004,-19.890153884887695,15.399015426635742,15.585528373718262,-29.8957576751709
1,286005,17.29007339477539,-12.102021217346191,-126.21412658691406,72.02185821533203
1,286008,-13.413956642150879,-19.00609588623047,-98.77827453613281,46.85198974609375
1,286009,-25.84780502319336,1.0786703824996948,118.6348876953125,-15.662261962890625
1,286012,41.0406379699707,19.093219757080078,268.6210021972656,-50.541053771972656
1,286013,46.43744659423828,34.01528549194336,89.0929183959961,-79.06241607666016
1,286016,-36.56733322143555,-15.689458847045898,-125.49794006347656,-23.262056350708008
1,286017,-23.519079208374023,-29.91301918029785,-37.13728332519531,-5.375062465667725
1,286020,8.942261695861816,-13.264960289001465,30.03512954711914,7.1950178146362305
1,286021,1.5809789896011353,28.399381637573242,-10.554777145385742,23.97903060913086
1,286024,23.9033260345459,42.154911041259766,0.39036598801612854,-7.190088748931885
1,286025,5.664102077484131,-31.319351196289062,22.77808952331543,7.997058868408203
1,286028,-7.70031213760376,-26.765548706054688,-22.066478729248047,-16.88639259338379
1,286029,-18.46485710144043,-0.691216230392456,-69.04390716552734,-6.579892635345459
1,286115,-20.797414779663086,-8.555682182312012,-27.07586097717285,67.92682647705078
1,286116,17.96727752685547,12.945881843566895,-8.022337913513184,23.215951919555664
1,286116,-1.3788686990737915,28.08001136779785,-10.027984619140625,-13.144028663635254
1,286116,-10.400189399719238,-1.6449253559112549,2.742443323135376,-12.663540840148926
1,286116,8.966979026794434,-19.232925415039062,4.185033321380615,1.5475198030471802
1,286116,-6.352790355682373,-4.411826133728027,29.63898468017578,19.539167404174805
1,286116,10.810826301574707,1.3728578090667725,30.287382125854492,-22.933414459228516
1,286117,18.04090690612793,11.844073295593262,13.32337760925293,-33.560752868652344
1,286117,-23.03209114074707,-0.26821663975715637,-4.8762526512146,-8.914819717407227
1,286117,-14.169580459594727,-16.822980880737305,-5.402159214019775,0.9300369024276733
1,286117,29.393815994262695,21.481231689453125,1.520040512084961,7.177810192108154
1,286117,14.253801345825195,-2.065964937210083,-22.157094955444336,6.023027420043945
1,286117,-21.636598587036133,-33.3996467590332,-11.880941390991211,6.994624137878418
1,286118,-7.815399646759033,21.172578811645508,4.860291481018066,21.24348258972168
1,286118,9.418529510498047,7.071407794952393,6.755260467529297,6.931199073791504
1,286118,-10.097383499145508,-12.639086723327637,13.997613906860352,-4.113940238952637
1,286118,-8.231237411499023,10.427520751953125,12.294296264648438,0.7871447801589966
1,286118,26.853796005249023,-2.403885841369629,6.297840118408203,-13.306032180786133
1,286118,7.072036266326904,-2.516336441040039,-5.093003749847412,-9.330883979797363
1,286119,-14.074240684509277,17.024620056152344,-5.033792495727539,3.1760239601135254
1,286119,5.291936874389648,6.448944568634033,-23.419864654541016,-1.3419671058654785
1,286119,-13.903752326965332,-6.608717918395996,-27.672014236450195,1.3403677940368652
1,286119,0.9505807757377625,-3.2866127490997314,-16.472091674804688,6.175198554992676
1,286119,3.93652081489563,-26.433530807495117,-11.685253143310547,19.63698959350586
1,286119,-13.843605995178223,-1.558943748474121,17.9996280670166,12.691179275512695
1,286120,21.955989837646484,37.07967758178711,24.311786651611328,-26.788990020751953
1,286120,4.537371635437012,-19.853492736816406,4.473814487457275,-21.917457580566406
1,286120,-17.49551010131836,-17.893903732299805,3.8754470348358154,0.5215232968330383
1,286120,12.047530174255371,33.52762222290039,1.4233437776565552,0.3008477985858917
1,286120,10.791958808898926,-13.2247953414917,-6.044845104217529,18.68570899963379
1,286121,-14.6773042678833,-18.694185256958008,-11.436480522155762,-5.783869743347168
1,286121,-11.15578842163086,27.869037628173828,-13.379242897033691,-34.83099365234375
1,286121,3.2220451831817627,-11.115398406982422,9.015697479248047,23.38020133972168
1,286121,10.306026458740234,-23.219547271728516,3.6520278453826904,35.509212493896484
1,286121,9.065800666809082,31.911766052246094,5.771147727966309,-1.259998083114624
1,286121,-12.205204010009766,18.001914978027344,17.534957885742188,-15.706013679504395
1,286122,-0.9269510507583618,-17.982276916503906,-8.134897232055664,-17.176414489746094
1,286122,0.15901310741901398,-10.69227123260498,9.037820816040039,-1.4907639026641846
1,286122,-6.406814098358154,6.4653849601745605,22.942001342773438,5.625567436218262
1,286122,21.40485954284668,12.49078369140625,0.6272516250610352,5.501632213592529
1,286122,-7.994908809661865,-18.352506637573242,-6.063108444213867,6.716487884521484
1,286122,-22.01906394958496,-2.0668418407440186,-10.958333015441895,-11.842561721801758
1,286123,3.450260877609253,6.123063087463379,-20.542945861816406,0.48977160453796387
1,286124,2.3118817806243896,-25.49580955505371,-17.090768814086914,29.468364715576172
1,286124,-4.023213863372803,10.403753280639648,-1.9055079221725464,-5.870172500610352
1,286124,-9.85295581817627,9.809847831726074,16.273488998413086,-13.191344261169434
1,286124,7.053269386291504,-4.839786052703857,22.486392974853516,-5.475616455078125
1,286126,14.607219696044922,7.208041667938232,16.768779754638672,2.782644033432007
1,286127,-6.610804080963135,-5.692831039428711,5.963541507720947,25.521635055541992
1,286130,-40.44994354248047,13.724214553833008,-27.736940383911133,-2.594367504119873
1,286131,-4.807114124298096,4.448166370391846,-2.1837031841278076,-2.0253827571868896
1,286132,41.37213134765625,-19.646169662475586,47.02402114868164,-2.486628293991089
1,286135,22.840293884277344,12.276740074157715,17.002199172973633,-44.815547943115234
1,286136,26.58771324157715,9.637285232543945,-22.65487289428711,-36.22303771972656
1,286139,-13.532469749450684,-23.378726959228516,-66.57057189941406,29.64519500732422
1,286140,-34.79945373535156,-7.387343406677246,-20.482898712158203,44.76156997680664
1,286143,2.554473400115967,16.45733642578125,46.217498779296875,-0.5062422156333923
1,286144,-4.882139682769775,1.9847575426101685,11.886279106140137,-10.846075057983398
1,286147,11.10110855102539,-0.02428547851741314,21.395999908447266,-21.287790298461914
1,286148,36.856502532958984,2.5288217067718506,-34.29127883911133,-28.424468994140625
1,286151,-20.62851905822754,-6.363653182983398,-80.07987213134766,38.7711181640625
1,286152,-58.55609893798828,0.3024537265300751,41.35841751098633,65.31146240234375
1,286155,19.431804656982422,15.957831382751465,62.7465934753418,-5.769305229187012
1,286156,53.18682098388672,2.871572494506836,-12.780038833618164,-47.84574508666992
1,286159,-1.1578996181488037,-36.37758255004883,12.423261642456055,-33.78586959838867
1,286257,-18.2091007232666,12.667101860046387,18.388063430786133,4.230422019958496
1,286257,-4.269415855407715,32.17374801635742,-17.694425582885742,6.274539947509766
1,286257,1.5321792364120483,-21.992586135864258,-23.190269470214844,0.7932596802711487
1,286257,-7.906788349151611,-10.12514877319336,6.884331226348877,11.945517539978027
1,286257,-6.111489772796631,7.47714900970459,13.762626647949219,-19.477432250976562
1,286257,4.553504467010498,18.9119815826416,-27.945938110351562,-0.67410808801651
1,286258,12.648847579956055,-27.400299072265625,-9.140105247497559,25.413644790649414
1,286258,-8.34583854675293,-26.383995056152344,8.227808952331543,0.6207631230354309
1,286258,-23.686765670776367,47.607975006103516,8.747626304626465,0.22104790806770325
1,286258,1.691101312637329,0.17751511931419373,14.239365577697754,5.446683406829834
1,286258,21.013330459594727,-14.642560958862305,-14.669473648071289,7.728158473968506
1,286258,1.3744240999221802,3.8631930351257324,-13.793539047241211,-3.2956063747406006
1,286259,-15.68848705291748,-19.30794334411621,9.756616592407227,-0.27727463841438293
1,286259,11.721419334411621,11.578511238098145,12.61401081085205,10.287749290466309
1,286259,8.9059476852417,11.759591102600098,-17.041656494140625,-16.10810661315918
1,286259,-12.615405082702637,-7.693426132202148,-21.466411590576172,-16.273426055908203
1,286259,-7.4685893058776855,-5.235618591308594,28.51521873474121,9.143228530883789
1,286259,3.0072038173675537,-1.203701376914978,24.135936737060547,4.2236409187316895
1,286260,5.44141149520874,25.4898738861084,-15.467087745666504,0.1536269187927246
1,286260,-3.1588618755340576,-6.465354919433594,-9.771891593933105,16.503982543945312
1,286260,-6.1871256828308105,-34.697166442871094,1.836456537246704,-14.337677955627441
1,286260,15.90141487121582,15.856546401977539,-8.083535194396973,-16.219987869262695
1,286260,17.035844802856445,17.579326629638672,-11.138009071350098,29.71307373046875
1,286260,-13.052118301391602,-26.084228515625,-1.3696396350860596,-2.3916962146759033
1,286261,-15.129178047180176,-4.176653861999512,17.499975204467773,-8.975885391235352
1,286261,5.935227394104004,28.935815811157227,14.344059944152832,-2.988314151763916
1,286261,15.860596656799316,-11.08900260925293,-19.427284240722656,-4.941522598266602
1,286261,-9.623852729797363,-10.181368827819824,-6.070777416229248,26.46405792236328
1,286261,-21.737619400024414,32.886165618896484,18.37963104248047,-21.262462615966797
1,286262,-0.22867415845394135,-2.601884603500366,1.605131983757019,-15.16026782989502
1,286262,6.561202526092529,-26.731990814208984,-11.903392791748047,22.91444969177246
1,286262,12.059525489807129,19.341684341430664,9.778573989868164,-10.92670726776123
1,286262,-3.5353500843048096,6.101717948913574,16.2116641998291,2.9066967964172363
1,286262,-13.46430778503418,-19.341583251953125,-23.5570125579834,-4.098134994506836
1,286262,10.380542755126953,-4.13422155380249,1.3084585666656494,-6.123899459838867
1,286263,15.599379539489746,4.608345031738281,18.262920379638672,10.23098087310791
1,286263,-1.8777471780776978,14.097772598266602,-15.676798820495605,-17.605426788330078
1,286263,-14.69418716430664,-15.647436141967773,-2.0787718296051025,1.2010431289672852
1,286263,5.389939785003662,-10.744412422180176,5.497864246368408,15.354401588439941
1,286263,15.103256225585938,4.5774641036987305,-0.008417616598308086,0.5580891370773315
1,286263,-21.25487518310547,-8.043865203857422,-4.188858985900879,10.098276138305664
1,286264,-5.5881781578063965,11.97535514831543,-20.465524673461914,10.203639030456543
1,286264,29.584766387939453,20.872283935546875,-1.364396095275879,-7.1191887855529785
1,286264,-11.174492835998535,5.684096336364746,32.23302459716797,-21.948184967041016
1,286264,-14.03354549407959,-30.033864974975586,6.128993988037109,-7.53236198425293
1,286264,19.270015716552734,9.131335258483887,-19.914472579956055,11.455276489257812
1,286264,-3.7245988845825195,35.0134391784668,12.206528663635254,24.258464813232422
1,286265,-7.596048355102539,-39.19406509399414,6.001912593841553,2.188723087310791
1,286265,11.158488273620605,-7.57735538482666,-28.444326400756836,-41.37993621826172
1,286266,-6.372298717498779,32.4505615234375,-2.8905768394470215,0.30311352014541626
1,286266,-22.709320068359375,-11.509721755981445,12.098821640014648,26.979326248168945
1,286266,-2.2351672649383545,-3.522228479385376,6.426283359527588,2.6658544540405273
1,286267,11.378009796142578,-5.66595458984375,16.421634674072266,3.8823142051696777
1,286268,9.483893394470215,-37.35661697387695,-1.3386013507843018,-5.130770683288574
1,286269,18.171255111694336,8.403789520263672,-32.722049713134766,-17.715742111206055
1,286270,-10.633220672607422,41.397953033447266,-3.581570863723755,-0.5257893800735474
1,286273,-9.184866905212402,2.1931166648864746,28.044967651367188,3.567525625228882
1,286274,10.948877334594727,-22.659746170043945,-8.017298698425293,0.8568801283836365
1,286277,-12.347865104675293,-22.365049362182617,-19.970626831054688,13.828136444091797
1,286278,-6.3017191886901855,18.889205932617188,9.569757461547852,-14.747207641601562
1,286281,0.039938099682331085,26.168319702148438,19.47307777404785,8.016690254211426
1,286282,7.002330780029297,-11.603315353393555,6.028990745544434,17.317419052124023
1,286285,4.311579704284668,15.63732624053955,-2.372716188430786,-26.67243766784668
1,286287,-15.475265502929688,17.243240356445312,-11.363509178161621,-11.112205505371094
1,286289,6.991662979125977,-31.70157814025879,-12.168037414550781,14.54089641571045
1,286291,15.599239349365234,-21.252071380615234,0.1968415230512619,10.957963943481445
1,286293,-11.564128875732422,9.463153839111328,14.679496765136719,-0.48108747601509094
1,286295,-11.074463844299316,8.519272804260254,6.053501129150391,6.847917079925537
1,286297,7.620494365692139,4.198542594909668,-24.10491180419922,-8.244028091430664
1,286299,-2.3935625553131104,0.780565619468689,13.457928657531738,-10.32762336730957
1,286301,5.589886665344238,-16.87812614440918,27.299510955810547,-1.9818402528762817
1,286303,20.69928550720215,4.321025848388672,-36.47315216064453,-18.95270538330078
1,286411,-10.098456382751465,20.860248565673828,-12.355072021484375,7.483687877655029
1,286412,-3.4856765270233154,-6.881866455078125,29.290456771850586,24.140623092651367
1,286412,12.087201118469238,2.4767203330993652,3.3366024494171143,-12.501450538635254
1,286412,-10.415343284606934,-5.089053153991699,-6.327084064483643,-7.64915132522583
1,286412,-3.4889824390411377,-15.219853401184082,-3.189788579940796,20.176027297973633
1,286412,-2.9643101692199707,17.158187866210938,6.330986022949219,11.506497383117676
1,286412,-11.853608131408691,16.010711669921875,-2.571446657180786,-15.127421379089355
1,286413,-5.743223667144775,-23.705228805541992,-3.5116333961486816,-4.627690315246582
1,286413,-5.1396260261535645,-21.699058532714844,5.992987632751465,14.057223320007324
1,286413,9.680154800415039,12.876227378845215,-12.915813446044922,-3.784217596054077
1,286413,23.715087890625,-1.8608121871948242,1.1575920581817627,-8.135645866394043
1,286413,0.25597846508026123,-14.133984565734863,8.97316837310791,5.1125969886779785
1,286413,-27.429428100585938,16.883625030517578,-10.324369430541992,10.279144287109375
1,286414,-6.7953267097473145,0.008047466166317463,4.8535284996032715,-8.98475456237793
1,286414,19.45379638671875,-15.728245735168457,2.167426347732544,-4.944421291351318
1,286414,14.987123489379883,32.83871841430664,-2.6260721683502197,4.014144420623779
1,286414,-0.3718285858631134,11.985790252685547,5.793309211730957,-7.13320255279541
1,286414,3.380112886428833,-21.352027893066406,-7.38653039932251,-8.75711441040039
1,286415,0.5473690629005432,13.547845840454102,2.406960964202881,-10.787957191467285
1,286415,-16.91111183166504,2.885986566543579,-11.328062057495117,3.0631799697875977
1,286415,-0.5035203099250793,-26.930734634399414,-10.93767261505127,6.00965690612793
1,286415,9.520354270935059,-1.1372994184494019,24.409069061279297,18.48017120361328
1,286415,-6.474146366119385,15.983847618103027,10.01811695098877,19.711776733398438
1,286415,-10.527212142944336,1.5598347187042236,-8.37204647064209,-35.43227767944336
1,286416,-1.6719101667404175,-6.831971168518066,-15.788908958435059,-11.733410835266113
1,286416,5.8129448890686035,-8.997032165527344,-5.62918758392334,20.111526489257812
1,286416,13.756094932556152,2.9809908866882324,24.33432960510254,-17.012027740478516
1,286416,-2.1134696006774902,13.653070449829102,10.639537811279297,0.6751343607902527
1,286416,-10.174714088439941,15.199080467224121,-14.20389175415039,12.998147010803223
1,286416,15.255346298217773,-3.814241647720337,-9.172303199768066,-8.867859840393066
1,286417,-5.340358734130859,-19.595762252807617,-3.0985028743743896,6.446690559387207
1,286417,-21.93968963623047,14.702882766723633,25.651798248291016,25.26544189453125
1,286417,14.343852043151855,15.81863021850586,21.82842254638672,-17.905677795410156
1,286417,14.657737731933594,-27.873001098632812,-44.679012298583984,-27.084367752075195
1,286417,-18.1929931640625,-9.579392433166504,-7.756678104400635,20.514127731323242
1,286417,-6.558175086975098,7.899835586547852,38.00872039794922,18.333681106567383
1,286418,25.088851928710938,-1.3767712116241455,-10.374714851379395,3.833923101425171
1,286418,5.300121307373047,-0.31461095809936523,-19.341032028198242,3.4851834774017334
1,286418,-16.05052375793457,16.658021926879883,-6.042505264282227,-11.594025611877441
1,286418,-7.238161563873291,3.3030693531036377,4.123417377471924,-14.345701217651367
1,286418,5.576523303985596,-37.772010803222656,12.140238761901855,-9.131155967712402
1,286418,4.37702751159668,-9.200722694396973,-2.8056657314300537,2.344686508178711
1,286419,-11.313976287841797,21.09220314025879,-10.362143516540527,25.467592239379883
1,286419,4.120017051696777,25.899389266967773,2.690007209777832,-10.189149856567383
1,286419,13.654143333435059,-5.018174648284912,-7.8264384269714355,-24.223648071289062
1,286419,1.9753625392913818,-14.643585205078125,-4.0812668800354,24.26664161682129
1,286419,-20.855682373046875,13.656827926635742,30.427030563354492,9.99331283569336
1,286419,-24.78118896484375,-2.8563687801361084,10.85657787322998,-11.98365306854248
1,286420,18.789304733276367,0.5929280519485474,-22.678852081298828,-1.0714116096496582
1,286420,18.747798919677734,-2.070887804031372,-5.245995044708252,6.6347270011901855
1,286420,-10.51270580291748,-6.881129264831543,14.111016273498535,6.323836326599121
1,286420,8.604768753051758,17.99755859375,1.6968637704849243,-13.59961223602295
1,286420,12.236787796020508,-2.1506545543670654,-16.523908615112305,-8.243953704833984
1,286421,-19.002796173095703,-15.226180076599121,-8.860250473022461,22.316787719726562
1,286422,2.1206209659576416,-8.190619468688965,5.8216657638549805,10.8910493850708
1,286422,12.968266487121582,-10.520280838012695,10.633304595947266,-22.974964141845703
1,286422,-17.198469161987305,1.8299968242645264,2.555943727493286,4.183125972747803
1,286422,1.427525520324707,11.453086853027344,-22.26540184020996,9.396859169006348
1,286423,10.008685111999512,-1.5016878843307495,6.936470031738281,-14.33120059967041
1,286424,-7.934981822967529,-12.690901756286621,27.35211753845215,7.689239978790283
1,286425,0.42648014426231384,14.812350273132324,-13.726736068725586,-5.707666397094727
1,286426,-7.784218788146973,0.5742529630661011,-14.254449844360352,-27.415191650390625
1,286429,-2.084794282913208,-8.173203468322754,18.174457550048828,12.035844802856445
1,286430,22.521169662475586,39.74777603149414,17.927898406982422,26.24552345275879
1,286433,3.0824379920959473,-18.03972625732422,-20.693262100219727,-21.234458923339844
1,286434,-9.67325496673584,-19.643009185791016,-16.921255111694336,-10.882473945617676
1,286437,-15.43232536315918,31.948579788208008,24.388338088989258,25.131122589111328
1,286438,1.8640323877334595,-23.2835750579834,3.075570821762085,-20.470823287963867
1,286441,27.187795639038086,-6.93625545501709,-17.675472259521484,14.158644676208496
1,286443,-12.857008934020996,15.665828704833984,7.886149883270264,37.05602264404297
1,286445,-9.914082527160645,-17.265247344970703,-1.3750923871994019,-45.02634811401367
1,286447,6.814906597137451,-7.552429676055908,-6.988381862640381,-15.223226547241211
1,286449,-8.287341117858887,13.09555435180664,2.889537811279297,11.804045677185059
1,286451,7.592738151550293,11.29419231414795,4.35775899887085,13.207963943481445
1,286453,-3.6020684242248535,-3.7664408683776855,3.290151596069336,27.323528289794922
1,286455,-0.6902851462364197,-5.426318645477295,-9.856966972351074,-31.721858978271484
1,286457,4.168666362762451,3.756228446960449,2.0549864768981934,-22.557056427001953
1,286459,-7.6691718101501465,-9.56660270690918,-4.048283576965332,27.683923721313477
1,286461,5.106476783752441,21.75849151611328,-11.126840591430664,2.8419559001922607
1,286463,-6.600135803222656,21.050630569458008,17.944841384887695,4.931036472320557
1,286582,8.069901466369629,-32.92081069946289,14.526354789733887,18.56203269958496
1,286582,3.3650283813476562,-8.295256614685059,-3.3187105655670166,-33.8311653137207
1,286582,-18.712060928344727,1.7726632356643677,-20.333595275878906,-24.068082809448242
1,286582,2.60083270072937,-3.1710290908813477,-17.032527923583984,28.791301727294922
1,286582,5.524838924407959,9.691596984863281,34.60917663574219,15.941961288452148
1,286583,13.131441116333008,9.25821590423584,17.30168342590332,-18.114898681640625
1,286583,2.9840970039367676,6.049428939819336,-27.401838302612305,-18.42131996154785
1,286583,-15.134756088256836,-29.86834716796875,-8.765460014343262,29.267902374267578
1,286583,0.7116401195526123,-15.26997184753418,6.217996597290039,11.170943260192871
1,286583,11.842965126037598,15.665038108825684,0.23150800168514252,-29.981821060180664
1,286583,8.462841987609863,-0.07201331853866577,-15.858512878417969,0.758782148361206
1,286584,-5.060769557952881,7.134792804718018,0.47601330280303955,19.171768188476562
1,286584,-7.654208660125732,9.737434387207031,21.368410110473633,4.5064616203308105
1,286584,-10.546950340270996,-9.006240844726562,-11.220450401306152,-5.227685928344727
1,286584,-6.861340522766113,-17.061893463134766,-4.508571624755859,-8.445297241210938
1,286584,11.70389461517334,-0.6004488468170166,19.27749252319336,-19.191478729248047
1,286584,4.02324914932251,11.460651397705078,-21.051136016845703,-0.8859792947769165
1,286585,0.7535037994384766,8.888517379760742,0.5836091637611389,14.770339012145996
1,286585,1.2240351438522339,-1.6492971181869507,20.965105056762695,1.363592267036438
1,286585,0.6408254504203796,-2.6130995750427246,-7.985572814941406,0.09052317589521408
1,286585,8.053845405578613,9.072250366210938,4.910530090332031,7.86249303817749
1,286585,2.1880064010620117,4.717198371887207,6.562036037445068,13.046651840209961
1,286586,-3.495267152786255,-12.878772735595703,-11.656285285949707,-0.0464702732861042
1,286586,-4.169832706451416,0.7294234037399292,-3.917182683944702,-10.36099910736084
1,286586,8.214742660522461,25.73735237121582,10.875267028808594,-5.5852460861206055
1,286586,-9.734712600708008,-3.527479648590088,-2.422341823577881,-8.967116355895996
1,286586,-20.633527755737305,-26.87018585205078,-7.5219244956970215,-11.248624801635742
1,286586,7.481304168701172,8.88175106048584,-7.745033264160156,-1.4031683206558228
1,286587,-5.0116801261901855,16.7033748626709,14.610806465148926,4.715400218963623
1,286587,-2.656712770462036,-15.464011192321777,7.149728775024414,8.912458419799805
1,286587,5.426356792449951,-3.927818536758423,-11.349775314331055,6.6745123863220215
1,286587,-2.7432475090026855,12.737845420837402,-0.1714327037334442,6.702095031738281
1,286587,2.7235445976257324,-11.172103881835938,-8.628963470458984,-5.324109077453613
1,286587,8.4418306350708,-3.910477876663208,3.319800615310669,-7.519702434539795
1,286588,16.550294876098633,6.854263782501221,3.886470317840576,18.2251033782959
1,286588,-8.47838020324707,-6.436511516571045,-4.252621650695801,11.548377990722656
1,286588,0.7352204322814941,25.297208786010742,4.185177326202393,-9.526641845703125
1,286588,22.27639389038086,8.381197929382324,9.214034080505371,-20.615615844726562
1,286588,-10.528571128845215,-33.41154861450195,6.616049766540527,17.388452529907227
1,286588,-15.179422378540039,3.1402225494384766,-3.417685031890869,12.36713981628418
1,286589,-1.531296968460083,13.667308807373047,-1.2847689390182495,-27.128826141357422
1,286589,5.986837387084961,-19.00941276550293,-7.373290538787842,-3.0772829055786133
1,286589,-6.7870707511901855,-16.098596572875977,3.7412307262420654,8.608047485351562
1,286589,-6.719099998474121,34.551551818847656,20.617820739746094,4.397046089172363
1,286589,17.56995964050293,33.9739875793457,-28.75128746032715,-10.819326400756836
1,286590,-10.41176986694336,-33.787132263183594,-12.453073501586914,-2.3083932399749756
1,286590,-13.62596607208252,-17.782751083374023,30.288846969604492,5.191938400268555
1,286590,15.111687660217285,14.897394180297852,-4.2734761238098145,-14.364500999450684
1,286590,0.9766650199890137,-10.043980598449707,-19.84225082397461,-2.1462724208831787
1,286590,-6.574733734130859,-9.270207405090332,-1.672277569770813,12.566563606262207
1,286590,3.7436532974243164,12.912306785583496,14.89881420135498,-2.796015501022339
1,286590,-5.7279582023620605,34.70935821533203,-2.862656593322754,0.6606455445289612
1,286591,-11.533634185791016,-14.550076484680176,-5.907344818115234,18.21882438659668
1,286591,-2.9142343997955322,-32.84440612792969,9.431084632873535,-3.9286820888519287
1,286591,13.236603736877441,22.127492904663086,5.421153545379639,-7.584381103515625
1,286591,20.408828735351562,1.7779396772384644,0.04284881427884102,12.052628517150879
1,286591,-10.743983268737793,-22.618038177490234,-14.812362670898438,12.75528621673584
1,286591,-9.611442565917969,-4.874509811401367,0.1972004771232605,-13.365917205810547
