Aktueller Finger,timestamp_ms,sensor_0,sensor_1,sensor_2,sensor_3
0,2224732,3.0453693866729736,44.091617584228516,11.903369903564453,12.601472854614258
0,2224732,14.594590187072754,-6.194046974182129,11.929640769958496,-17.90627670288086
0,2224733,31.957820892333984,-31.102767944335938,15.958854675292969,-33.05538558959961
0,2224735,-0.7667461037635803,8.02883529663086,-18.62638282775879,22.33521842956543
0,2224737,-11.244962692260742,17.169904708862305,17.024417877197266,-45.110721588134766
0,2224739,-2.556201219558716,-2.333402156829834,13.894628524780273,-30.627216339111328
0,2224741,-11.416231155395508,-15.648929595947266,-46.66034698486328,112.79654693603516
0,2224743,-2.0997607707977295,-3.4437122344970703,-2.2717812061309814,24.91437339782715
0,2224745,-8.403007507324219,-12.145495414733887,15.961358070373535,-74.40392303466797
0,2224747,-14.605985641479492,1.1080893278121948,5.379909515380859,21.4553279876709
0,2224749,15.021893501281738,35.215389251708984,19.796876907348633,53.74428176879883
0,2224751,24.733642578125,7.79822301864624,8.646417617797852,-21.117277145385742
0,2224753,-10.0490083694458,-34.646522521972656,-31.029380798339844,-41.95834732055664
0,2224755,-18.679500579833984,-0.6663718819618225,-13.33505630493164,-61.336814880371094
0,2225010,29.394805908203125,18.896656036376953,38.801841735839844,24.96865463256836
0,2225011,24.365219116210938,-29.77492332458496,2.5805580615997314,81.43856048583984
0,2225012,-37.16375732421875,9.49073314666748,-47.30955505371094,-32.74006652832031
0,2225015,-25.424219131469727,45.68035888671875,-5.890369415283203,-23.558259963989258
0,2225016,13.930654525756836,-17.49274253845215,11.334003448486328,19.011882781982422
0,2225019,-2.9483227729797363,-17.381200790405273,-14.775907516479492,17.808551788330078
0,2225020,-25.16612434387207,28.500591278076172,8.605117797851562,15.978056907653809
0,2226834,14.801712036132812,-11.121118545532227,2.8301405906677246,-53.736324310302734
0,2226837,41.923744201660156,-53.083984375,15.936330795288086,-25.49045181274414
0,2226838,6.208907127380371,-9.460824966430664,26.652751922607422,63.21806335449219
0,2226841,-14.000207901000977,43.99150848388672,-9.6868896484375,10.171590805053711
0,2226842,-22.090879440307617,8.110251426696777,-9.135274887084961,-0.26928526163101196
0,2226845,14.996193885803223,-7.501766204833984,-9.053848266601562,-14.910798072814941
0,2226846,0.48486074805259705,21.348979949951172,-18.19663429260254,-52.834434509277344
0,2226849,-71.12613677978516,-13.16362190246582,-12.52289867401123,20.76127052307129
0,2226850,18.746187210083008,-13.801352500915527,22.97684097290039,-84.22418212890625
0,2226853,73.97555541992188,17.910858154296875,11.806135177612305,8.600279808044434
0,2226854,-23.633384704589844,-30.538963317871094,-10.359167098999023,189.91197204589844
0,2226857,-8.142679214477539,-5.4223551750183105,19.9721736907959,-70.3330078125
0,2226858,25.760086059570312,52.09004592895508,22.36025619506836,-57.04926681518555
0,2226861,-22.225008010864258,-35.30720901489258,-2.2731168270111084,78.07604217529297
0,2226862,-2.9024407863616943,-5.880068302154541,-24.319225311279297,-32.094566345214844
0,2226865,11.232892990112305,32.947120666503906,-2.7246830463409424,-13.152777671813965
0,2226866,-20.946575164794922,-21.286653518676758,4.156099796295166,17.64053726196289
0,2226869,-3.1231727600097656,25.15907096862793,-27.496374130249023,-24.849767684936523
0,2226870,16.349153518676758,6.168030261993408,-3.4206693172454834,20.71115493774414
0,2226873,-0.8566200733184814,-50.60270690917969,29.329158782958984,22.591588973999023
0,2226874,10.537715911865234,25.470067977905273,5.708454132080078,-55.24238586425781
0,2226877,-7.877452373504639,13.297563552856445,-18.056976318359375,6.2310261726379395
0,2226878,-17.139881134033203,-48.737709045410156,14.54800796508789,16.952295303344727
0,2226881,22.462156295776367,5.7290754318237305,6.831018924713135,-17.306198120117188
0,2226882,16.63617706298828,43.95637893676758,-2.534377098083496,16.160364151000977
0,2226885,-24.12224006652832,-2.910498857498169,1.5168726444244385,-9.390710830688477
0,2226886,-23.984825134277344,-29.416336059570312,-36.17293930053711,-4.437422752380371
0,2226889,31.237749099731445,44.735958099365234,-8.407031059265137,0.7138566970825195
0,2226891,25.106643676757812,4.635934352874756,31.394350051879883,-7.987823486328125
0,2226894,-21.50546646118164,-54.90602111816406,17.834659576416016,38.718017578125
0,2226895,-16.595735549926758,8.430304527282715,-23.357852935791016,-10.065199851989746
0,2226896,10.079225540161133,29.98246192932129,-1.241921067237854,-29.495800018310547
0,2226899,-8.941889762878418,-14.721067428588867,12.674503326416016,27.913576126098633
0,2226900,-24.49543571472168,-39.995574951171875,-38.42344284057617,-26.783390045166016
0,2226903,23.135892868041992,18.818138122558594,24.52001190185547,-17.193937301635742
0,2226904,25.98058319091797,42.041893005371094,53.949588775634766,40.6451301574707
0,2226907,-39.659305572509766,-11.558531761169434,-42.717533111572266,10.534765243530273
0,2226908,-20.17869758605957,-21.984914779663086,-32.224910736083984,-8.42703914642334
0,2226911,43.46119689941406,22.14769172668457,46.416316986083984,-6.783977508544922
0,2226912,17.884506225585938,2.369197368621826,6.512155055999756,6.682018280029297
0,2226915,-15.854362487792969,-28.82477569580078,-42.20479965209961,-20.33513641357422
0,2226916,-12.226766586303711,12.769415855407715,3.372523307800293,-8.590442657470703
0,2226919,0.5080502033233643,-5.216615200042725,3.759770154953003,58.410743713378906
0,2226920,-2.5787346363067627,-18.29883575439453,2.637129068374634,-19.229259490966797
0,2226923,8.227083206176758,27.99342155456543,21.877756118774414,-55.48564529418945
0,2226924,12.515612602233887,22.773487091064453,3.7194409370422363,36.605045318603516
0,2226927,-28.270309448242188,-15.651704788208008,-12.379002571105957,16.045522689819336
0,2226928,-0.016987523064017296,-20.92282485961914,-27.094823837280273,-10.727533340454102
0,2226931,38.00675964355469,8.496371269226074,9.653021812438965,3.413421392440796
0,2226932,-24.63409423828125,6.801723480224609,25.395160675048828,-8.073470115661621
0,2226935,-19.3200626373291,-14.779821395874023,-15.320401191711426,-6.3949294090271
0,2226936,19.333982467651367,-10.701370239257812,-18.282533645629883,-0.6623727679252625
0,2226939,3.5202548503875732,2.883983612060547,11.186726570129395,3.3347127437591553
0,2226940,1.4758282899856567,13.6094970703125,26.373035430908203,-20.357046127319336
0,2226943,-3.7846741676330566,16.14291000366211,-26.489604949951172,-14.163180351257324
0,2226944,-3.042917013168335,6.8503499031066895,-23.632986068725586,28.930301666259766
0,2226947,-1.813611388206482,-11.591573715209961,31.709423065185547,21.343040466308594
0,2226948,3.3657186031341553,-34.0246467590332,0.2848395109176636,-19.691017150878906
0,2226951,3.0281155109405518,-18.112255096435547,-9.819323539733887,10.144573211669922
0,2226952,0.11028987169265747,43.39996337890625,5.187985897064209,28.19121742248535
0,2226955,-5.511987686157227,63.5538330078125,11.13271427154541,-4.831390380859375
0,2226957,4.312530994415283,-13.70573616027832,7.182984352111816,-26.31795883178711
0,2226959,7.298629283905029,-54.79668426513672,6.886211395263672,-18.14705467224121
0,2226961,-18.83534049987793,-19.682376861572266,7.6538166999816895,-3.6695945262908936
0,2226963,2.3851613998413086,4.188288688659668,-24.81825828552246,20.152324676513672
0,2226965,21.193126678466797,20.960460662841797,-11.874543190002441,43.26585388183594
0,2226968,-4.73604679107666,11.934915542602539,-3.708362340927124,-49.40216064453125
0,2226969,1.096660852432251,16.326601028442383,0.29680511355400085,-41.8847541809082
0,2226970,-7.037559986114502,-16.991846084594727,7.848763942718506,50.87163162231445
0,2226973,-14.808597564697266,-47.09083557128906,-20.235149383544922,-9.958879470825195
0,2226974,-1.2362849712371826,15.322907447814941,4.481716632843018,-2.590090274810791
0,2226977,-0.40994998812675476,26.904315948486328,20.319114685058594,24.554208755493164
0,2226978,29.511749267578125,-11.42481803894043,8.51766586303711,-29.15526008605957
0,2226981,19.901025772094727,-7.812742710113525,12.31692123413086,11.41390609741211
0,2226982,-34.63093185424805,-2.76655912399292,-9.716423034667969,33.26285934448242
0,2226985,-17.841218948364258,15.402510643005371,-6.374034404754639,-11.3843412399292
0,2226986,26.81790542602539,18.44503402709961,9.88654613494873,-22.975770950317383
0,2226989,-7.179571151733398,-11.738382339477539,-9.690635681152344,0.5179774761199951
0,2226990,-19.253131866455078,-1.6176104545593262,5.965470790863037,12.472640991210938
0,2226993,11.154848098754883,9.272612571716309,-5.731922149658203,9.322879791259766
0,2226994,9.383110046386719,-10.11120891571045,-27.951623916625977,-11.850174903869629
0,2226997,-7.852089881896973,-16.872739791870117,18.484037399291992,-22.27260971069336
0,2226998,-4.0662126541137695,21.343339920043945,7.6656718254089355,12.562841415405273
0,2227001,29.204858779907227,14.339783668518066,2.63393235206604,1.83063542842865
0,2227002,4.194462776184082,-27.286972045898438,-7.810417175292969,-7.363262176513672
0,2227005,-27.491304397583008,-2.6250829696655273,-37.368892669677734,17.97957420349121
0,2227006,-0.23989149928092957,15.439577102661133,32.1258659362793,-3.0617802143096924
0,2227009,-7.127627849578857,5.449620723724365,24.271486282348633,-23.92261505126953
0,2227010,6.41830587387085,-12.431477546691895,-16.927431106567383,16.27960777282715
0,2227013,29.95513153076172,-6.796844959259033,24.0567569732666,11.503918647766113
0,2227014,-17.06443214416504,10.75694751739502,-19.80556869506836,-9.066344261169434
0,2227017,-12.121223449707031,-12.15360164642334,-22.4958438873291,1.9815764427185059
0,2227018,9.241795539855957,-2.6330974102020264,39.379058837890625,-16.24191665649414
0,2227021,-18.12484359741211,12.803260803222656,-13.867287635803223,6.38970947265625
0,2227022,-3.7770302295684814,-15.673918724060059,-26.18903923034668,13.620794296264648
0,2227025,-17.32374382019043,14.909116744995117,19.208541870117188,10.778914451599121
0,2227026,10.171483039855957,29.832271575927734,11.237471580505371,-8.534379959106445
0,2227029,46.95726013183594,-37.544189453125,-5.148306369781494,-2.8665459156036377
0,2227030,-19.1061954498291,-5.303339004516602,-12.8350830078125,36.02705764770508
0,2227033,-16.915699005126953,21.04851722717285,-5.562930583953857,-67.25238800048828
0,2227034,4.280311584472656,-21.406526565551758,8.649192810058594,-20.909420013427734
0,2227037,7.852212905883789,25.818592071533203,-1.5387120246887207,83.43074035644531
0,2227038,15.214548110961914,-3.27868914604187,-7.438024520874023,-16.01131820678711
0,2227041,1.2259981632232666,-25.78127670288086,13.567683219909668,-13.294914245605469
0,2227042,-17.558982849121094,25.971403121948242,14.302127838134766,15.280773162841797
0,2227045,-20.746150970458984,-23.216957092285156,-5.99710750579834,-19.766828536987305
0,2227046,27.64296531677246,-20.424354553222656,-20.096084594726562,-26.801162719726562
0,2227049,3.0158939361572266,40.61305618286133,6.366337776184082,-9.75776481628418
0,2227051,-35.4874267578125,1.4052459001541138,22.963104248046875,33.6020622253418
0,2227053,23.473684310913086,-18.738143920898438,-15.198431015014648,9.764509201049805
0,2227055,26.76373291015625,29.18387222290039,-10.470340728759766,-22.6309814453125
0,2227058,-16.058021545410156,-0.7513827681541443,9.655014991760254,6.8386006355285645
0,2227059,-14.747776985168457,-13.963679313659668,-5.226212024688721,1.5087655782699585
0,2227061,-4.450039863586426,-14.771808624267578,-12.626822471618652,-3.813718557357788
0,2227063,10.054790496826172,-18.323755264282227,1.5296173095703125,11.55223560333252
0,2227065,8.86709213256836,40.80863952636719,15.669764518737793,-27.23763084411621
0,2227067,4.361855983734131,-4.221656799316406,-14.228124618530273,-2.8101422786712646
0,2227069,6.474170684814453,-8.350554466247559,9.459467887878418,53.93978500366211
0,2227071,0.9723395109176636,43.48657989501953,30.89455795288086,-1.5286515951156616
0,2227073,-15.193219184875488,-51.10091018676758,-33.91847610473633,-35.229461669921875
0,2227075,-32.40028381347656,-51.673545837402344,-31.192596435546875,8.958367347717285
0,2227077,9.189215660095215,71.33393859863281,31.691370010375977,15.583392143249512
0,2227079,38.691688537597656,26.64910125732422,24.750900268554688,-36.939735412597656
0,2227081,-13.887677192687988,-68.52676391601562,-27.52271842956543,-0.1647116094827652
0,2227083,-23.589149475097656,-3.7451417446136475,-13.468491554260254,29.489681243896484
0,2227085,15.945566177368164,41.99977493286133,29.236629486083984,-7.887901782989502
0,2227087,4.2115583419799805,25.40703773498535,15.317670822143555,40.4007453918457
0,2227089,-0.07324619591236115,-2.847295045852661,-10.569994926452637,-17.319072723388672
0,2227091,-12.256561279296875,-47.532066345214844,-8.081934928894043,-63.7167854309082
0,2227093,-7.204675197601318,-8.331698417663574,6.074383735656738,36.26982116699219
0,2227095,34.746337890625,30.644859313964844,-8.403485298156738,14.456062316894531
0,2227097,-11.320237159729004,-6.927958965301514,-10.473648071289062,-15.547343254089355
0,2227099,-29.32794189453125,-21.66073226928711,24.276121139526367,28.91779327392578
0,2227101,16.220041275024414,20.78397560119629,-4.816809177398682,-2.705087184906006
0,2227103,10.451175689697266,28.382354736328125,-23.56270980834961,-29.60441017150879
0,2227105,-7.162489414215088,-32.197715759277344,-1.6515713930130005,-23.712339401245117
0,2227107,7.259816646575928,-21.706544876098633,17.05279541015625,15.993959426879883
0,2227109,8.684420585632324,23.587657928466797,-2.1644985675811768,56.559391021728516
0,2227111,-8.998597145080566,-2.0689990520477295,-27.501182556152344,-15.464499473571777
0,2227113,-14.657493591308594,-0.4836178123950958,20.992403030395508,-48.84503936767578
0,2227115,-6.092219352722168,16.153654098510742,10.258723258972168,20.959232330322266
0,2227117,18.884328842163086,1.5921353101730347,0.08353237062692642,9.190056800842285
0,2227119,5.92072057723999,10.474069595336914,29.421627044677734,-45.818458557128906
0,2227121,-19.080623626708984,5.3774847984313965,4.538259029388428,16.505403518676758
0,2227123,-0.7924515008926392,-45.51831817626953,-14.869298934936523,49.577049255371094
0,2227125,22.96212387084961,-4.586381912231445,-62.67082214355469,-5.930840015411377
0,2227127,9.394625663757324,48.253047943115234,-35.78290557861328,-4.626770973205566
0,2227129,-26.053253173828125,-26.551050186157227,43.35751724243164,14.594473838806152
0,2227131,-19.873886108398438,-30.36930274963379,-11.771964073181152,-10.153495788574219
0,2227133,26.742794036865234,33.990989685058594,54.37096405029297,-52.72917938232422
0,2227135,31.484092712402344,27.011993408203125,89.46971893310547,1.1812007427215576
0,2227137,-23.283981323242188,-17.523855209350586,-79.39098358154297,47.603187561035156
0,2227139,-22.601449966430664,-19.300785064697266,-55.77699279785156,39.65420150756836
0,2227141,12.807705879211426,7.257330417633057,-26.560110092163086,24.03009605407715
0,2227143,16.07628059387207,-40.15730285644531,15.054062843322754,-88.03373718261719
0,2227145,-11.379724502563477,4.174914836883545,100.82036590576172,-171.00765991210938
0,2227147,-27.030460357666016,77.51702880859375,-15.514697074890137,-3.497307538986206
0,2227149,27.884309768676758,-11.924808502197266,-23.29762840270996,274.416748046875
0,2227151,-7.454044818878174,-32.212181091308594,-13.0154447555542,60.122352600097656
0,2227153,-24.855224609375,-15.173163414001465,-61.949424743652344,-184.68057250976562
0,2227155,27.42491340637207,-14.546342849731445,14.799731254577637,69.3619384765625
0,2227158,21.45130157470703,26.827960968017578,66.81130981445312,67.83027648925781
0,2227159,11.319698333740234,8.46558666229248,41.49951171875,-54.90195083618164
0,2227162,-33.71748352050781,30.571754455566406,-28.54550552368164,60.76218795776367
0,2227164,-17.222911834716797,15.685083389282227,-38.390769958496094,-93.89606475830078
0,2227165,3.6108362674713135,-48.70578384399414,15.076602935791016,-271.31182861328125
0,2227166,-1.5922069549560547,5.674285888671875,21.684865951538086,-89.39908599853516
0,2227169,35.19089889526367,22.38222885131836,1.9237911701202393,241.1112060546875
0,2227170,-3.2040393352508545,-16.21209716796875,-41.0181884765625,314.5172424316406
0,2227173,-17.29461669921875,-28.625957489013672,-57.97901916503906,-31.047285079956055
0,2227174,4.699524402618408,-56.06752014160156,-9.933021545410156,-209.8302001953125
0,2227177,-7.608422756195068,17.628873825073242,58.51371383666992,-18.321645736694336
0,2227178,2.625302791595459,78.51341247558594,39.059471130371094,96.28521728515625
0,2227181,-3.426656484603882,0.23671425879001617,-19.34208869934082,-14.695548057556152
0,2227182,5.857432842254639,-37.22771453857422,-15.640645027160645,-23.07101821899414
0,2227185,1.4658013582229614,-12.697260856628418,-5.5189127922058105,55.518165588378906
0,2227186,-7.5246148109436035,26.041654586791992,15.125868797302246,23.457805633544922
0,2227189,1.1844502687454224,16.593069076538086,3.8162927627563477,-38.584495544433594
0,2227190,-5.188669681549072,-20.752174377441406,-8.61158275604248,-67.055419921875
0,2227193,32.85175323486328,35.57685470581055,38.60450744628906,-82.825927734375
0,2227194,-5.118454456329346,33.12777328491211,10.944608688354492,-22.354684829711914
0,2227197,-60.67845916748047,-62.03947448730469,-62.17390823364258,82.97335815429688
0,2227198,14.695390701293945,-38.873252868652344,-33.54037857055664,31.899396896362305
0,2227201,49.92626953125,21.31899070739746,27.7790470123291,-35.547454833984375
0,2227202,2.2040812969207764,31.064180374145508,20.409467697143555,31.072906494140625
0,2227205,-35.18194580078125,-7.822885990142822,0.29736900329589844,111.0284423828125
0,2227206,-8.370534896850586,-52.23928451538086,14.744560241699219,31.000110626220703
0,2227209,31.24758529663086,12.894892692565918,4.140841007232666,-137.7473602294922
0,2227210,-7.105539321899414,37.722389221191406,-6.6914567947387695,-82.76223754882812
0,2227213,-26.089197158813477,-19.370763778686523,-0.9458746314048767,100.79367065429688
0,2227214,15.976241111755371,20.946378707885742,-6.50839900970459,-8.231792449951172
0,2227217,19.910137176513672,12.24797248840332,0.8447392582893372,-51.3837890625
0,2227218,-8.254959106445312,-34.53440475463867,-3.779811382293701,100.82122802734375
0,2227221,-7.623577117919922,17.395397186279297,-13.222831726074219,-41.29023742675781
0,2227222,-2.5836868286132812,10.531944274902344,11.989505767822266,-86.37348937988281
0,2227225,2.6567800045013428,-7.58884334564209,2.3376543521881104,61.047584533691406
0,2227226,3.1221249103546143,1.0827122926712036,12.421882629394531,46.5168571472168
0,2227229,1.7679002285003662,-3.496671676635742,32.89602279663086,-15.77610969543457
0,2227230,6.5660881996154785,-20.732969284057617,-34.43412780761719,-24.592498779296875
0,2227233,-1.5593972206115723,-17.048320770263672,-69.78389739990234,-12.831586837768555
0,2227234,-4.7495574951171875,40.096588134765625,-5.412151336669922,-1.5061930418014526
0,2227237,-18.46315574645996,28.037508010864258,29.207439422607422,136.50625610351562
0,2227238,-0.7941408157348633,-20.27930450439453,29.555118560791016,108.46068572998047
0,2227241,33.062965393066406,-36.47402572631836,25.834348678588867,-280.94818115234375
0,2227242,1.3991036415100098,-25.80361557006836,1.3798664808273315,-219.68882751464844
0,2227245,-22.3059139251709,23.5135440826416,2.7877228260040283,201.7378387451172
0,2227246,-3.0650064945220947,34.83943176269531,-9.089712142944336,177.63723754882812
0,2227249,1.488632082939148,21.47718048095703,28.45132064819336,33.74569320678711
0,2227250,-8.700834274291992,-7.5634236335754395,11.185991287231445,-41.41571044921875
0,2227253,-1.3087143898010254,-9.429915428161621,-48.494773864746094,-194.76283264160156
0,2227254,4.93814754486084,7.37073278427124,-33.33077621459961,-112.8416976928711
0,2227257,12.98984432220459,-27.7554874420166,-29.749086380004883,178.68777465820312
0,2227258,19.834774017333984,-14.41836929321289,-8.977046012878418,153.98733520507812
0,2227261,-9.623160362243652,26.261306762695312,58.635746002197266,-66.64848327636719
0,2227262,5.376981258392334,42.89514923095703,48.601863861083984,-72.18170928955078
0,2227265,-14.933576583862305,-19.947887420654297,-45.899131774902344,8.301420211791992
0,2227266,-39.53160858154297,-70.05901336669922,-29.4713134765625,7.530886173248291
0,2227269,15.927206039428711,-18.478811264038086,16.654266357421875,64.91490173339844
0,2227271,14.735495567321777,35.68409729003906,30.117450714111328,29.00697135925293
0,2227273,-0.21753782033920288,55.3978157043457,19.39157485961914,-149.4734344482422
0,2227275,0.9875475168228149,-12.286657333374023,1.1954240798950195,-66.84430694580078
0,2227277,9.415952682495117,-33.936866760253906,22.857524871826172,64.14724731445312
0,2227279,-7.065564155578613,8.986380577087402,-11.834044456481934,48.363101959228516
0,2227281,-14.116192817687988,32.02254867553711,-56.72370529174805,31.57691192626953
0,2227283,9.053031921386719,4.699577808380127,-41.63373947143555,24.67860221862793
0,2227285,28.240949630737305,-49.839168548583984,-5.058943748474121,72.9974136352539
0,2227287,24.55132293701172,-18.602209091186523,10.086490631103516,16.453659057617188
0,2227289,-36.30451202392578,39.05534362792969,45.301124572753906,-137.65142822265625
0,2227291,-23.762088775634766,19.726360321044922,23.416288375854492,-44.420597076416016
0,2227293,24.682579040527344,-7.939252853393555,-14.013568878173828,-1.1006450653076172
0,2227295,-2.2993195056915283,12.794767379760742,23.034008026123047,-96.03802490234375
0,2227297,-25.788299560546875,-46.662696838378906,-2.8408467769622803,41.89841079711914
0,2227299,-4.321630954742432,-36.84627914428711,-22.33487319946289,132.0504913330078
0,2227301,7.7399516105651855,71.26374816894531,15.468050956726074,200.78890991210938
0,2227303,11.11364459991455,21.279428482055664,11.331280708312988,63.743927001953125
0,2227305,-0.324175626039505,-41.67133712768555,-30.561573028564453,-300.8086853027344
0,2227307,-20.51926040649414,-6.219381809234619,-39.173133850097656,-149.56211853027344
0,2227309,10.586296081542969,-7.4998579025268555,-17.091482162475586,12.904009819030762
0,2227311,22.219329833984375,6.170195579528809,32.464942932128906,-17.79681968688965
0,2227313,-9.491586685180664,11.105490684509277,25.467573165893555,213.7835693359375
0,2227315,13.086292266845703,-7.5300822257995605,-11.194260597229004,92.14408874511719
0,2227317,13.416728019714355,15.699742317199707,20.8499755859375,-126.18414306640625
0,2227319,-26.090097427368164,1.3732274770736694,28.06389045715332,-2.070070266723633
0,2227321,-14.687905311584473,-6.987790584564209,-9.86731243133545,-78.85321044921875
0,2227323,-10.613543510437012,20.42869758605957,-36.97952651977539,-22.08363151550293
0,2227325,9.331262588500977,6.32025146484375,-10.390371322631836,116.97550964355469
0,2227327,21.74118423461914,-14.307598114013672,9.189939498901367,-12.976818084716797
0,2227329,6.086342811584473,-7.128201961517334,-2.698868989944458,-13.052362442016602
0,2227331,4.031950950622559,-24.389320373535156,-14.6513090133667,-0.3824126124382019
0,2227333,-18.210372924804688,-16.089258193969727,10.590325355529785,15.737119674682617
0,2227335,6.952505588531494,38.49006271362305,63.425533294677734,65.66222381591797
0,2227337,15.98169994354248,16.127031326293945,-15.789422988891602,-29.29789161682129
0,2227339,-11.998007774353027,-15.595356941223145,-57.603912353515625,-103.2358169555664
0,2227341,-16.328798294067383,13.546974182128906,31.846492767333984,-36.04301834106445
0,2227343,-21.462257385253906,-12.385261535644531,21.568134307861328,39.34720230102539
0,2227345,14.338147163391113,-26.091341018676758,-26.69387435913086,31.498918533325195
0,2227347,21.300783157348633,8.71650505065918,-20.98969841003418,17.220922470092773
0,2227349,4.637362480163574,17.761768341064453,4.589645862579346,34.91914749145508
0,2227351,8.728656768798828,23.569725036621094,11.915689468383789,15.56727123260498
0,2227353,-29.270816802978516,4.5404486656188965,9.321144104003906,-44.41620635986328
0,2227355,-20.250696182250977,-18.969852447509766,-4.322808265686035,-8.127645492553711
0,2227357,40.228389739990234,-45.66154861450195,-24.490415573120117,48.8175163269043
0,2227359,-12.254561424255371,-31.364051818847656,-8.342188835144043,15.71081829071045
0,2227361,-25.182947158813477,45.70405197143555,22.670291900634766,-91.2964859008789
0,2227363,35.5804443359375,27.505538940429688,39.97530746459961,-129.70932006835938
0,2227365,1.703687071800232,-16.88982391357422,2.710299491882324,-10.701899528503418
0,2227367,-11.99505615234375,25.647336959838867,-14.976396560668945,197.38040161132812
0,2227369,17.664308547973633,3.9223039150238037,-6.4765825271606445,182.99595642089844
0,2227371,-5.740213394165039,-33.75243377685547,-10.709847450256348,-91.49838256835938
0,2227373,-30.990360260009766,13.362127304077148,3.6942479610443115,-207.89129638671875
0,2227375,17.195425033569336,16.43842124938965,-22.758930206298828,-150.64512634277344
0,2227377,29.582111358642578,-6.602240085601807,-13.614751815795898,227.95663452148438
0,2227379,-19.926137924194336,-19.38469123840332,12.431084632873535,354.96728515625
0,2227381,-9.570631980895996,-20.281810760498047,-8.409542083740234,-99.6476821899414
0,2227383,-7.651613712310791,-0.780483067035675,21.81488609313965,-258.6883544921875
0,2227386,16.64687728881836,29.79755210876465,32.93571853637695,-147.7668914794922
0,2227387,26.312646865844727,14.903327941894531,-13.080157279968262,-49.5586051940918
0,2227390,-50.55001449584961,-54.63627243041992,-32.49274826049805,131.135009765625
0,2227391,-12.449692726135254,-23.12769889831543,-1.7749106884002686,126.37062072753906
0,2227394,18.441083908081055,69.1617202758789,44.37858200073242,-76.67967224121094
0,2227395,-3.872908353805542,54.354068756103516,21.913578033447266,-37.30486297607422
0,2227398,14.41806697845459,-30.95177459716797,4.408031463623047,85.40654754638672
0,2227399,-24.36435317993164,-26.280136108398438,-17.25851058959961,50.33781051635742
0,2227400,20.437644958496094,-8.529510498046875,-73.79063415527344,-27.35036277770996
0,2227403,56.893211364746094,-0.39925113320350647,-13.150585174560547,-85.18051147460938
0,2227404,-26.32437515258789,42.264892578125,-5.439084053039551,-76.32657623291016
0,2227407,-20.33656883239746,-6.821296215057373,-52.638973236083984,41.137245178222656
0,2227408,8.861250877380371,-49.85792922973633,73.9499740600586,102.65785217285156
0,2227411,-11.980335235595703,23.804229736328125,108.07827758789062,-6.052921295166016
0,2227412,-2.4856433868408203,47.11883544921875,-40.77871322631836,94.04377746582031
0,2227415,5.456946849822998,-58.21660232543945,-22.956993103027344,-57.49546432495117
0,2227416,-15.103658676147461,-67.65105438232422,31.294513702392578,-96.56954956054688
0,2227419,4.007601261138916,36.61867141723633,-32.160465240478516,73.77020263671875
0,2227420,21.68160629272461,51.1303825378418,3.828756093978882,-168.06089782714844
0,2227423,-20.073598861694336,11.984601974487305,85.14852905273438,143.66488647460938
0,2227425,24.122283935546875,7.096888542175293,-1.9085134267807007,108.41049194335938
0,2227427,-9.72542953491211,-64.06340026855469,-86.95464324951172,-142.05746459960938
0,2227429,-81.39899444580078,-29.440610885620117,-29.3772029876709,139.1526641845703
0,2227431,48.540931701660156,89.11575317382812,-20.57856559753418,-45.44924545288086
0,2227433,57.118499755859375,-14.264881134033203,-1.8240575790405273,-150.1496124267578
0,2227435,-48.53780746459961,-39.03635025024414,7.377403736114502,-45.28218078613281
0,2227437,11.316828727722168,57.8273811340332,-4.868797779083252,0.8262991309165955
0,2227439,86.59092712402344,43.17349624633789,38.49045944213867,96.58292388916016
0,2227441,-45.11724090576172,-52.65068435668945,-0.7680605053901672,79.87860107421875
0,2227443,-97.47676849365234,-92.10595703125,-49.7689094543457,6.067218780517578
0,2227445,30.916601181030273,-14.139765739440918,21.33957862854004,30.34687614440918
0,2227447,45.47080993652344,55.21112823486328,52.01774597167969,46.788944244384766
0,2227449,-19.006746292114258,53.710147857666016,8.11745548248291,-35.61615753173828
0,2227451,-38.67356491088867,21.486574172973633,9.018446922302246,-128.8390350341797
0,2227453,17.593971252441406,-28.816936492919922,-5.850677013397217,-289.67236328125
0,2227455,26.255861282348633,-44.07308578491211,-39.84295654296875,-35.473087310791016
0,2227457,-9.251925468444824,6.412357330322266,-15.667389869689941,588.8372802734375
0,2227459,3.8713083267211914,24.456968307495117,-5.315633296966553,259.68597412109375
0,2227461,-10.507521629333496,-13.335128784179688,-3.213897943496704,-484.3759460449219
0,2227463,-3.191180944442749,-15.513592720031738,35.47296905517578,-273.21661376953125
0,2227465,28.341079711914062,40.783905029296875,1.9630824327468872,33.24870300292969
0,2227467,-16.557180404663086,-1.0569216012954712,-0.92445969581604,140.14625549316406
0,2227469,10.215231895446777,-35.404823303222656,16.586475372314453,259.3778381347656
0,2227471,44.108306884765625,10.413089752197266,-14.460132598876953,3.2457289695739746
0,2227473,-36.64127731323242,-15.364507675170898,-3.140763998031616,-121.75440216064453
0,2227475,-9.128403663635254,15.52568531036377,-1.7897794246673584,-40.96467971801758
0,2227477,8.555220603942871,38.748756408691406,13.83954906463623,-78.41372680664062
0,2227479,-35.7921257019043,-31.66387367248535,26.900115966796875,-27.162979125976562
0,2227481,5.332799911499023,12.104687690734863,-9.016754150390625,46.82202911376953
0,2227483,29.934051513671875,22.582006454467773,-22.236736297607422,16.352294921875
0,2227485,-7.729747295379639,-26.629209518432617,-9.264703750610352,-6.236169338226318
0,2227487,-19.216358184814453,-8.646197319030762,-14.959622383117676,63.57073974609375
0,2227489,29.525123596191406,-2.383275032043457,-51.247013092041016,141.38458251953125
0,2227491,22.676410675048828,-8.03669261932373,-45.73941421508789,-25.684450149536133
0,2227493,-28.758350372314453,-11.647943496704102,41.61587905883789,-215.29974365234375
0,2227495,-15.009023666381836,13.073136329650879,89.03797912597656,-64.12938690185547
0,2227497,15.801013946533203,30.312768936157227,55.56075668334961,171.6302947998047
0,2227499,-10.921146392822266,-9.545187950134277,-22.559608459472656,55.3377685546875
0,2227501,-39.20793914794922,-48.819644927978516,-35.81245422363281,-167.90025329589844
0,2227503,9.24195671081543,5.608886241912842,-1.0549952983856201,-86.37541961669922
0,2227505,43.12677001953125,47.2303352355957,7.44675874710083,97.47969818115234
0,2227507,-11.776732444763184,4.566803932189941,24.4616641998291,204.3577880859375
0,2227509,-2.3486340045928955,-6.012140274047852,-6.437511444091797,171.8576202392578
0,2227511,6.9846625328063965,-1.106987476348877,-29.66135025024414,-146.96890258789062
0,2227513,-22.97758674621582,-9.664599418640137,-16.946054458618164,-495.7335510253906
0,2227515,11.121886253356934,-24.244935989379883,-27.876596450805664,-107.50862121582031
0,2227517,4.479310035705566,-3.5909311771392822,-23.65569305419922,525.1202392578125
0,2227519,-21.321218490600586,44.5057373046875,-6.539391040802002,191.8495635986328
0,2227521,47.38865661621094,24.35187530517578,50.01409149169922,-118.94642639160156
0,2227523,16.235042572021484,-46.368003845214844,32.36480712890625,-27.258371353149414
0,2227525,-46.22111511230469,-62.05708312988281,-40.16001510620117,-202.88970947265625
0,2227527,7.837528228759766,-1.5785025358200073,16.065776824951172,-83.72767639160156
0,2227529,-18.75824737548828,74.59349822998047,35.72511291503906,131.24359130859375
0,2227531,10.653425216674805,74.9660873413086,26.33890724182129,163.87977600097656
0,2227533,11.72240924835205,-45.898765563964844,-14.593091011047363,-33.533103942871094
0,2227535,-37.96111297607422,-72.71551513671875,-58.21907043457031,-189.484130859375
0,2227537,27.911548614501953,23.747373580932617,9.546479225158691,16.385818481445312
0,2227539,23.871057510375977,28.48299217224121,5.0700836181640625,-14.163247108459473
0,2227542,-17.443721771240234,17.04438591003418,-16.324777603149414,-33.70400619506836
0,2227543,-2.335156202316284,-13.521758079528809,19.164011001586914,134.07920837402344
0,2227546,2.143986940383911,-40.827613830566406,-0.711348831653595,35.476253509521484
0,2227547,-61.69465255737305,-13.313775062561035,-18.935367584228516,-49.21023178100586
0,2227550,17.591928482055664,-12.190024375915527,-1.8567633628845215,15.03213119506836
0,2227551,94.63542175292969,53.195594787597656,31.821537017822266,73.69629669189453
0,2227554,-45.89344024658203,6.471020221710205,9.747014045715332,25.523496627807617
0,2227557,-4.112659454345703,-64.06139373779297,-26.09333610534668,-127.38684844970703
0,2227557,27.217485427856445,28.330495834350586,3.327941417694092,-32.59542465209961
0,2227558,-39.31575012207031,77.34037017822266,29.33086395263672,156.9195098876953
0,2227561,6.2552690505981445,-5.558565139770508,23.5582332611084,-181.6291961669922
0,2227562,4.821268081665039,-69.3917236328125,-39.62050247192383,-362.7169189453125
0,2227565,2.2941761016845703,43.162384033203125,-0.20803992450237274,230.5255584716797
0,2227566,4.626033782958984,16.29926872253418,-18.20465087890625,401.97723388671875
0,2227569,-9.455108642578125,-91.81852722167969,-100.99549865722656,101.25951385498047
0,2227570,14.155482292175293,18.521623611450195,21.14281463623047,-112.3895034790039
0,2227573,13.871822357177734,66.78341674804688,86.89990997314453,-259.42596435546875
0,2227574,-16.81151008605957,-10.895868301391602,31.475950241088867,-75.28209686279297
0,2227577,-18.565217971801758,-33.416080474853516,13.045708656311035,-328.4259948730469
0,2227578,20.022111892700195,7.913441181182861,-18.06549072265625,-283.69964599609375
0,2227581,2.661011219024658,-15.002128601074219,-140.13816833496094,1241.2515869140625
0,2227582,-32.03544235229492,-16.08179473876953,-84.1603012084961,976.7150268554688
0,2227585,33.01235580444336,65.04707336425781,165.17835998535156,-1064.947998046875
0,2227586,23.059249877929688,25.788963317871094,207.67674255371094,-767.3577270507812
0,2227589,-55.51401901245117,-36.043479919433594,-5.165933132171631,-38.224788665771484
0,2227590,-15.154245376586914,-41.98123550415039,-157.14231872558594,-16.09129524230957
0,2227593,27.110368728637695,-0.6177979707717896,-68.68264770507812,394.139404296875
0,2227594,-22.2412052154541,52.7824821472168,45.05821228027344,-190.2224578857422
0,2227597,-8.950263977050781,-3.316110134124756,72.12267303466797,-216.9945526123047
0,2227598,51.35829544067383,3.7943174839019775,39.87474822998047,713.2874145507812
0,2227601,-2.6338250637054443,-15.117828369140625,-58.273582458496094,670.6427612304688
0,2227602,-47.301734924316406,-115.74288177490234,-98.46969604492188,-190.4617156982422
0,2227605,20.54896354675293,-52.054779052734375,-19.29553985595703,-1158.405029296875
0,2227606,37.346012115478516,70.98213958740234,42.63475036621094,-826.3321533203125
0,2227609,-11.026498794555664,170.43603515625,70.47431182861328,737.2095336914062
0,2227610,-19.38394546508789,24.665393829345703,22.628273010253906,702.4566650390625
0,2227613,4.874530792236328,-131.56393432617188,-65.06373596191406,-4.379904747009277
0,2227614,9.395734786987305,8.73488712310791,-41.7764892578125,341.98394775390625
0,2227617,22.166913986206055,12.705222129821777,6.761943817138672,-96.56007385253906
0,2227618,3.866623640060425,-18.550601959228516,7.851159572601318,-392.64697265625
0,2227621,-39.80559158325195,53.65081024169922,31.596946716308594,-168.59315490722656
0,2227622,-7.235937118530273,-2.1166741847991943,22.9527645111084,-437.6431884765625
0,2227625,24.77066421508789,-19.91959571838379,-32.444908142089844,17.98567008972168
0,2227626,1.146578073501587,19.77349090576172,4.75060510635376,506.965087890625
0,2227629,-29.192201614379883,-31.838712692260742,11.674803733825684,561.4351196289062
0,2227630,7.788158416748047,-52.10836410522461,-19.983627319335938,95.39568328857422
0,2227633,15.541315078735352,-2.4086482524871826,9.927730560302734,-776.7640991210938
0,2227634,-39.73443603515625,6.382283687591553,2.724917411804199,-207.32049560546875
0,2227637,22.995803833007812,29.490663528442383,34.075721740722656,256.9171447753906
0,2227638,53.95774459838867,32.09259796142578,21.938142776489258,446.5847473144531
0,2227641,-31.773696899414062,-27.773839950561523,-99.39034271240234,493.2666015625
0,2227642,-27.3682918548584,19.072328567504883,-25.621740341186523,-540.5602416992188
0,2227645,28.452259063720703,42.27448272705078,81.49227142333984,-1182.16259765625
0,2227646,24.13014793395996,-6.038461208343506,-13.894906997680664,-459.2177429199219
0,2227649,-19.394487380981445,-19.124069213867188,-45.903350830078125,1295.20263671875
0,2227650,-25.80417823791504,-32.69567108154297,-2.4949870109558105,1124.5537109375
0,2227653,-9.961770057678223,-42.584930419921875,46.123653411865234,-423.0419006347656
0,2227654,-13.365334510803223,-42.96408462524414,19.148548126220703,-889.7169189453125
0,2227657,21.39575958251953,37.199520111083984,-36.136104583740234,-312.92254638671875
0,2227658,-5.825958251953125,67.3890380859375,43.060752868652344,604.3141479492188
0,2227661,-27.821500778198242,5.358242511749268,101.23709869384766,60.38678741455078
0,2227662,38.398128509521484,36.50730895996094,6.6558685302734375,-746.5482177734375
0,2227665,15.232492446899414,18.034807205200195,-147.50025939941406,17.08829689025879
0,2227666,-2.1211838722229004,-54.217918395996094,-73.82467651367188,564.6864013671875
0,2227669,12.171656608581543,-30.980310440063477,93.64715576171875,812.052490234375
0,2227670,0.4440615177154541,-45.8364372253418,38.11119079589844,118.44010925292969
0,2227673,26.634366989135742,-9.6078519821167,-61.36244201660156,-1233.287109375
0,2227675,-22.511367797851562,75.46510314941406,-50.05537414550781,-443.3417663574219
0,2227677,-55.74411392211914,6.729204177856445,15.505529403686523,546.56591796875
0,2227679,17.270179748535156,-2.9384467601776123,63.43120574951172,-45.0600471496582
0,2227681,30.834760665893555,35.9153938293457,29.70937156677246,229.7602081298828
0,2227683,-4.407373428344727,-15.318045616149902,0.2591218948364258,841.0518798828125
0,2227685,0.2781527042388916,-28.874418258666992,-19.625804901123047,-321.6214599609375
0,2227687,-12.240710258483887,-28.2332763671875,-31.7681941986084,-774.7034912109375
0,2227689,-39.571136474609375,-8.385307312011719,14.433073043823242,297.4988708496094
0,2227691,-0.07006384432315826,35.994144439697266,5.686701774597168,438.17529296875
0,2227693,32.049835205078125,-12.458564758300781,-48.038185119628906,-172.77252197265625
0,2227696,15.09653091430664,-66.58655548095703,-31.416677474975586,108.84102630615234
0,2227697,6.737807273864746,28.217836380004883,31.461484909057617,-205.52304077148438
0,2227699,1.6125556230545044,85.34321594238281,57.13383102416992,-870.9537963867188
0,2227701,-41.31292724609375,-23.548805236816406,-3.034998893737793,-170.29847717285156
0,2227703,25.607242584228516,9.34488582611084,17.516796112060547,79.80521392822266
0,2227705,44.99794006347656,46.397422790527344,76.21981048583984,619.1784057617188
0,2227707,-74.83335876464844,-53.223976135253906,4.034519195556641,1164.2681884765625
0,2227709,10.784087181091309,-8.958532333374023,-77.81806182861328,-284.60467529296875
0,2227711,50.99873733520508,2.739774703979492,-110.57093811035156,-994.1610107421875
0,2227713,-35.98155975341797,-94.03955841064453,-96.67626953125,153.069580078125
0,2227715,20.76665687561035,6.658923625946045,51.0898551940918,452.2998962402344
0,2227717,53.23872756958008,138.58709716796875,190.73265075683594,-71.29971313476562
0,2227719,-33.01572799682617,-27.00995445251465,37.0350227355957,-36.41080856323242
0,2227721,-47.83318328857422,-57.6494140625,-96.39649200439453,-737.0497436523438
0,2227723,-12.114943504333496,33.884185791015625,-47.87001419067383,-456.4827575683594
0,2227725,-26.441673278808594,-37.91811752319336,-12.554475784301758,1490.47900390625
0,2227727,12.010432243347168,5.25984525680542,34.18303298950195,833.629150390625
0,2227729,16.931785583496094,59.12038040161133,57.75630187988281,-1201.285400390625
0,2227731,-26.074731826782227,12.117537498474121,28.615215301513672,-1072.778564453125
0,2227733,45.33121109008789,-3.027651309967041,5.757127285003662,551.5931396484375
0,2227735,42.15028762817383,-6.19025182723999,-21.886262893676758,602.7588500976562
0,2227737,-82.15249633789062,-109.29779052734375,-102.95459747314453,261.65496826171875
0,2227739,-5.528454780578613,-81.20661926269531,-74.76171875,818.1392822265625
0,2227741,66.15333557128906,85.60334777832031,25.50908088684082,-1390.4991455078125
0,2227743,-15.210063934326172,57.20920944213867,44.27500915527344,-1197.9290771484375
0,2227745,20.369068145751953,17.947816848754883,69.02291870117188,1255.4713134765625
0,2227747,26.362201690673828,47.76823043823242,44.60919952392578,-272.1949768066406
0,2227749,-22.120704650878906,10.291153907775879,1.625861644744873,-69.01185607910156
0,2227751,-21.006786346435547,-10.070429801940918,16.910634994506836,1136.3756103515625
0,2227753,-30.239294052124023,7.590693950653076,15.095952033996582,-931.6506958007812
0,2227755,18.546972274780273,-9.622435569763184,-17.801494598388672,-845.7254638671875
0,2227757,15.343023300170898,-15.605768203735352,-77.96662902832031,1417.9000244140625
0,2227759,-35.97683334350586,-7.9090895652771,-83.29454803466797,375.7120361328125
0,2227761,33.29710006713867,-108.658935546875,5.076352596282959,-833.1075439453125
0,2227763,58.81460189819336,-126.25540161132812,53.28143310546875,583.982421875
0,2227765,-34.69025421142578,72.47511291503906,0.9645932912826538,323.14495849609375
0,2227767,-77.22032165527344,103.67023468017578,-28.68280792236328,-1192.854736328125
0,2227769,-10.378303527832031,23.329160690307617,30.869611740112305,-10.173616409301758
0,2227771,50.800662994384766,77.28449249267578,55.47069549560547,664.2395629882812
0,2227773,22.043624877929688,25.36416244506836,23.18855094909668,-858.4558715820312
0,2227775,-37.59305191040039,-68.10945129394531,-14.222087860107422,-193.08706665039062
0,2227777,-17.73777961730957,-3.5091381072998047,-4.380758762359619,833.8646240234375
0,2227779,30.49392318725586,35.5677490234375,10.698983192443848,82.27445220947266
0,2227781,15.073394775390625,-29.908594131469727,-36.16579055786133,-123.322998046875
0,2227783,5.135961532592773,-36.73335266113281,-31.95816993713379,18.72467803955078
0,2227785,-18.692611694335938,3.58432936668396,1.8634073734283447,-414.228515625
0,2227787,-1.4791805744171143,-11.779558181762695,10.93245792388916,-22.206159591674805
0,2227789,45.51180648803711,3.9021432399749756,21.32044219970703,644.7960205078125
0,2227791,-10.915298461914062,-5.126872539520264,-5.746126174926758,103.18743896484375
0,2227793,-31.477933883666992,-94.2989730834961,-41.04569625854492,-300.08599853515625
0,2227795,31.802743911743164,-44.69320297241211,-11.927115440368652,-203.55430603027344
0,2227797,10.733627319335938,131.44088745117188,47.04600143432617,361.0309143066406
0,2227799,-73.75747680664062,119.72267150878906,33.739540100097656,325.03125
0,2227801,-28.588115692138672,-45.43046951293945,-25.050058364868164,-927.365478515625
0,2227803,58.237648010253906,-32.730281829833984,0.40998125076293945,-390.3820495605469
0,2227805,6.8485307693481445,6.95623779296875,2.1900839805603027,974.2454223632812
0,2227807,-12.545124053955078,1.5639992952346802,-4.612602233886719,404.2872314453125
0,2227809,43.83732986450195,40.68125534057617,38.25700378417969,-533.0062255859375
0,2227811,-0.23020386695861816,-1.7745287418365479,-7.852642059326172,-706.8074951171875
0,2227813,-16.21895408630371,-61.26503372192383,-46.59271240234375,125.22904205322266
0,2227815,-6.708402633666992,-94.84490203857422,-34.94820022583008,898.7749633789062
0,2227817,-47.445621490478516,-51.075923919677734,-31.20930290222168,61.583595275878906
0,2227819,1.9168747663497925,51.546546936035156,-10.03683853149414,-646.2337646484375
0,2227821,35.4718132019043,90.4295883178711,67.94636535644531,206.57749938964844
0,2227823,12.700761795043945,33.339176177978516,90.21578216552734,515.4464721679688
0,2227825,-13.737325668334961,-9.527438163757324,-7.494053363800049,-480.37744140625
0,2227827,1.6099462509155273,3.8319711685180664,-37.58603286743164,-389.3390197753906
0,2227830,3.497960329055786,-31.93319320678711,-26.449199676513672,316.2266540527344
0,2227831,-18.52734375,-4.8822922706604,-15.065478324890137,119.3267593383789
0,2227834,-9.495875358581543,25.34653663635254,36.5981559753418,-299.8388671875
0,2227835,7.317966938018799,7.73731803894043,40.71874237060547,-131.1480255126953
0,2227838,39.138248443603516,27.241500854492188,-7.367574214935303,96.14105987548828
0,2227839,7.2623090744018555,6.609272003173828,-38.500972747802734,62.38756561279297
0,2227842,-6.352548122406006,-46.29490661621094,-63.464393615722656,507.42669677734375
0,2227843,2.2015225887298584,-43.792884826660156,-27.50861167907715,310.08038330078125
0,2227844,-22.92092514038086,-42.24868392944336,19.221168518066406,-573.1182250976562
0,2227847,-36.72453308105469,-58.46355056762695,-33.396793365478516,372.6426086425781
0,2227848,6.1512956619262695,47.99833679199219,28.146930694580078,164.52655029296875
0,2227851,28.231361389160156,104.02185821533203,87.97998809814453,-1928.9725341796875
0,2227853,-14.58438491821289,-25.84671401977539,-14.391022682189941,163.03500366210938
0,2227855,35.826194763183594,-21.517566680908203,7.254617214202881,1923.133056640625
0,2227857,25.03396987915039,83.50436401367188,65.87049865722656,-239.38479614257812
0,2227859,-54.66230773925781,-7.300839424133301,-28.414569854736328,-644.720947265625
0,2227861,-2.659494161605835,-44.316070556640625,-49.43482208251953,-2.44767427444458
0,2227863,26.116735458374023,33.31032180786133,34.57332229614258,-343.9844665527344
0,2227865,-28.450531005859375,-0.3671860098838806,-23.05829429626465,-35.97597122192383
0,2227867,-32.28340148925781,-59.7007942199707,-85.92073822021484,611.6922607421875
0,2227869,28.51044464111328,-9.66887092590332,31.28705596923828,333.2184143066406
0,2227871,32.393733978271484,48.647804260253906,43.604652404785156,-186.53158569335938
0,2227873,2.177306890487671,45.35797882080078,-27.415163040161133,-157.49363708496094
0,2227875,-5.124791622161865,-49.12342834472656,-8.700843811035156,-100.627685546875
0,2227877,-26.161867141723633,-97.58595275878906,-12.509790420532227,-47.634456634521484
0,2227879,11.564146995544434,39.10759735107422,46.52101516723633,191.4453582763672
0,2227881,27.756603240966797,83.3685531616211,70.36402893066406,-87.69792175292969
0,2227883,-46.81448745727539,-44.61444854736328,-77.34502410888672,-193.54437255859375
0,2227885,-41.232181549072266,-96.12189483642578,-69.26659393310547,-52.748958587646484
0,2227887,70.76514434814453,63.71971893310547,76.31244659423828,37.763301849365234
0,2227889,37.564910888671875,90.02643585205078,48.81026840209961,323.5303955078125
0,2227891,-62.69693374633789,-30.5100154876709,-50.01811599731445,53.57405090332031
0,2227893,-12.925957679748535,-12.076432228088379,-32.68269729614258,-149.9219512939453
0,2227895,27.521896362304688,20.39581298828125,37.39314651489258,-159.76280212402344
0,2227897,31.95229148864746,-5.370689392089844,6.334789276123047,-13.090270042419434
0,2227899,-14.862594604492188,-26.248706817626953,-27.35283660888672,263.2058410644531
0,2227901,-35.93017578125,-5.09815788269043,14.185637474060059,262.35076904296875
0,2227903,32.05989074707031,9.441923141479492,14.506956100463867,-677.8821411132812
0,2227905,3.7444214820861816,40.609622955322266,-4.374499320983887,-701.3798217773438
0,2227907,-32.37208938598633,-34.575538635253906,-23.16512107849121,937.861328125
0,2227909,10.311150550842285,-72.78174591064453,-0.1767590492963791,560.5973510742188
0,2227911,23.288516998291016,25.091331481933594,7.7921648025512695,-206.9056854248047
0,2227913,-4.8154730796813965,-6.297168731689453,-55.84208679199219,-47.61388397216797
0,2227915,-9.822463035583496,31.526195526123047,7.862604141235352,-620.6271362304688
0,2227917,-0.5081712007522583,49.97340393066406,40.37575149536133,-89.14851379394531
0,2227919,-11.115017890930176,-16.710636138916016,18.542282104492188,532.35205078125
0,2227921,-10.747734069824219,-1.7385013103485107,54.94257354736328,-45.3414421081543
0,2227923,4.142143249511719,-6.159101963043213,-20.99395179748535,136.4809112548828
0,2227925,26.138620376586914,-0.8302019238471985,-35.279441833496094,262.86749267578125
0,2227927,22.315536499023438,-0.05570800229907036,23.956974029541016,-615.6231689453125
0,2227929,-25.254167556762695,-53.92134475708008,-49.50376510620117,-234.7447967529297
0,2227931,-8.476699829101562,-26.965776443481445,-37.325782775878906,735.2733154296875
0,2227933,15.507620811462402,42.101165771484375,47.38432693481445,-466.3986511230469
0,2227935,-41.48206329345703,23.70155906677246,9.472217559814453,-253.09202575683594
0,2227937,-22.790130615234375,9.40610408782959,-10.821234703063965,818.2695922851562
0,2227939,50.77749252319336,-16.739078521728516,4.083044528961182,-522.9721069335938
0,2227941,34.92877960205078,-17.182432174682617,-0.03288348391652107,-786.0396118164062
0,2227943,-43.92026901245117,35.434471130371094,-31.643463134765625,252.160888671875
0,2227945,-41.47232437133789,24.19183349609375,-4.474240779876709,1203.13720703125
0,2227947,81.25619506835938,27.642654418945312,90.8030776977539,516.4055786132812
0,2227949,48.836700439453125,25.249042510986328,32.36528015136719,-1121.8714599609375
0,2227951,-79.69371795654297,-56.08724594116211,-60.65009689331055,-708.7520141601562
0,2227953,-38.29376220703125,-24.32635498046875,-12.189277648925781,342.74896240234375
0,2227955,29.012264251708984,26.960479736328125,24.748958587646484,570.655029296875
0,2227957,17.762855529785156,-22.169275283813477,-7.084287166595459,14.967108726501465
0,2227959,-37.89000701904297,-83.81427001953125,-60.917335510253906,38.09910202026367
0,2227961,1.8240220546722412,-55.17343521118164,-33.5721321105957,86.52306365966797
0,2227963,69.7927017211914,80.42049407958984,42.11402893066406,-489.89520263671875
0,2227965,-30.907644271850586,23.393606185913086,-5.963662147521973,232.91603088378906
0,2227967,-49.00763702392578,-26.234304428100586,-17.413379669189453,-155.73538208007812
0,2227969,27.356346130371094,71.24369812011719,59.165409088134766,-940.9053344726562
0,2227971,11.457987785339355,33.360816955566406,13.449370384216309,597.5241088867188
0,2227973,19.768516540527344,3.6326563358306885,13.877974510192871,916.1777954101562
0,2227975,10.472580909729004,6.00708532333374,14.515533447265625,56.62566375732422
0,2227977,-27.79720687866211,-36.600677490234375,-75.89432525634766,-333.9400329589844
0,2227979,-4.284341335296631,-24.973237991333008,22.02741241455078,-546.022705078125
0,2227981,9.349225997924805,21.55119514465332,49.93495559692383,-3.0681636333465576
0,2227983,2.624499797821045,3.4355835914611816,-40.41857147216797,511.58148193359375
0,2227985,32.190067291259766,9.628046035766602,28.410106658935547,-75.10198211669922
0,2227987,0.9582136869430542,-8.016900062561035,-3.0099804401397705,-665.0010375976562
0,2227989,-50.08548355102539,-70.93704223632812,-79.33770751953125,512.7632446289062
0,2227991,-32.837745666503906,-25.914091110229492,-18.26719856262207,780.6141967773438
0,2227993,5.055248737335205,19.96007537841797,28.462265014648438,-194.78976440429688
0,2227995,20.102577209472656,-0.24004851281642914,9.992668151855469,-38.2329216003418
0,2227997,-23.44793128967285,-42.384864807128906,-48.274314880371094,-395.1980895996094
0,2227999,7.184479713439941,35.454429626464844,25.975177764892578,-1390.1951904296875
0,2228001,30.989715576171875,89.7343521118164,118.29830932617188,-426.1400146484375
0,2228004,2.39614200592041,26.874650955200195,6.601110458374023,2393.885009765625
0,2228005,10.257780075073242,12.269315719604492,-52.299781799316406,1399.4222412109375
0,2228008,-23.01968002319336,-29.87166404724121,-19.432525634765625,-2752.870361328125
0,2228009,-20.151201248168945,-26.660886764526367,-12.60057258605957,-977.59423828125
0,2228012,49.39724349975586,9.991969108581543,39.45139694213867,2322.475341796875
0,2228013,29.499399185180664,-8.744180679321289,33.42240905761719,96.95232391357422
0,2228016,-24.473848342895508,4.814467906951904,-28.43442153930664,-1026.723876953125
0,2228017,4.807889938354492,20.288524627685547,-32.588130950927734,-59.60434341430664
0,2228018,1.6902962923049927,-11.559836387634277,-28.892086029052734,-193.41981506347656
0,2228021,-46.91623306274414,-70.84961700439453,-26.59381103515625,725.526123046875
0,2228023,-42.47916793823242,-67.95719909667969,-16.45630645751953,569.1346435546875
0,2228025,19.323461532592773,8.584836959838867,7.333835601806641,-712.7015991210938
0,2228027,60.17308044433594,70.27616882324219,84.54114532470703,78.34838104248047
0,2228029,8.930633544921875,93.99604034423828,41.44827651977539,63.141815185546875
0,2228031,-58.03599548339844,14.816472053527832,-61.34149169921875,-563.9867553710938
0,2228033,-22.090993881225586,-93.88235473632812,-24.523202896118164,-169.81234741210938
0,2228035,61.90602493286133,-26.202512741088867,19.691261291503906,361.788330078125
0,2228037,63.453392028808594,64.85420989990234,15.99329948425293,394.07952880859375
0,2228039,-49.198204040527344,14.43853759765625,-8.028817176818848,27.140933990478516
0,2228041,-88.54342651367188,-26.017667770385742,-13.378876686096191,294.6515197753906
0,2228043,24.11052703857422,-1.4546352624893188,2.857823371887207,-644.2675170898438
0,2228045,41.58710479736328,-10.670138359069824,-6.36232852935791,-465.3388671875
0,2228047,-21.72657012939453,-50.12997817993164,-8.186483383178711,815.0974731445312
0,2228049,-5.6027703285217285,20.83417510986328,2.9911699295043945,-325.4299621582031
0,2228051,16.63128662109375,58.958988189697266,12.510892868041992,-151.22833251953125
0,2228053,29.46856689453125,-68.0369644165039,12.368457794189453,314.3190002441406
0,2228055,-11.397948265075684,-70.76225280761719,-33.33633804321289,-436.95684814453125
0,2228057,-42.633480072021484,28.85034942626953,-32.46285629272461,679.03369140625
0,2228059,31.837535858154297,4.036962509155273,42.57361602783203,687.6446533203125
0,2228061,30.44224739074707,119.6004638671875,65.92071533203125,-2174.89404296875
0,2228063,-31.169631958007812,178.07861328125,25.72500991821289,-791.5839233398438
0,2228065,-10.276676177978516,-121.32319641113281,-20.256755828857422,2870.313232421875
0,2228067,22.61389923095703,-140.6193389892578,-36.70854187011719,334.8686828613281
0,2228069,-2.5158727169036865,38.59050750732422,-47.758155822753906,-1749.1343994140625
0,2228071,3.705962657928467,-25.96698570251465,-27.057903289794922,-110.2078628540039
0,2228073,29.322248458862305,32.461830139160156,47.824588775634766,654.4196166992188
0,2228075,-51.100921630859375,59.53763961791992,10.927775382995605,320.4285888671875
0,2228077,-45.21424102783203,-63.444095611572266,-18.994403839111328,-493.9744567871094
0,2228079,33.174774169921875,-30.096729278564453,-0.35764598846435547,517.1373901367188
0,2228081,10.240571022033691,5.314602851867676,-6.038288593292236,294.40283203125
0,2228083,48.82251739501953,-2.368314027786255,49.845703125,-769.7505493164062
0,2228085,14.690145492553711,-1.659641981124878,-12.006455421447754,-194.5430450439453
0,2228087,-82.88121795654297,-27.59964370727539,-74.20105743408203,-731.4777221679688
0,2228089,-23.075592041015625,-0.11416919529438019,0.6907739639282227,945.3438720703125
0,2228091,58.72527313232422,67.08207702636719,63.74595260620117,1169.2921142578125
0,2228093,10.584427833557129,34.05059051513672,51.723350524902344,-1363.5936279296875
0,2228095,-30.474285125732422,-25.8271541595459,-12.755088806152344,-342.14593505859375
0,2228097,19.834304809570312,12.65323257446289,-27.425918579101562,503.7071228027344
0,2228099,3.518807888031006,15.718091011047363,-19.081388473510742,-145.52474975585938
0,2228101,-1.5282264947891235,-23.3853759765625,-9.296459197998047,318.1773681640625
0,2228103,29.17952537536621,-15.068839073181152,19.877700805664062,334.51263427734375
0,2228105,-16.699665069580078,-21.451601028442383,-11.140192031860352,-260.2261047363281
0,2228107,-30.26850700378418,-29.045719146728516,-22.551555633544922,-158.1630859375
0,2228109,4.94088077545166,35.52975082397461,19.633760452270508,-39.942039489746094
0,2228111,-4.700273513793945,34.315338134765625,0.036615852266550064,-163.77691650390625
0,2228113,-8.912113189697266,-41.02711868286133,-20.18768310546875,173.6409454345703
0,2228115,-0.6426439881324768,-3.5913093090057373,25.73027229309082,107.47422790527344
0,2228117,-0.42497366666793823,3.798394203186035,3.496680498123169,-95.38983154296875
0,2228119,13.353781700134277,-71.14250946044922,-48.34280776977539,235.16624450683594
0,2228121,12.834580421447754,49.877685546875,36.83831787109375,-126.33938598632812
0,2228123,6.198561191558838,142.5048370361328,52.84114456176758,-351.1606750488281
0,2228125,-10.25322437286377,-53.592777252197266,-44.3245849609375,164.3688201904297
0,2228127,-15.686219215393066,-114.5478744506836,-24.772397994995117,126.46631622314453
0,2228129,11.97887134552002,24.657737731933594,14.330178260803223,22.486377716064453
0,2228131,23.478994369506836,49.25482177734375,28.259435653686523,9.921867370605469
0,2228133,6.802725315093994,-2.188671827316284,2.90096116065979,-265.7467041015625
0,2228135,-47.082008361816406,-29.513233184814453,-46.98432159423828,-109.71759796142578
0,2228137,-12.126372337341309,30.211275100708008,15.161517143249512,283.8779296875
0,2228139,49.69391632080078,23.82088279724121,27.15778350830078,83.88929748535156
0,2228141,-5.687151908874512,-59.9078483581543,-9.564179420471191,-140.96258544921875
0,2228143,-32.66133117675781,-9.964293479919434,-14.835655212402344,153.80438232421875
0,2228145,-1.6407359838485718,53.83258056640625,-14.705832481384277,219.80799865722656
0,2228147,22.019521713256836,29.89256477355957,33.250465393066406,-158.22171020507812
0,2228149,18.550994873046875,-52.699100494384766,9.526652336120605,-539.75732421875
0,2228151,-0.6369530558586121,-42.26807403564453,-34.266292572021484,-98.66156768798828
0,2228153,-39.267459869384766,-0.5181897282600403,-9.985285758972168,555.0274047851562
0,2228155,-0.6605748534202576,30.61050796508789,23.712007522583008,380.09991455078125
0,2228157,56.69557189941406,70.2463150024414,39.59370040893555,340.27960205078125
0,2228159,-26.808815002441406,-41.106773376464844,-43.95339584350586,-380.8360595703125
0,2228161,-54.99623107910156,-55.55571365356445,-45.148006439208984,-1289.4547119140625
0,2228163,28.63730812072754,14.270987510681152,39.010704040527344,241.5026397705078
0,2228165,33.014442443847656,17.6668758392334,1.6397671699523926,1112.0345458984375
0,2228167,-9.40142822265625,35.09312438964844,4.6295857429504395,-223.40907287597656
0,2228169,-14.853131294250488,-23.184009552001953,13.784502029418945,-315.5387878417969
0,2228171,-0.22309893369674683,-39.37924575805664,-5.375526428222656,116.96166229248047
0,2228173,9.797635078430176,21.92732048034668,-2.7676408290863037,-11.860861778259277
0,2228175,-10.780280113220215,17.01421356201172,-21.213241577148438,21.126604080200195
0,2228177,10.145384788513184,24.43838119506836,29.307384490966797,-251.7863006591797
0,2228179,8.899831771850586,-6.499204158782959,19.261693954467773,-87.81961822509766
0,2228181,-1.6732627153396606,17.369953155517578,-11.304627418518066,389.84954833984375
0,2228183,-12.82364559173584,12.469632148742676,-13.638771057128906,165.02772521972656
0,2228185,-15.978126525878906,-80.60187530517578,-43.706722259521484,-313.9895935058594
0,2228187,34.94707489013672,-41.06991195678711,3.3434762954711914,-304.56121826171875
0,2228190,9.020125389099121,-5.5869927406311035,11.112702369689941,327.0784912109375
0,2228191,-31.340871810913086,23.389022827148438,-14.53906536102295,265.1348876953125
0,2228194,-13.367156028747559,74.64279174804688,43.1280517578125,-306.4832458496094
0,2228195,24.99957275390625,51.881202697753906,52.32366180419922,-89.02554321289062
0,2228198,10.779474258422852,-35.07951736450195,-23.942596435546875,105.72985076904297
0,2228199,-7.361971378326416,-31.28594970703125,-24.722270965576172,50.60696792602539
0,2228202,-8.403624534606934,0.27359679341316223,-11.074036598205566,82.8548583984375
0,2228205,-4.0610737800598145,-31.499526977539062,-29.496681213378906,25.221921920776367
0,2228205,1.9669851064682007,-8.834572792053223,8.813884735107422,-5.672786235809326
0,2228207,-14.162697792053223,43.174156188964844,32.36476516723633,-34.754608154296875
0,2228209,0.711768388748169,36.01063919067383,1.6524112224578857,-51.499637603759766
0,2228211,12.386615753173828,-18.04974937438965,9.19457721710205,-22.533695220947266
0,2228213,15.797425270080566,-17.110048294067383,-2.0544886589050293,-49.5668830871582
0,2228215,-2.7291793823242188,-14.4115629196167,-38.244117736816406,-35.153934478759766
0,2228217,-12.461539268493652,-41.16783142089844,7.054895877838135,32.61021423339844
0,2228219,14.242730140686035,8.683252334594727,27.56007194519043,53.61348342895508
0,2228221,-0.8434345126152039,25.55433464050293,-23.011890411376953,38.83560562133789
0,2228223,-15.803483963012695,-10.986189842224121,-10.828977584838867,-22.793794631958008
0,2228225,-8.5542573928833,22.390188217163086,32.73834228515625,17.977806091308594
0,2228227,5.5431437492370605,31.700210571289062,12.394466400146484,21.8299617767334
0,2228229,4.849305152893066,-24.133975982666016,-32.8252067565918,-64.51595306396484
0,2228231,6.211996555328369,-25.635089874267578,-18.32016372680664,-27.8018741607666
0,2228233,8.515960693359375,18.63833999633789,8.818910598754883,25.918785095214844
0,2228235,-21.85262680053711,-6.417119026184082,1.118557095527649,3.764190912246704
0,2228237,17.314353942871094,-17.001014709472656,35.583045959472656,-25.809736251831055
0,2228239,30.438514709472656,29.713687896728516,11.092604637145996,11.919580459594727
0,2228241,-27.895368576049805,4.362793922424316,-47.110443115234375,22.546113967895508
0,2228243,-25.511703491210938,-27.188539505004883,5.894953727722168,3.0946261882781982
0,2228245,15.169636726379395,16.24899673461914,42.77136993408203,39.480926513671875
0,2228247,9.112824440002441,22.080957412719727,-4.947593688964844,40.794734954833984
0,2228249,-12.272525787353516,-4.630013942718506,-31.227352142333984,-37.456634521484375
0,2228251,1.319834589958191,-12.92701244354248,-20.700435638427734,-60.125667572021484
0,2228253,-3.6591272354125977,-36.81726837158203,2.130791187286377,-21.185888290405273
0,2228255,1.1090807914733887,11.166435241699219,19.069395065307617,18.097454071044922
0,2228257,8.150385856628418,53.352962493896484,19.09147834777832,13.82062816619873
0,2228259,-15.049392700195312,-21.37853240966797,-14.528167724609375,-29.856361389160156
0,2228261,-5.813393592834473,-49.55192184448242,-30.25852394104004,39.937705993652344
0,2228263,23.33765411376953,17.89480209350586,11.160752296447754,48.27077865600586
0,2228265,12.308911323547363,30.135807037353516,19.87160873413086,-51.971309661865234
0,2228267,3.8189539909362793,-11.60158634185791,7.671102046966553,-2.852626085281372
0,2228269,-1.5952576398849487,0.8942782878875732,2.5147624015808105,25.340314865112305
0,2228271,-20.27677345275879,28.149627685546875,7.949740886688232,-52.53409194946289
0,2228273,-18.840782165527344,-2.1585466861724854,-12.931923866271973,-35.100128173828125
0,2228275,-7.158933639526367,-36.04936218261719,-36.800113677978516,-9.806838035583496
0,2228277,14.807782173156738,-15.244491577148438,-5.138274669647217,62.81761932373047
0,2228279,36.04861831665039,6.661355018615723,42.75933837890625,65.91536712646484
0,2228281,8.758930206298828,24.17161750793457,27.5902156829834,-71.0251693725586
0,2228283,-30.819055557250977,6.5417704582214355,-33.55887222290039,32.54249954223633
0,2228285,-9.565130233764648,-26.91990089416504,-8.946273803710938,96.96538543701172
0,2228287,15.32324504852295,-18.64673614501953,12.952816009521484,-83.76525115966797
0,2228289,-26.263853073120117,17.737070083618164,-15.459016799926758,-174.73892211914062
0,2228291,-20.331466674804688,39.4153938293457,-15.728418350219727,47.39714813232422
0,2228293,56.384117126464844,-4.288389205932617,14.548665046691895,221.2500457763672
0,2228295,0.9714565873146057,-9.127314567565918,29.83765983581543,-42.295902252197266
0,2228297,-47.734519958496094,-10.439471244812012,-19.040626525878906,-129.74163818359375
0,2228299,19.7399959564209,-42.24794006347656,-32.1264533996582,5.831157207489014
0,2228301,22.806861877441406,25.01803970336914,21.126686096191406,38.68718719482422
0,2228303,7.226892471313477,33.10432815551758,29.433349609375,61.202110290527344
0,2228305,2.501025676727295,-6.727736473083496,-0.7267731428146362,26.83920669555664
0,2228307,-32.319583892822266,8.377898216247559,-9.169330596923828,-34.08455276489258
0,2228309,-12.66847038269043,-12.053901672363281,-8.992106437683105,-76.70052337646484
0,2228311,23.420724868774414,-12.740156173706055,-5.495304107666016,-31.383264541625977
0,2228313,-0.13854515552520752,5.534487724304199,10.991475105285645,29.81071662902832
0,2228315,-2.978965997695923,-2.876455307006836,-7.457118988037109,-2.7147927284240723
0,2228317,27.74201774597168,-5.1643476486206055,6.7306599617004395,5.790984630584717
0,2228319,-14.138444900512695,24.816394805908203,18.9615421295166,7.721898555755615
0,2228321,-54.828468322753906,1.2532309293746948,-30.45241928100586,-5.409172534942627
0,2228323,7.771421909332275,-14.928089141845703,-3.2703135013580322,49.7660026550293
0,2228325,27.263776779174805,16.66511344909668,0.9746338129043579,-0.7410299777984619
0,2228327,17.22747802734375,-5.4773125648498535,-14.34119701385498,-50.89992904663086
0,2228329,29.428625106811523,-35.57649230957031,7.659046173095703,46.38560104370117
0,2228331,3.947700023651123,-43.731075286865234,20.29674530029297,42.508514404296875
0,2228333,-26.61612319946289,46.129547119140625,24.856931686401367,-61.06950759887695
0,2228335,-43.298561096191406,75.0655288696289,-14.173036575317383,-34.47659683227539
0,2228337,14.204598426818848,-17.073955535888672,-17.193531036376953,14.281968116760254
0,2228339,20.552000045776367,-27.910991668701172,-5.218716621398926,-4.455739498138428
0,2228341,-35.480838775634766,-49.4799690246582,-12.456682205200195,12.896871566772461
0,2228343,10.279180526733398,-29.77593231201172,-3.772660255432129,34.681434631347656
0,2228345,28.354488372802734,53.04839324951172,15.736661911010742,-7.881894111633301
0,2228347,-3.340827703475952,52.78902816772461,11.747884750366211,-30.22225570678711
0,2228349,-2.2734484672546387,-6.146180152893066,5.477869987487793,3.1758551597595215
0,2228351,12.870879173278809,-2.8394618034362793,31.082979202270508,-40.94775390625
0,2228353,-5.7127861976623535,-4.174496650695801,-12.51561450958252,-17.76995277404785
0,2228355,-24.551992416381836,-51.878753662109375,-51.80360794067383,102.37773895263672
0,2228357,12.596941947937012,-14.08601188659668,1.0597623586654663,36.608089447021484
0,2228359,-15.944823265075684,22.829578399658203,-3.7409567832946777,-50.93136215209961
0,2228361,-5.513874053955078,38.35560989379883,11.014848709106445,-39.284751892089844
0,2228363,43.28300476074219,14.622551918029785,44.49877166748047,0.822472333908081
0,2228365,-6.455165863037109,-10.267675399780273,-19.375776290893555,39.43328094482422
0,2228367,-20.503446578979492,1.8499553203582764,-24.3775691986084,9.726506233215332
0,2228369,16.051403045654297,-41.973636627197266,2.4870622158050537,-32.754310607910156
0,2228371,-2.353508234024048,-65.26660919189453,0.04669048637151718,13.428277969360352
0,2228374,-24.342750549316406,33.512779235839844,17.22770118713379,42.40636444091797
0,2228375,17.77657699584961,83.43843078613281,6.030503273010254,-49.589622497558594
0,2228378,-2.7915761470794678,-6.883068561553955,-12.28563117980957,-28.524988174438477
0,2228379,-10.460387229919434,-23.708513259887695,-2.298909902572632,34.43940353393555
0,2228382,9.327492713928223,27.135751724243164,14.852909088134766,-21.08993911743164
0,2228383,-1.8799241781234741,8.017539978027344,10.781328201293945,-37.649688720703125
0,2228386,-4.703066349029541,-52.65565490722656,-15.24604320526123,-20.557910919189453
0,2228387,10.531267166137695,-21.9566650390625,-8.35283374786377,20.294641494750977
0,2228388,20.777660369873047,12.48731803894043,-9.797592163085938,51.1064567565918
0,2228391,-20.47232437133789,4.986312389373779,-14.519193649291992,25.494630813598633
0,2228392,-13.526100158691406,31.7748966217041,18.43256378173828,5.72313117980957
0,2228395,-1.045021653175354,2.7211687564849854,12.1589937210083,-13.80212688446045
0,2228396,18.367555618286133,-8.83899974822998,-23.57280921936035,-19.685579299926758
0,2228401,22.11073112487793,-4.311565399169922,0.9455726742744446,-25.094663619995117
0,2228402,-27.068798065185547,-33.78679275512695,32.52292251586914,-13.200873374938965
0,2228403,-12.073139190673828,16.807605743408203,1.8823528289794922,18.78183364868164
0,2228404,21.317337036132812,54.099910736083984,6.378526210784912,54.53409194946289
0,2228407,-1.7991291284561157,-7.347099781036377,0.16051800549030304,13.641864776611328
0,2228408,-23.212074279785156,-47.83876037597656,-33.290836334228516,-64.70516204833984
0,2228411,-6.602663040161133,-5.653520584106445,-0.02239205315709114,-2.2101855278015137
0,2228412,-0.33011189103126526,20.93674087524414,-0.4385792911052704,24.65151596069336
0,2228415,8.58592414855957,23.988542556762695,-10.798713684082031,-23.675424575805664
0,2228416,14.792814254760742,-13.199920654296875,19.341617584228516,26.453786849975586
0,2228419,2.148700475692749,-35.538909912109375,8.021740913391113,11.621496200561523
0,2228420,12.342976570129395,34.593143463134766,4.096186637878418,-25.359167098999023
0,2228423,-17.215595245361328,-13.163398742675781,-6.1205902099609375,24.18903923034668
0,2228424,-27.58416748046875,-60.734004974365234,-29.506755828857422,27.71559715270996
0,2228427,27.05900001525879,42.683841705322266,4.00808572769165,-55.78278350830078
0,2228428,26.742286682128906,71.02615356445312,27.317886352539062,-40.99156188964844
0,2228431,-20.570327758789062,-21.498544692993164,11.04090690612793,67.57746887207031
0,2228432,-18.11415672302246,-27.66996192932129,0.7408542633056641,6.452134132385254
0,2228435,9.211389541625977,13.87552261352539,-21.85049819946289,-58.45634460449219
0,2228436,0.6032294034957886,-26.90060043334961,-7.419961929321289,-5.465506076812744
0,2228439,19.06420135498047,-2.1308865547180176,33.19431686401367,49.50693893432617
0,2228440,18.96100616455078,32.89326858520508,-2.8354663848876953,-0.6461074948310852
0,2228443,-37.14102554321289,-16.974647521972656,-28.217193603515625,-15.689655303955078
0,2228444,-41.23617172241211,-33.68999481201172,-19.931989669799805,-22.524839401245117
0,2228447,32.90830993652344,18.526084899902344,17.154794692993164,-30.412708282470703
0,2228448,20.626379013061523,38.922115325927734,14.697304725646973,54.05495071411133
0,2228451,-26.312149047851562,-11.140484809875488,-21.439340591430664,57.34572982788086
0,2228452,14.502307891845703,-20.679641723632812,31.418371200561523,-4.775845050811768
0,2228455,15.425599098205566,-18.87407112121582,0.19344303011894226,-48.83272933959961
0,2228456,-8.590888977050781,-2.762953042984009,-36.617164611816406,14.379110336303711
0,2228459,1.8899503946304321,28.977922439575195,7.459492206573486,4.705540180206299
0,2228460,9.492959022521973,11.512513160705566,22.446746826171875,-6.659337520599365
0,2228463,-6.121916770935059,-8.656487464904785,24.77648162841797,-1.7507561445236206
0,2228464,-16.566293716430664,-13.517171859741211,-9.437639236450195,-20.729387283325195
0,2228467,-1.0417801141738892,32.70233154296875,-16.57493782043457,10.700458526611328
0,2228468,2.7174532413482666,13.262373924255371,3.327488899230957,-24.010160446166992
0,2228471,-8.804518699645996,-43.059078216552734,-13.629497528076172,29.306873321533203
0,2228472,12.869511604309082,17.384069442749023,-7.154846668243408,7.3347296714782715
0,2228475,28.26305389404297,8.798338890075684,8.37468147277832,-69.76270294189453
0,2228476,-1.7869430780410767,-48.92304229736328,-5.1722540855407715,23.888553619384766
0,2228479,-42.39627456665039,-14.134941101074219,2.851050853729248,55.22085952758789
0,2228480,-11.19868278503418,23.346433639526367,14.708175659179688,-10.274883270263672
0,2228483,29.782760620117188,41.26681137084961,-7.295083522796631,0.7504878640174866
0,2228484,-13.938026428222656,-1.5326333045959473,-20.507383346557617,17.998516082763672
0,2228487,-16.372276306152344,-41.05117416381836,4.016528129577637,-17.19000816345215
0,2228488,33.08698272705078,21.465713500976562,28.050703048706055,-42.42741394042969
0,2228491,15.096778869628906,25.713407516479492,5.46151065826416,-6.559384822845459
0,2228492,-31.80165672302246,-34.299400329589844,-25.540681838989258,1.764562726020813
0,2228495,-2.0683441162109375,-21.88042640686035,-1.7364013195037842,14.014080047607422
0,2228496,20.014890670776367,37.18010711669922,21.30370330810547,80.15599060058594
0,2228499,-7.134797096252441,11.857187271118164,-9.740177154541016,-3.118037462234497
0,2228500,-8.841378211975098,-20.901294708251953,-33.98442077636719,-48.75272750854492
0,2228503,-5.794893264770508,-3.1389787197113037,8.836716651916504,-9.213933944702148
0,2228504,12.912674903869629,-26.864099502563477,48.55246353149414,-10.785781860351562
0,2228507,24.150657653808594,19.10368537902832,-4.267874240875244,1.594085931777954
0,2228508,-16.236181259155273,29.883207321166992,-27.82465362548828,-15.812360763549805
0,2228511,-19.589200973510742,-12.205089569091797,0.7341299653053284,15.868783950805664
0,2228512,24.142610549926758,24.70484733581543,9.682197570800781,15.74766731262207
0,2228515,5.614419937133789,1.1655014753341675,15.204047203063965,17.964889526367188
0,2228516,-23.073673248291016,-12.010404586791992,-19.45026206970215,46.34934616088867
0,2228519,13.178226470947266,-1.9198384284973145,-2.817243814468384,-67.98809814453125
0,2228520,6.53383731842041,-33.14047622680664,19.711164474487305,-89.88177490234375
0,2228523,-49.228328704833984,-24.3800106048584,-35.362464904785156,40.27085494995117
0,2228524,7.3387370109558105,10.611867904663086,-3.2679696083068848,18.549650192260742
0,2228527,63.68722915649414,34.1515998840332,39.25676345825195,15.097875595092773
0,2228528,2.8003664016723633,18.48175811767578,-10.19788932800293,58.134368896484375
0,2228531,-21.989524841308594,-13.285065650939941,-21.67072296142578,-18.68746566772461
0,2228532,-27.699907302856445,-31.21091651916504,1.1368881464004517,-13.227189064025879
0,2228535,-17.25791358947754,13.93480396270752,13.807112693786621,-24.57804298400879
0,2228536,25.46553611755371,35.074195861816406,20.691919326782227,-27.459917068481445
0,2228539,23.801773071289062,-21.855545043945312,-14.746070861816406,40.60752487182617
0,2228540,-10.351710319519043,-26.122417449951172,-22.970510482788086,32.87351989746094
0,2228543,-1.2576208114624023,26.05208396911621,13.304614067077637,-23.292497634887695
0,2228544,12.364777565002441,3.4029834270477295,4.014626502990723,-14.738967895507812
0,2228547,-29.8156681060791,-13.470356941223145,0.4939781725406647,20.863407135009766
0,2228548,-9.623567581176758,29.211000442504883,0.8834843635559082,-5.691018104553223
0,2228551,28.663881301879883,0.9990612864494324,-4.427746295928955,-7.22983980178833
0,2228552,-4.371747970581055,-28.555557250976562,0.35077425837516785,15.808116912841797
0,2228555,1.8625688552856445,-3.1444180011749268,6.726393699645996,-25.75334358215332
0,2228556,-4.6312642097473145,1.6987738609313965,4.444740295410156,-37.35433578491211
0,2228559,-9.239099502563477,-7.7809343338012695,-14.40935230255127,29.027429580688477
0,2228560,11.764408111572266,-5.391837120056152,-8.658806800842285,9.104571342468262
0,2228563,-6.96798038482666,21.666675567626953,20.85306739807129,6.21696138381958
0,2228564,-0.08019721508026123,24.289960861206055,18.991186141967773,29.97596549987793
0,2228567,0.7109751105308533,-23.726076126098633,-30.5849666595459,-17.037826538085938
0,2228568,5.405613899230957,-48.50782012939453,-30.33234214782715,-44.25168228149414
0,2228571,-2.365933418273926,8.793295860290527,15.936471939086914,30.022417068481445
0,2228572,-11.829774856567383,73.8447265625,29.852005004882812,72.41316986083984
0,2228575,5.124138832092285,-14.620597839355469,22.768932342529297,-50.405364990234375
0,2228576,-0.7310192584991455,-47.725807189941406,-20.123178482055664,-71.96138000488281
0,2228579,-6.9835124015808105,-7.386222839355469,-30.908113479614258,18.212032318115234
0,2228580,8.435032844543457,19.272953033447266,26.550060272216797,23.981407165527344
0,2228583,13.082914352416992,45.63294982910156,-10.823553085327148,13.911038398742676
0,2228584,5.045782566070557,-14.835699081420898,-16.773170471191406,15.0494966506958
0,2228587,-21.39031410217285,-32.91395568847656,16.156076431274414,-13.853446006774902
0,2228588,-22.822731018066406,9.027621269226074,-4.496334552764893,-12.447443962097168
0,2228591,38.63429260253906,-4.494823932647705,13.894658088684082,12.867911338806152
0,2228592,13.927440643310547,-15.931238174438477,-6.522833824157715,9.407865524291992
0,2228595,-21.370529174804688,38.48956298828125,-3.6854164600372314,-28.925750732421875
0,2228596,-1.9370328187942505,10.290006637573242,15.071866035461426,-50.87586975097656
0,2228599,3.4904866218566895,-3.8683559894561768,7.970935344696045,41.11189651489258
0,2228601,-5.615921497344971,18.90825653076172,-24.43392562866211,51.207664489746094
0,2228603,-9.56630802154541,-61.678565979003906,-40.01222229003906,-24.334157943725586
0,2228605,39.920127868652344,-36.466278076171875,39.14995193481445,-1.6538522243499756
0,2228610,-14.266830444335938,73.55897521972656,34.869876861572266,-7.085310459136963
0,2228610,-57.20139694213867,22.339895248413086,-25.21352195739746,-1.738391637802124
0,2228611,14.369357109069824,-57.850929260253906,-14.474006652832031,19.52994155883789
0,2228612,27.461381912231445,6.4339399337768555,15.510784149169922,2.007258415222168
0,2228615,17.808185577392578,26.224769592285156,4.60231876373291,-6.685670375823975
0,2228616,12.924727439880371,7.22553825378418,-22.676130294799805,2.632720708847046
0,2228619,-3.5804004669189453,7.717682361602783,11.221895217895508,28.393526077270508
0,2228620,-28.56902503967285,-23.647470474243164,21.849260330200195,-32.09307861328125
0,2228623,-9.475923538208008,-2.5535800457000732,-38.80783462524414,-61.77727508544922
0,2228624,17.14781951904297,-20.15479850769043,-13.219806671142578,38.13176345825195
0,2228627,-1.543357491493225,-11.571386337280273,27.586179733276367,29.461727142333984
0,2228628,2.264838933944702,43.7720832824707,19.466793060302734,-42.46900939941406
0,2228631,-2.144014596939087,3.174816608428955,15.973323822021484,-11.171464920043945
0,2228632,-8.0431489944458,-25.69440269470215,-54.11516571044922,40.230892181396484
0,2228635,-1.933850646018982,-13.47641658782959,-15.581486701965332,17.883930206298828
0,2228636,-4.068415641784668,4.550268173217773,54.049346923828125,-50.971275329589844
0,2228639,25.146085739135742,38.611690521240234,15.366424560546875,7.335379123687744
0,2228640,7.893889904022217,5.98508358001709,-29.824600219726562,68.51457977294922
0,2228643,-29.459495544433594,-14.341964721679688,-23.05487632751465,-30.171478271484375
0,2228644,3.8251917362213135,2.3966562747955322,35.141685485839844,-25.272050857543945
0,2228647,6.978640556335449,-7.689998626708984,17.9683895111084,35.9475212097168
0,2228648,-12.41676139831543,2.556881904602051,-17.774152755737305,-28.815921783447266
0,2228651,17.473648071289062,-17.317758560180664,-13.157846450805664,-8.469679832458496
0,2228652,11.479753494262695,-22.974346160888672,-12.485782623291016,11.803876876831055
0,2228655,-21.856719970703125,23.701133728027344,-7.745480537414551,1.6508266925811768
0,2228656,-9.637779235839844,22.445110321044922,7.018230438232422,32.9249267578125
0,2228659,-2.626877546310425,-8.652671813964844,4.533225059509277,-35.004634857177734
0,2228660,10.029313087463379,11.823039054870605,14.364141464233398,-51.35276412963867
0,2228663,10.195838928222656,-2.4999477863311768,10.478804588317871,39.68001937866211
0,2228664,-11.215048789978027,-43.43428421020508,-27.30137062072754,42.53561782836914
0,2228667,11.16865348815918,19.067228317260742,5.358990669250488,-9.02332878112793
0,2228668,3.0818214416503906,39.770111083984375,13.61428165435791,-5.378002643585205
0,2228671,-18.089181900024414,-26.952438354492188,-24.69664764404297,2.3413124084472656
0,2228672,6.869908809661865,-36.848899841308594,-5.1229071617126465,-4.770202159881592
0,2228675,6.157123565673828,2.286526679992676,10.950218200683594,-37.82413101196289
0,2228676,-7.191892623901367,45.105587005615234,19.39824104309082,-9.823503494262695
0,2228679,17.672359466552734,30.543169021606445,17.688993453979492,48.66627883911133
0,2228680,11.120965003967285,-19.542848587036133,-21.27199363708496,16.746801376342773
0,2228683,-38.88556671142578,-44.52268600463867,-27.70335578918457,-21.714754104614258
0,2228684,1.8394405841827393,-18.105756759643555,14.293815612792969,-10.881210327148438
0,2228687,41.61637496948242,58.13232421875,16.01887321472168,-4.387720584869385
0,2228688,-19.69393539428711,28.055042266845703,-1.1206270456314087,-9.678852081298828
0,2228691,-33.102455139160156,-69.704833984375,10.025164604187012,27.13153648376465
0,2228692,4.4320068359375,-10.795184135437012,-1.8493833541870117,8.524358749389648
0,2228695,23.30695152282715,39.67988967895508,-14.025339126586914,-40.92002868652344
0,2228696,7.009147644042969,2.3876359462738037,-8.451644897460938,13.147256851196289
0,2228699,-30.593433380126953,2.7692089080810547,-2.4846763610839844,2.372545003890991
0,2228700,5.219492435455322,-29.58831024169922,11.93547534942627,-33.434791564941406
0,2228703,36.62800216674805,13.554262161254883,21.36739730834961,32.5703125
0,2228704,-10.948765754699707,27.921445846557617,-9.767417907714844,39.416194915771484
0,2228707,-16.302438735961914,-60.521141052246094,-42.35133361816406,-9.70659065246582
0,2228708,7.0900468826293945,-9.611044883728027,2.5691349506378174,-45.56182861328125
0,2228711,6.788917064666748,84.84215545654297,42.36886215209961,14.586625099182129
0,2228712,-9.70295524597168,28.258615493774414,1.4125746488571167,67.68795013427734
0,2228715,-13.272658348083496,-69.30888366699219,-13.77087688446045,-77.73719787597656
0,2228716,17.272844314575195,-22.020219802856445,-9.444225311279297,-60.36735534667969
0,2228719,-15.081855773925781,9.65351390838623,-11.459161758422852,80.05650329589844
0,2228720,-22.511486053466797,-1.2781851291656494,17.852874755859375,18.765548706054688
0,2228723,38.45685958862305,29.60015106201172,0.38613247871398926,-0.8323251008987427
0,2228724,18.546581268310547,1.6156466007232666,-19.126907348632812,10.889275550842285
0,2228727,-13.449590682983398,-7.049798011779785,13.513481140136719,-28.355587005615234
0,2228728,-13.660962104797363,-8.12431526184082,0.030209073796868324,-28.10661506652832
0,2228731,0.06163053959608078,-41.51749801635742,-18.837730407714844,-27.043010711669922
0,2228732,1.7963391542434692,-3.5855836868286133,4.192899227142334,35.47877502441406
0,2228735,-6.94734001159668,61.38867950439453,35.48984146118164,81.35137939453125
0,2228736,22.15969467163086,33.846805572509766,15.291982650756836,-21.722484588623047
0,2228739,5.3748087882995605,-48.243865966796875,-30.4528865814209,-28.031349182128906
0,2228740,-19.887012481689453,-38.46691131591797,-13.917686462402344,31.366086959838867
0,2228743,-0.3926997482776642,25.80666732788086,-2.126124858856201,-43.6734733581543
0,2228744,-11.410712242126465,20.39495086669922,2.516385555267334,-41.94818878173828
0,2228747,-5.315892219543457,10.589423179626465,34.031494140625,14.54966926574707
0,2228748,32.671607971191406,-1.7602366209030151,19.762025833129883,8.252335548400879
0,2228751,10.101187705993652,-14.412014961242676,-29.005844116210938,33.95912170410156
0,2228752,-24.011335372924805,11.281798362731934,-21.238502502441406,-21.805898666381836
0,2228755,-0.35882464051246643,5.132608413696289,14.10584545135498,-24.05368423461914
0,2228756,-4.920136451721191,-30.276525497436523,-2.3786122798919678,45.46468734741211
0,2228759,-16.209123611450195,-4.801723957061768,-31.864866256713867,-10.122566223144531
0,2228760,7.49490213394165,13.961483001708984,9.103997230529785,-26.681825637817383
0,2228763,21.64764976501465,0.07694713026285172,33.4722785949707,33.516597747802734
0,2228764,29.818675994873047,28.85240364074707,4.1352691650390625,32.67033386230469
0,2228767,-23.75499153137207,-14.429245948791504,-21.35531997680664,-43.246620178222656
0,2228768,-26.05286979675293,-41.16717529296875,-20.612459182739258,-36.770790100097656
0,2228771,11.785050392150879,1.268090009689331,4.302702903747559,8.792352676391602
0,2228772,-14.493268966674805,17.78846549987793,9.888137817382812,2.0788872241973877
0,2228775,23.036989212036133,6.829840660095215,48.96460723876953,35.42061996459961
0,2228776,27.480884552001953,-11.442130088806152,26.9498291015625,25.829984664916992
0,2228779,-24.25523567199707,12.875874519348145,-86.70790100097656,-37.830589294433594
0,2228780,-33.01645278930664,-2.5678911209106445,-44.959693908691406,-12.67733383178711
0,2228783,4.404551982879639,4.546278476715088,66.24600219726562,19.4095458984375
0,2228784,27.84253692626953,15.598759651184082,37.97823715209961,8.605571746826172
0,2228787,-34.483341217041016,-35.68556213378906,-33.60211181640625,6.860790729522705
0,2228788,-4.397130966186523,-10.094353675842285,-35.17449951171875,0.6615796089172363
0,2228791,46.55313491821289,42.77540588378906,16.02850914001465,-41.70140838623047
0,2228793,-11.058525085449219,7.844859600067139,12.894856452941895,-50.56450653076172
0,2228795,-15.261472702026367,-26.389142990112305,-19.429046630859375,41.643882751464844
0,2228797,7.511063098907471,-21.68712615966797,-1.7868826389312744,63.960205078125
0,2228799,-0.1807285100221634,-7.3359503746032715,27.321889877319336,21.587135314941406
0,2228801,8.75667667388916,57.617347717285156,30.269466400146484,-15.404045104980469
0,2228803,-5.745847702026367,23.573442459106445,-0.34881868958473206,-111.28131103515625
0,2228805,-9.156378746032715,-41.05576705932617,-2.3273186683654785,-30.43361473083496
0,2228807,20.763690948486328,9.26761245727539,-9.510510444641113,104.05122375488281
0,2228809,-17.776369094848633,-15.038731575012207,-40.664466857910156,58.76566696166992
0,2228811,-14.391109466552734,-27.910146713256836,-8.202194213867188,18.360918045043945
0,2228813,32.36193084716797,38.68901443481445,41.7896614074707,-72.1011734008789
0,2228815,-13.429910659790039,-0.7327551245689392,-0.45362335443496704,-59.93456268310547
0,2228817,-24.576608657836914,-34.982383728027344,-38.84171676635742,55.58845138549805
0,2228819,51.535118103027344,27.508337020874023,14.953204154968262,-38.94923400878906
0,2228821,9.955883026123047,10.798685073852539,11.206162452697754,-76.45845031738281
0,2228825,-76.43002319335938,-33.85700988769531,-13.056275367736816,102.0597152709961
0,2228825,8.093789100646973,9.045162200927734,2.059342861175537,79.89857482910156
0,2228826,42.09255599975586,-11.496194839477539,3.2674179077148438,-35.44816970825195
0,2228829,-21.692230224609375,-22.273378372192383,7.813046455383301,-14.474774360656738
0,2228830,0.7285164594650269,43.138755798339844,-1.888662576675415,-0.48248735070228577
0,2228833,17.987871170043945,36.28660583496094,-29.792518615722656,-8.900215148925781
0,2228834,-9.557260513305664,11.90118408203125,-16.269983291625977,-42.64936828613281
0,2228837,1.5361794233322144,-8.022290229797363,64.19548797607422,14.665777206420898
0,2228838,16.901737213134766,-39.092735290527344,27.920913696289062,36.97652053833008
0,2228841,-9.017766952514648,-17.262104034423828,-44.50815963745117,-7.846602916717529
0,2228842,-14.263060569763184,15.606491088867188,5.19459342956543,9.640877723693848
0,2228845,4.793694019317627,10.948519706726074,9.882943153381348,-26.353063583374023
0,2228846,3.2787959575653076,-23.301013946533203,-15.657288551330566,-44.078025817871094
0,2228849,11.787435531616211,-7.28773832321167,-8.315156936645508,34.15770721435547
0,2228850,7.254040718078613,27.021730422973633,12.412899017333984,59.52617263793945
0,2228853,-32.32688522338867,-14.856871604919434,5.81952428817749,-11.523273468017578
0,2228854,-7.355291843414307,-8.715767860412598,-4.412007808685303,-33.14632797241211
0,2228857,28.571439743041992,22.940515518188477,0.7884084582328796,2.5925183296203613
0,2228858,-13.688390731811523,-14.40726375579834,-17.422958374023438,-11.31533432006836
0,2228861,-13.209287643432617,-21.5621337890625,-6.803464412689209,-15.019289016723633
0,2228862,14.20546817779541,16.885643005371094,15.125648498535156,20.935163497924805
0,2228865,1.7037062644958496,24.294992446899414,-10.242451667785645,15.443791389465332
0,2228866,9.19963550567627,16.08240509033203,-2.7229912281036377,1.3465993404388428
0,2228869,-2.6864027976989746,-10.922391891479492,21.578510284423828,-48.11077880859375
0,2228870,-27.52858543395996,-7.945322036743164,1.508707046508789,-29.200761795043945
0,2228873,23.183725357055664,16.430679321289062,-2.7691736221313477,46.525177001953125
0,2228874,28.278696060180664,-4.500715732574463,-3.0554041862487793,9.997657775878906
0,2228877,-31.11802864074707,-17.518173217773438,-1.8710243701934814,0.5839552283287048
0,2228878,-22.465938568115234,-22.759174346923828,-9.581254005432129,22.496503829956055
0,2228881,15.057695388793945,3.57676100730896,-12.76148796081543,50.58893966674805
0,2228882,27.47293472290039,22.51439094543457,9.18362045288086,34.25608444213867
0,2228885,-11.481229782104492,10.714861869812012,17.282079696655273,-119.03630065917969
0,2228886,-29.064685821533203,-6.204225063323975,-6.316904067993164,-101.10259246826172
0,2228889,17.477130889892578,-34.148014068603516,0.4244029223918915,67.56421661376953
0,2228890,23.306148529052734,-0.1781536191701889,22.974855422973633,54.69620132446289
0,2228893,-15.826054573059082,24.74336051940918,-16.713346481323242,32.919151306152344
0,2228894,-12.574559211730957,-0.36099299788475037,-25.368640899658203,31.731979370117188
0,2228897,22.618432998657227,-10.581062316894531,12.971500396728516,-34.54240417480469
0,2228898,11.240049362182617,-0.458356648683548,12.457259178161621,-46.10742950439453
0,2228901,-55.96720886230469,-0.0920821949839592,-29.71199607849121,-102.48834991455078
0,2228902,-30.23552703857422,-9.16015911102295,-17.16780662536621,8.786553382873535
0,2228905,79.11151885986328,39.84052276611328,61.09587860107422,183.8177490234375
0,2228906,47.755794525146484,35.710628509521484,33.063724517822266,-8.509947776794434
0,2228909,-44.50076675415039,-31.487712860107422,-51.422035217285156,-81.4361343383789
0,2228910,-33.56407165527344,-25.06914520263672,-29.177961349487305,53.33622741699219
0,2228913,13.930215835571289,-6.5756330490112305,22.821868896484375,-2.0307953357696533
0,2228914,1.6126794815063477,-2.719496250152588,9.513326644897461,-47.82447052001953
0,2228917,-17.17031478881836,23.663366317749023,11.990096092224121,2.641925096511841
0,2228918,1.5993716716766357,-8.846379280090332,-7.285898208618164,9.029696464538574
0,2228921,11.082010269165039,-47.885719299316406,-38.593231201171875,-34.034664154052734
0,2228922,-1.3861415386199951,-3.7259321212768555,13.33342170715332,-48.086212158203125
0,2228925,-1.9313673973083496,51.72977828979492,35.6113166809082,50.378536224365234
0,2228926,12.124445915222168,22.544536590576172,1.3383673429489136,57.34502029418945
0,2228929,-6.9387664794921875,-38.64198684692383,-35.68466567993164,-45.06889343261719
0,2228930,-12.659811973571777,-11.022473335266113,-2.0423312187194824,6.507664203643799
0,2228933,8.794966697692871,40.3237190246582,28.323387145996094,15.135503768920898
0,2228934,2.0367119312286377,26.00556182861328,-10.183856964111328,-13.068856239318848
0,2228937,2.9345810413360596,-23.178348541259766,1.5372602939605713,58.39320755004883
0,2228938,2.8824880123138428,-18.069299697875977,4.44041633605957,22.35018539428711
0,2228941,-2.2616944313049316,-10.275969505310059,-6.721285343170166,-115.0760726928711
0,2228942,21.27849769592285,-2.1194534301757812,36.26182556152344,-73.0593032836914
0,2228945,-6.322002410888672,22.479923248291016,-21.61017417907715,109.3420181274414
0,2228946,-7.62459135055542,-11.833234786987305,-43.666664123535156,65.7687759399414
0,2228949,3.2427945137023926,-26.8823184967041,22.896400451660156,-12.450141906738281
0,2228950,-37.109825134277344,-4.481387615203857,-35.96586227416992,-7.501528263092041
0,2228953,3.1919775009155273,22.733802795410156,-3.8854167461395264,-66.64424896240234
0,2228954,25.45685577392578,7.5136237144470215,56.75080108642578,-35.599185943603516
0,2228957,-11.445855140686035,-8.333751678466797,6.057198524475098,27.864591598510742
0,2228958,1.022996187210083,20.86944580078125,-1.9616039991378784,42.81208038330078
0,2228961,21.607189178466797,14.07925033569336,3.4620485305786133,62.93915557861328
0,2228962,-2.8266234397888184,12.014959335327148,-5.606525421142578,-5.735095500946045
0,2228965,-31.82628059387207,-20.20603370666504,-23.865413665771484,-63.13930892944336
0,2228966,-2.950295925140381,-38.99650192260742,-9.026480674743652,7.936216354370117
0,2228969,23.51507568359375,22.9115047454834,37.48891830444336,-26.865781784057617
0,2228970,-0.03785821050405502,-13.924649238586426,-3.1269538402557373,-27.774147033691406
0,2228973,3.514058828353882,-42.07486343383789,-34.97566604614258,32.336097717285156
0,2228974,17.798242568969727,47.25621032714844,29.158130645751953,-16.74795913696289
0,2228977,1.8715308904647827,43.110191345214844,6.7348127365112305,25.84247589111328
0,2228978,-17.986148834228516,-30.680118560791016,-28.169124603271484,4.068658351898193
0,2228981,-20.33376121520996,0.9867427945137024,7.798880100250244,-34.69953918457031
0,2228982,9.537678718566895,23.39461898803711,-5.129239082336426,19.626911163330078
0,2228985,9.192636489868164,-38.10338592529297,-12.630823135375977,1.1916078329086304
0,2228986,-0.07171046733856201,-5.574896335601807,5.555125713348389,16.898181915283203
0,2228989,-0.22029761970043182,36.66836929321289,20.775381088256836,5.54632568359375
0,2228990,-23.914274215698242,-4.516122817993164,4.835414886474609,0.7122480273246765
0,2228993,0.8119937181472778,-20.265766143798828,3.6026971340179443,24.410625457763672
0,2228994,10.051762580871582,-9.128827095031738,4.351861000061035,-59.465579986572266
0,2228997,-12.833212852478027,-9.528554916381836,-13.38992977142334,-55.92464065551758
0,2228998,8.877020835876465,-5.584431171417236,1.141444444656372,17.366472244262695
0,2229001,21.896228790283203,8.89640998840332,-19.073139190673828,81.87975311279297
0,2229002,6.430492401123047,19.931713104248047,-7.22367000579834,62.940914154052734
0,2229005,-11.888529777526855,6.66655158996582,1.289490818977356,-49.81795883178711
0,2229007,1.1516423225402832,-12.780241966247559,-14.67142391204834,-10.14305305480957
0,2229009,7.835602760314941,-4.046809196472168,45.863040924072266,25.49259376525879
0,2229011,-10.148578643798828,24.5389461517334,45.5025520324707,-19.58600616455078
0,2229013,-0.4705384373664856,1.1348119974136353,-50.16490936279297,-77.10816192626953
0,2229015,3.1278393268585205,-24.495817184448242,-25.850278854370117,-19.6914119720459
0,2229017,15.324048042297363,2.0629050731658936,36.53712463378906,106.49362182617188
0,2229019,-6.954261779785156,3.0634827613830566,-1.3945919275283813,0.9290887117385864
0,2229021,-21.136098861694336,13.803321838378906,-14.480422973632812,-78.57258605957031
0,2229023,19.802316665649414,-23.049331665039062,-2.5897817611694336,-20.154863357543945
0,2229025,-20.93297004699707,-26.57522964477539,-3.365537166595459,63.274227142333984
0,2229027,-21.6307373046875,34.86383819580078,1.8175983428955078,81.31266021728516
0,2229029,36.71892166137695,19.201885223388672,17.225170135498047,-112.558349609375
0,2229031,20.179441452026367,16.7991886138916,1.6158562898635864,-94.29246520996094
0,2229033,-14.389951705932617,-15.162290573120117,-21.090749740600586,134.81443786621094
0,2229035,-13.173052787780762,-26.145835876464844,9.284623146057129,64.53662872314453
0,2229037,-1.521545648574829,1.0974804162979126,7.19025182723999,-31.59076690673828
0,2229039,-12.88355827331543,-0.31054162979125977,-19.82718276977539,-10.396829605102539
0,2229042,2.330935478210449,22.49650001525879,-10.694099426269531,-35.05271530151367
0,2229043,14.537435531616211,-22.124128341674805,8.414706230163574,6.955567359924316
0,2229046,-0.04829264432191849,-2.7309343814849854,17.787080764770508,-27.525896072387695
1,2229049,-6.9177141189575195,43.17452621459961,-6.835398197174072,-38.96400451660156
1,2229049,-7.898662567138672,-18.433597564697266,-9.352118492126465,40.97062301635742
1,2229050,-3.6228034496307373,-41.5635986328125,0.6041422486305237,-19.334854125976562
1,2229053,19.639665603637695,-35.6718864440918,-19.739974975585938,68.48870086669922
1,2229054,23.926542282104492,30.444747924804688,13.804364204406738,109.83708190917969
1,2229057,-18.32677459716797,48.47883224487305,28.1998233795166,-186.22509765625
1,2229058,-26.167564392089844,-21.81673240661621,-22.260082244873047,-128.96473693847656
1,2229061,14.022153854370117,8.20350456237793,-0.09260474145412445,165.2278594970703
1,2229062,31.576887130737305,6.462646007537842,42.58945083618164,87.45311737060547
1,2229065,-18.273529052734375,-5.668704986572266,-5.293681621551514,-44.91895294189453
1,2229066,-26.638423919677734,10.150407791137695,-33.82306671142578,-35.712440490722656
1,2229069,10.200441360473633,-31.187986373901367,-16.87204360961914,-8.385286331176758
1,2229070,-7.546196460723877,-2.9754953384399414,-3.1807992458343506,3.4232757091522217
1,2229073,11.183418273925781,45.98695755004883,37.722450256347656,4.316348552703857
1,2229074,17.522642135620117,-5.019542694091797,15.7661714553833,-2.0707314014434814
1,2229077,-30.395248413085938,-38.416446685791016,-36.554542541503906,12.53671932220459
1,2229078,12.346456527709961,-3.5818655490875244,1.0088372230529785,16.752700805664062
1,2229081,29.91168975830078,33.025489807128906,25.026548385620117,-12.897095680236816
1,2229082,-22.196834564208984,11.51744556427002,-14.66376781463623,-12.769352912902832
1,2229085,-0.372901052236557,-43.55911636352539,0.666404664516449,-26.244714736938477
1,2229086,9.568619728088379,-2.4598302841186523,4.356208801269531,12.41665267944336
1,2229089,-16.380027770996094,33.38078689575195,-22.471492767333984,28.81670379638672
1,2229090,5.328322887420654,-2.085073471069336,18.15497398376465,-11.086734771728516
1,2229093,-1.017805814743042,17.58104133605957,-0.5830175876617432,-33.17071533203125
1,2229094,-18.71787452697754,17.536603927612305,-29.74257469177246,-1.4650540351867676
1,2229097,2.2405757904052734,-39.75506591796875,6.713088512420654,52.10145568847656
1,2229098,0.04694415628910065,-38.13627624511719,9.612064361572266,37.54744338989258
1,2229101,20.993621826171875,-12.372809410095215,11.467354774475098,9.368672370910645
1,2229102,16.88860321044922,18.985820770263672,8.138522148132324,-52.55780029296875
1,2229105,-36.16490173339844,57.683956146240234,0.15621322393417358,-66.14263916015625
1,2229106,5.152528762817383,4.893625736236572,6.027583599090576,11.92928695678711
1,2229109,30.06359100341797,-55.61614990234375,-5.882248401641846,41.636863708496094
1,2229110,-17.23879623413086,-8.722718238830566,0.35223180055618286,-6.3398308753967285
1,2229113,-5.628549098968506,30.187055587768555,-5.940567970275879,-8.694095611572266
1,2229114,-9.295234680175781,2.7579426765441895,-17.065603256225586,25.41530990600586
1,2229117,-8.044035911560059,-18.964536666870117,15.373612403869629,0.22877317667007446
1,2229118,33.342594146728516,15.239291191101074,10.554563522338867,-23.557422637939453
1,2229121,15.851737976074219,13.441279411315918,-29.194658279418945,-21.138795852661133
1,2229122,-49.12742233276367,-42.18366622924805,-9.644430160522461,-30.62157440185547
1,2229125,-16.500564575195312,25.69181251525879,20.509944915771484,46.607505798339844
1,2229126,64.39580535888672,39.43362808227539,16.484527587890625,70.20320129394531
1,2229129,-6.250476837158203,-55.212860107421875,-9.847527503967285,-41.5341682434082
1,2229130,-38.748260498046875,4.699277400970459,-29.139423370361328,2.8415651321411133
1,2229133,3.984471559524536,42.07276916503906,8.237093925476074,9.467430114746094
1,2229134,2.0838828086853027,-9.371780395507812,30.362215042114258,-77.77249145507812
1,2229137,24.238506317138672,-10.980207443237305,14.452625274658203,23.016530990600586
1,2229138,-16.158674240112305,-4.773548603057861,-21.005895614624023,88.2962646484375
1,2229141,-30.558427810668945,9.230874061584473,-15.270965576171875,-43.475852966308594
1,2229142,28.465869903564453,-12.704805374145508,8.38262939453125,-63.0480842590332
1,2229145,22.383281707763672,-29.60953140258789,-6.388607501983643,33.904117584228516
1,2229146,-4.340081691741943,31.389677047729492,7.69135046005249,27.081254959106445
1,2229149,-8.453926086425781,9.320757865905762,30.10926055908203,21.45311737060547
1,2229150,-7.984742164611816,-23.198230743408203,4.560641765594482,6.649002552032471
1,2229153,3.8057892322540283,16.89470863342285,-26.034626007080078,-52.624324798583984
1,2229154,7.298852443695068,-5.324093341827393,-9.107415199279785,-43.67533874511719
1,2229157,-6.044291973114014,-2.134195566177368,-0.8746625781059265,52.017818450927734
1,2229158,12.978753089904785,13.709808349609375,3.366910219192505,67.65394592285156
1,2229161,8.529792785644531,-16.30832862854004,1.2980729341506958,-51.577247619628906
1,2229162,-36.60945129394531,-33.48743438720703,-23.21785545349121,-49.68223190307617
1,2229165,-5.326503753662109,11.365386962890625,-2.28230619430542,48.124263763427734
1,2229166,37.55165481567383,53.769020080566406,37.24766159057617,16.698917388916016
1,2229169,-24.252832412719727,-2.8806982040405273,1.4345206022262573,-49.91025924682617
1,2229170,-39.3022346496582,-37.57395553588867,-30.29109764099121,-35.589637756347656
1,2229173,30.08026885986328,-2.5111372470855713,2.662104845046997,23.57672691345215
1,2229174,24.072233200073242,10.437626838684082,-3.3357720375061035,54.56977844238281
1,2229177,11.917669296264648,12.414154052734375,5.743106365203857,0.30239248275756836
1,2229178,-6.0214691162109375,9.617334365844727,10.583503723144531,-20.570022583007812
1,2229181,-26.80214500427246,-18.178152084350586,-6.001427173614502,23.58123207092285
1,2229182,0.5854129195213318,-9.537781715393066,28.942716598510742,20.470182418823242
1,2229437,-12.777824401855469,24.839473724365234,-11.274262428283691,-26.079832077026367
1,2229439,14.880142211914062,-2.8434369564056396,-22.037601470947266,-40.401004791259766
1,2229442,33.983882904052734,-59.91962432861328,34.63546371459961,5.417805194854736
1,2229443,-19.44338607788086,8.329119682312012,13.357645988464355,32.90786361694336
1,2229446,-22.90472984313965,65.5644302368164,-25.583986282348633,24.116640090942383
1,2231108,10.016664505004883,-0.1619700789451599,-42.60939407348633,-25.590621948242188
1,2231109,-0.1758900135755539,-13.456792831420898,-12.056561470031738,-32.52968215942383
1,2231111,-29.038856506347656,14.169690132141113,1.0019696950912476,10.838804244995117
1,2231113,2.257560968399048,29.01638412475586,27.513086318969727,-69.28494262695312
1,2231115,36.101871490478516,-15.686440467834473,29.372297286987305,17.0606689453125
1,2231117,16.89190673828125,-54.91478729248047,-28.16341209411621,125.54570007324219
1,2231119,19.499515533447266,-5.149104118347168,29.783145904541016,-40.541568756103516
1,2231121,7.156130313873291,-2.071927785873413,18.532503128051758,-49.20600891113281
1,2231123,-36.40028381347656,-8.577654838562012,-24.863426208496094,7.3268632888793945
1,2231125,-4.057126522064209,35.03293991088867,5.553043365478516,3.1897642612457275
1,2231127,-3.471982479095459,10.335084915161133,-20.75646209716797,9.124383926391602
1,2231129,-49.41924285888672,-29.80425262451172,-19.492155075073242,-13.101275444030762
1,2231131,9.334036827087402,4.031782150268555,17.922731399536133,-0.8774996399879456
1,2231133,37.3070182800293,34.60708236694336,9.185457229614258,13.166732788085938
1,2231135,-13.533287048339844,-10.461745262145996,-13.781878471374512,26.88329315185547
1,2231137,-5.286438941955566,-25.95948600769043,8.476195335388184,3.805598735809326
1,2231139,24.902944564819336,27.2341365814209,9.566463470458984,-31.721599578857422
1,2231141,17.49156951904297,-9.071371078491211,5.199594020843506,-9.922576904296875
1,2231143,3.1436004638671875,-16.55853271484375,8.366654396057129,-0.440272718667984
1,2231145,-6.289706707000732,28.31436538696289,1.4096485376358032,-9.012041091918945
1,2231147,-10.546417236328125,-11.445023536682129,-21.59825325012207,12.010246276855469
1,2231149,-10.47529411315918,-4.431173324584961,-32.72205352783203,24.846323013305664
1,2231151,-15.07612419128418,14.56193733215332,2.9606127738952637,19.6925048828125
1,2231153,-10.667593002319336,-3.8716306686401367,26.639759063720703,-7.945523738861084
1,2231155,19.78737449645996,-17.30673599243164,21.161813735961914,-18.242170333862305
1,2231157,22.88006591796875,-10.805811882019043,-16.906545639038086,-8.55176830291748
1,2231159,-18.507524490356445,27.17631721496582,-17.168254852294922,-4.399979591369629
1,2231161,2.8616628646850586,0.7209962010383606,14.335436820983887,-1.202675223350525
1,2231163,12.162727355957031,-30.857648849487305,13.442046165466309,12.857168197631836
1,2231165,-22.136600494384766,4.470269203186035,0.3076631724834442,25.65070152282715
1,2231167,-1.433429479598999,9.460124015808105,-10.678833961486816,-17.739925384521484
1,2231169,17.85407257080078,16.13285255432129,-10.86495304107666,-20.357078552246094
1,2231171,9.460005760192871,9.39241886138916,-5.485519886016846,20.759597778320312
1,2231173,-20.96487045288086,-16.883007049560547,1.4670974016189575,10.176283836364746
1,2231175,-4.187652587890625,-11.786088943481445,16.663095474243164,-18.062471389770508
1,2231177,15.778280258178711,-7.826501369476318,7.858696937561035,-27.474498748779297
1,2231179,-10.118522644042969,13.456844329833984,-23.010536193847656,-13.495291709899902
1,2231181,11.303244590759277,-3.6195714473724365,20.76675796508789,15.473738670349121
1,2231183,-4.616077423095703,-8.84409236907959,18.146074295043945,49.248924255371094
1,2231185,-9.096173286437988,25.686424255371094,-38.84893798828125,-10.868334770202637
1,2231187,6.770648956298828,16.696680068969727,-2.5744681358337402,-51.74558639526367
1,2231189,-11.547319412231445,-16.244705200195312,12.090950012207031,31.85984230041504
1,2231191,-0.1893015056848526,-3.5084245204925537,0.14110594987869263,22.257183074951172
1,2231193,-7.886803150177002,13.159801483154297,4.464574813842773,-32.70519256591797
1,2231195,0.5857548713684082,-9.513766288757324,-7.012914657592773,-13.050814628601074
1,2231197,30.601289749145508,-22.90057945251465,-6.122005462646484,-0.5092403292655945
1,2231199,7.835291385650635,-2.433225631713867,-0.3555898368358612,21.43585777282715
1,2231201,-17.100284576416016,16.427175521850586,9.030742645263672,22.98544692993164
1,2231203,-22.295673370361328,-16.27301788330078,3.3702244758605957,19.202795028686523
1,2231205,1.764689326286316,10.645626068115234,-0.3611493408679962,-31.336444854736328
1,2231207,28.82223892211914,26.06396484375,10.114045143127441,-59.849327087402344
1,2231209,8.01600456237793,8.611090660095215,2.011934518814087,68.09966278076172
1,2231211,-5.571654796600342,-13.182507514953613,3.7580671310424805,29.972068786621094
1,2231213,-18.537290573120117,-31.78078269958496,-16.777767181396484,-70.27145385742188
1,2231215,-5.163402080535889,27.096614837646484,-14.856583595275879,9.670370101928711
1,2231217,22.259737014770508,17.307897567749023,23.823740005493164,11.737730979919434
1,2231219,-3.9908928871154785,-42.115081787109375,-1.3980674743652344,2.040019989013672
1,2231221,-28.12571907043457,-16.18348503112793,-25.791975021362305,13.849407196044922
1,2231223,12.571937561035156,32.382171630859375,5.395717144012451,-22.52277183532715
1,2231225,22.252099990844727,-16.657546997070312,-6.215753555297852,11.652727127075195
1,2231227,-3.0404469966888428,-2.7499585151672363,2.4460771083831787,32.91667175292969
1,2231229,-4.074974536895752,31.30744743347168,31.170923233032227,-7.1215949058532715
1,2231231,-21.6114444732666,-24.914608001708984,-7.137820243835449,-36.63722229003906
1,2231233,0.7911152243614197,-16.169296264648438,-14.705879211425781,1.223802924156189
1,2231235,16.110445022583008,17.351932525634766,3.4774699211120605,16.626039505004883
1,2231237,-10.742589950561523,33.47683334350586,7.01668643951416,6.901800155639648
1,2231239,-2.490079164505005,-1.6509140729904175,8.084245681762695,-16.287818908691406
1,2231241,2.934163808822632,-27.355571746826172,1.3996857404708862,-41.427490234375
1,2231244,-2.527782917022705,0.5568568110466003,-19.982059478759766,24.100933074951172
1,2231245,19.347867965698242,13.911945343017578,9.130607604980469,25.8859920501709
1,2231248,-4.916253566741943,-5.0209879875183105,15.369020462036133,0.48540154099464417
1,2231249,-22.41670799255371,-35.842979431152344,-37.97517776489258,27.465787887573242
1,2231252,26.154972076416016,9.098085403442383,8.905863761901855,-8.231965065002441
1,2231253,10.447735786437988,11.865981101989746,19.328107833862305,-25.381479263305664
1,2231256,-14.252307891845703,-6.7753777503967285,-24.27272605895996,8.055840492248535
1,2231257,-23.126680374145508,36.96754837036133,1.7791671752929688,1.3937718868255615
1,2231258,-23.934309005737305,-0.7553946375846863,0.2957342565059662,-32.994728088378906
1,2231261,45.512577056884766,-23.171049118041992,-4.237144947052002,-2.766270637512207
1,2231262,13.239640235900879,1.934313416481018,22.57586669921875,39.66562271118164
1,2231265,-34.36738967895508,4.643421649932861,17.868515014648438,-29.279666900634766
1,2231266,30.63318634033203,-0.24179023504257202,3.481823205947876,-23.17097282409668
1,2231271,1.1812809705734253,0.8201569318771362,-13.537198066711426,33.3500862121582
1,2231271,-44.919063568115234,24.501298904418945,-23.414573669433594,11.78414535522461
1,2231273,21.302976608276367,8.676201820373535,10.478351593017578,15.04992389678955
1,2231275,43.01252746582031,-35.06713104248047,16.990201950073242,-83.87849426269531
1,2231277,-42.393802642822266,-27.979272842407227,-18.638622283935547,-53.782958984375
1,2231279,-37.941532135009766,19.816516876220703,9.620529174804688,167.16009521484375
1,2231281,52.069664001464844,3.428140640258789,26.459056854248047,37.21841049194336
1,2231283,35.43228530883789,-24.624000549316406,-39.308868408203125,-91.59397888183594
1,2231285,-13.316969871520996,11.564871788024902,-22.309782028198242,6.684453010559082
1,2231287,-40.20609664916992,21.7908878326416,-2.7413175106048584,-4.207388877868652
1,2231289,-5.224297046661377,-3.197495937347412,-21.72880744934082,-28.793100357055664
1,2231291,36.051536560058594,-5.5368804931640625,31.320035934448242,7.322478294372559
1,2231293,-6.291333198547363,12.061493873596191,25.69981575012207,58.35603713989258
1,2231295,-18.621061325073242,-1.7236073017120361,-18.181486129760742,5.181016445159912
1,2231297,-15.480219841003418,-18.2651424407959,0.7856009602546692,-50.4073486328125
1,2231299,12.800156593322754,14.878593444824219,63.31637954711914,17.384376525878906
1,2231301,16.159656524658203,12.72107219696045,71.19525909423828,25.227127075195312
1,2231303,-44.956764221191406,1.570601463317871,31.049633026123047,-76.2041015625
1,2231305,-4.405070781707764,-8.673508644104004,-74.82071685791016,-38.75617599487305
1,2231307,57.083011627197266,-27.964426040649414,-258.6954040527344,82.35765075683594
1,2231309,25.630563735961914,19.316465377807617,-162.0216522216797,16.884990692138672
1,2231311,-11.652420997619629,-6.516430377960205,135.3926544189453,-17.950960159301758
1,2231313,-4.182689666748047,-23.503782272338867,254.12643432617188,56.90024948120117
1,2231315,12.495207786560059,25.100309371948242,139.35174560546875,5.825471878051758
1,2231317,-2.110506296157837,-0.18277016282081604,-32.24510192871094,-48.14494705200195
1,2231319,-67.83186340332031,19.913209915161133,51.50400161743164,-45.43110275268555
1,2231321,-85.12959289550781,11.41982364654541,108.6013412475586,-65.10462188720703
1,2231323,49.51422119140625,-5.701570510864258,-239.37490844726562,32.2440071105957
1,2231325,100.66415405273438,0.6097742915153503,-320.28582763671875,79.50574493408203
1,2231327,1.3839020729064941,-73.64197540283203,-155.6366424560547,-1.2174640893936157
1,2231329,-11.026381492614746,-51.0154914855957,-104.96723937988281,23.368101119995117
1,2231331,44.851806640625,60.62435531616211,482.180419921875,47.10444641113281
1,2231333,14.003804206848145,97.8266372680664,493.3454895019531,-8.141938209533691
1,2231335,-84.46739959716797,26.970815658569336,-295.1609191894531,-72.23690795898438
1,2231337,-65.29338073730469,-60.94351577758789,-269.01434326171875,-50.341636657714844
1,2231339,25.869226455688477,-37.772457122802734,26.47991943359375,12.933672904968262
1,2231341,24.57317352294922,32.2073860168457,38.339202880859375,-3.5097129344940186
1,2231343,20.659168243408203,-1.4239822626113892,96.30152130126953,18.213022232055664
1,2231345,-0.3081466555595398,-29.056421279907227,107.00016021728516,25.28325843811035
1,2231347,-50.16067886352539,21.813844680786133,26.799442291259766,-33.17570114135742
1,2231349,4.801015853881836,22.273252487182617,-57.05083084106445,6.594021797180176
1,2231351,31.873769760131836,-23.57396697998047,-126.20808410644531,14.079062461853027
1,2231353,-0.8907455801963806,-21.287761688232422,-129.34925842285156,-25.621057510375977
1,2231355,33.12602615356445,-9.092658996582031,-16.843324661254883,16.966796875
1,2231357,27.73533058166504,7.5497846603393555,15.281416893005371,16.368906021118164
1,2231359,-26.32904624938965,8.122830390930176,-17.68037223815918,23.884963989257812
1,2231361,-13.347217559814453,-0.6913745999336243,28.78466796875,43.759037017822266
1,2231363,6.571005344390869,8.580774307250977,54.5983772277832,-18.898244857788086
1,2231365,-2.841651201248169,-23.476520538330078,49.37494659423828,-77.14685821533203
1,2231367,-6.301382541656494,23.333412170410156,71.9592056274414,-9.903830528259277
1,2231369,-24.665813446044922,49.31748962402344,110.47233581542969,43.89554977416992
1,2231371,-5.2324090003967285,-26.762550354003906,-12.082340240478516,-14.167494773864746
1,2231373,14.6652193069458,-29.521718978881836,-210.05789184570312,5.292346954345703
1,2231375,-0.6472028493881226,-6.477318286895752,-122.57299041748047,3.133603811264038
1,2231377,22.407487869262695,-2.4847044944763184,8.202387809753418,-18.325862884521484
1,2231379,20.40866470336914,13.843511581420898,80.46333312988281,1.8161877393722534
1,2231381,-6.028381824493408,2.4764668941497803,105.43289947509766,-25.56968879699707
1,2231383,-12.156614303588867,-9.56900691986084,-13.51738166809082,55.454307556152344
1,2231385,-16.511667251586914,-6.078602313995361,7.622637748718262,69.6908950805664
1,2231387,-12.00083065032959,20.257097244262695,64.1712417602539,-61.049041748046875
1,2231389,-8.9788236618042,31.447763442993164,-7.791760444641113,-44.95374298095703
1,2231391,-7.850485324859619,-7.465891361236572,-15.154488563537598,-2.142899513244629
1,2231393,-9.701330184936523,-26.470951080322266,-23.310575485229492,-13.108866691589355
1,2231395,18.265050888061523,-32.13460159301758,-74.9043197631836,20.93343734741211
1,2231397,46.36568832397461,10.837357521057129,-34.98820877075195,-9.84869384765625
1,2231399,0.24726487696170807,21.593103408813477,-7.328738212585449,12.335281372070312
1,2231401,-17.9514102935791,-6.694512367248535,14.90424919128418,58.43914794921875
1,2231404,10.964320182800293,24.74736213684082,48.12590789794922,-30.14105796813965
1,2231405,-12.904647827148438,-10.284250259399414,17.346593856811523,-11.069618225097656
1,2231408,-26.367820739746094,-24.469642639160156,30.60626220703125,-18.999357223510742
1,2231409,-15.846728324890137,2.50555682182312,-4.527366638183594,-34.7303581237793
1,2231412,8.89346694946289,12.931851387023926,37.640785217285156,33.892452239990234
1,2231413,30.924020767211914,40.05513000488281,76.80142211914062,-5.839739799499512
1,2231416,-3.038592576980591,-5.76861572265625,-150.717529296875,27.082870483398438
1,2231417,-1.9678386449813843,-66.17921447753906,-167.88600158691406,30.9100399017334
1,2231418,22.965728759765625,-21.89864730834961,-37.35572052001953,-17.36552619934082
1,2231421,12.110832214355469,48.412742614746094,67.67320251464844,6.545529842376709
1,2231422,-5.0352396965026855,27.535268783569336,111.5107650756836,7.082557201385498
1,2231425,1.6528170108795166,-6.652032375335693,78.71028137207031,-9.821654319763184
1,2231426,3.390336036682129,5.071021556854248,142.42083740234375,-35.434547424316406
1,2231429,-57.98237228393555,2.077624559402466,32.964744567871094,-51.30385971069336
1,2231430,-38.94918441772461,-25.89263343811035,-112.93904876708984,1.6878982782363892
1,2231433,34.3519287109375,-12.112980842590332,-196.78109741210938,54.27417755126953
1,2231434,10.72015380859375,-13.519174575805664,-161.23484802246094,-2.8687586784362793
1,2231437,32.310020446777344,-23.886449813842773,27.11652946472168,24.678009033203125
1,2231438,52.42730712890625,48.61545181274414,172.94210815429688,54.05107498168945
1,2231441,-8.409612655639648,65.94834899902344,208.73492431640625,-53.16679000854492
1,2231442,-35.68981170654297,-36.625648498535156,17.761648178100586,-22.966136932373047
1,2231447,-89.75604248046875,-60.555572509765625,-155.0629119873047,-0.34634146094322205
1,2231447,-39.9019660949707,21.020761489868164,-66.858642578125,-44.794063568115234
1,2231450,93.83194732666016,33.152896881103516,21.662370681762695,48.91225814819336
1,2231451,31.609630584716797,3.442286491394043,46.2118034362793,56.07230758666992
1,2231454,-64.05374145507812,-27.907394409179688,92.43341827392578,-65.02491760253906
1,2231455,-11.934552192687988,-18.112518310546875,-3.2909951210021973,-44.852569580078125
1,2231458,83.0686264038086,30.287904739379883,-152.8965301513672,53.025733947753906
1,2231459,55.78325653076172,27.475645065307617,-130.03834533691406,13.610428810119629
1,2231462,-60.238338470458984,-27.07533073425293,53.34782028198242,12.244773864746094
1,2231463,-20.55073356628418,-52.514068603515625,110.7261734008789,62.09043884277344
1,2231466,38.39756774902344,0.40470001101493835,-21.57893180847168,-28.034021377563477
1,2231467,3.6450226306915283,43.71379470825195,-29.712621688842773,-42.86101150512695
1,2231470,-10.028644561767578,19.232227325439453,43.37657165527344,-35.80924987792969
