Aktueller Finger,timestamp_ms,sensor_0,sensor_1,sensor_2,sensor_3
0,503395,-13.609199523925781,-23.927881240844727,3.6709399223327637,-6.521671295166016
0,503395,-17.88498878479004,5.239653587341309,25.86031723022461,-4.124462127685547
0,503396,10.310043334960938,-4.229609489440918,-9.815132141113281,-14.946377754211426
0,503396,-8.97237777709961,-17.943038940429688,-19.588411331176758,-0.21458974480628967
0,503396,-9.205475807189941,12.918416976928711,-2.429950714111328,1.5012083053588867
0,503396,10.392470359802246,7.136796474456787,15.453360557556152,-26.152130126953125
0,503397,0.4255538284778595,15.094951629638672,-5.877877712249756,-11.017302513122559
0,503397,1.4384983777999878,-0.9111931920051575,-23.843196868896484,9.840822219848633
0,503400,11.923248291015625,-39.08818435668945,-0.7908504009246826,-4.761437892913818
0,503401,-4.512451171875,0.1825474202632904,-10.128833770751953,-44.77938461303711
0,503404,-22.317190170288086,8.689828872680664,-21.767902374267578,-57.02204895019531
0,503405,-11.647117614746094,-43.951805114746094,2.4595608711242676,-13.793360710144043
0,503408,19.526050567626953,-5.705541133880615,41.35747146606445,71.94794464111328
0,503409,34.6884765625,31.526386260986328,22.608736038208008,103.01227569580078
0,503412,1.3072458505630493,23.62034034729004,-3.253546714782715,9.690714836120605
0,503413,-32.645442962646484,-2.258911371231079,28.14182472229004,-8.495128631591797
0,503416,23.850624084472656,-5.904601097106934,29.34905433654785,59.07600402832031
0,503417,25.24634552001953,50.26230239868164,-11.55472183227539,-6.862606048583984
0,503420,-44.44755172729492,12.811491012573242,-54.861263275146484,-102.67423248291016
0,503422,4.85886812210083,-35.840240478515625,-27.760982513427734,-21.55368423461914
0,503424,25.735790252685547,-28.4470157623291,11.308104515075684,10.957719802856445
0,503426,-10.571967124938965,5.735949993133545,15.033522605895996,-33.53265380859375
0,503428,-8.262945175170898,9.086488723754883,8.123947143554688,61.070228576660156
0,503430,-13.912959098815918,-13.054251670837402,-7.529505252838135,65.62052917480469
0,503432,-2.1395411491394043,-13.629363059997559,7.431397438049316,-33.793155670166016
0,503434,-0.7368319630622864,-32.03046417236328,-4.79685115814209,-26.98041534423828
0,503436,8.911455154418945,54.88764190673828,-21.3004150390625,14.53947639465332
0,503438,11.575304985046387,62.82405471801758,-6.537320137023926,-3.7300117015838623
0,503440,5.934689044952393,-44.59932327270508,14.182339668273926,-36.43392562866211
0,503442,9.878385543823242,1.3921492099761963,36.68378448486328,24.555828094482422
0,503444,-30.610036849975586,-2.189293146133423,6.425474166870117,11.81555461883545
0,503446,-34.21611785888672,-55.226383209228516,-42.578086853027344,-82.20989990234375
0,503448,21.479509353637695,0.36161115765571594,-6.568358421325684,23.994882583618164
0,503642,50.82081985473633,71.06275177001953,22.30609703063965,49.97916030883789
0,503642,-11.611498832702637,35.987220764160156,-19.61430549621582,-64.21082305908203
0,503642,-34.34541702270508,-63.90235137939453,-21.42424774169922,-17.765268325805664
0,503643,20.588464736938477,-30.16644287109375,5.901022911071777,7.602773666381836
0,503643,-11.12389850616455,-2.941542863845825,7.184418201446533,22.413654327392578
0,503643,-19.0245418548584,-9.337409019470215,18.127994537353516,63.63764953613281
0,503643,19.656753540039062,24.166250228881836,13.039769172668457,10.037206649780273
0,503643,4.472980976104736,1.4418632984161377,-11.346766471862793,6.956343173980713
0,503643,11.909394264221191,21.067270278930664,-3.2063660621643066,2.2477846145629883
0,503644,10.346405029296875,31.11518096923828,-8.45946979522705,-39.12788009643555
0,503644,-33.600337982177734,-39.18368148803711,1.236382007598877,-12.62331771850586
0,503644,-15.571165084838867,-39.33049392700195,15.605758666992188,-10.025938987731934
0,503644,27.947769165039062,2.3509411811828613,-9.409928321838379,-13.236347198486328
0,503644,-3.7052526473999023,12.506281852722168,3.259347677230835,13.940909385681152
0,503645,-23.53102684020996,12.945313453674316,3.526259422302246,-3.25683331489563
0,503645,18.12701416015625,-0.19511838257312775,-8.86061954498291,-4.907475471496582
0,503645,22.583797454833984,-6.163525104522705,29.289854049682617,53.44089889526367
0,503645,-14.373462677001953,13.224289894104004,9.325591087341309,34.934173583984375
0,503645,-8.311301231384277,17.883848190307617,-12.598027229309082,-29.992727279663086
0,503645,23.684558868408203,2.3789570331573486,0.8733484745025635,-19.76049041748047
0,503646,-12.649142265319824,0.9503107666969299,-20.696826934814453,-9.139616012573242
0,503646,-25.604461669921875,-10.803886413574219,1.6872806549072266,-2.0305163860321045
0,503646,33.398765563964844,-16.200944900512695,14.533437728881836,14.333842277526855
0,503646,16.242998123168945,8.470085144042969,2.752580165863037,-2.6398794651031494
0,503646,-15.377726554870605,4.220400810241699,-1.0577678680419922,-15.03868579864502
0,503646,-13.13987922668457,-21.745891571044922,-16.867612838745117,12.167320251464844
0,503647,-11.162310600280762,-10.832509994506836,7.332923889160156,19.59406280517578
0,503647,26.799259185791016,5.640735149383545,11.074747085571289,-14.367159843444824
0,503647,13.078601837158203,12.782205581665039,-10.825398445129395,0.30600470304489136
0,503647,-19.26723861694336,13.07812213897705,-3.524341106414795,11.385705947875977
0,503647,-3.6209633350372314,-6.444740295410156,3.346170425415039,-11.757017135620117
0,503647,-3.6657140254974365,-6.077208995819092,2.7258858680725098,-10.935586929321289
0,503648,-13.821320533752441,4.366790771484375,-0.3900887370109558,2.9756765365600586
0,503648,1.104879379272461,7.776608943939209,3.8948795795440674,5.069986343383789
0,503648,25.825328826904297,-10.68210220336914,-3.8329780101776123,-3.8376142978668213
0,503648,-8.136096000671387,-20.403343200683594,-6.015150547027588,11.936446189880371
0,503648,-25.97269058227539,16.010940551757812,5.535099983215332,15.849973678588867
0,503648,3.3630852699279785,23.76555061340332,8.042008399963379,3.144029378890991
0,503649,13.139115333557129,-9.814210891723633,12.614350318908691,3.7572827339172363
0,503649,12.21478271484375,-16.401775360107422,-3.9006574153900146,-11.733161926269531
0,503649,-9.351117134094238,9.338407516479492,-16.422218322753906,-16.25146484375
0,503649,-1.5791757106781006,13.96263599395752,-2.913313865661621,-4.30743408203125
0,503649,1.216923713684082,-16.505878448486328,-9.135528564453125,-1.0932719707489014
0,503649,-17.124126434326172,-21.42393684387207,-3.146243095397949,7.653906345367432
0,503650,22.34807586669922,30.419836044311523,22.754732131958008,-11.470206260681152
0,503650,29.975967407226562,18.817594528198242,0.8323070406913757,-1.9934842586517334
0,503650,-27.089691162109375,-19.107885360717773,-8.223243713378906,25.337547302246094
0,503650,-15.597126007080078,14.108277320861816,-0.17007221281528473,-11.198302268981934
0,503650,15.864522933959961,9.037940979003906,-15.893648147583008,-28.41278839111328
0,503650,-21.803741455078125,-12.437012672424316,0.471528559923172,13.520901679992676
0,503651,-11.800203323364258,-7.603395462036133,18.775279998779297,4.535879611968994
0,503651,34.603755950927734,-2.8302900791168213,-1.1152960062026978,-22.9093017578125
0,503651,7.9837517738342285,10.746655464172363,-3.858887195587158,7.8615641593933105
0,503651,-12.291910171508789,3.357741117477417,-4.180253505706787,-1.396443247795105
0,503651,0.8298459649085999,-23.733951568603516,-7.936140060424805,1.5776947736740112
0,503652,-11.526240348815918,-19.161771774291992,13.56113052368164,22.795223236083984
0,503652,-4.777351379394531,21.24860382080078,11.546945571899414,-3.7754013538360596
0,503652,-2.358330726623535,9.490401268005371,0.2658206522464752,2.675161361694336
0,503652,12.847786903381348,-4.517237663269043,-5.882455348968506,8.21224594116211
0,503652,26.648597717285156,20.962167739868164,-9.896726608276367,-6.953644275665283
0,503652,-17.76572608947754,-3.1990325450897217,0.16523724794387817,12.816985130310059
0,503653,-11.869552612304688,-8.778597831726074,16.042856216430664,8.688812255859375
0,503653,21.033754348754883,9.884442329406738,3.8110318183898926,-8.66668701171875
0,503653,1.5810770988464355,-10.162264823913574,-28.103164672851562,16.761857986450195
0,503653,-19.861425399780273,-6.943955421447754,-10.162161827087402,20.47089958190918
0,503653,11.605524063110352,15.680455207824707,20.20381736755371,-16.165700912475586
0,503653,17.958036422729492,-4.747054100036621,0.201481431722641,-14.680246353149414
0,503654,-25.74969482421875,-12.778966903686523,-4.9169769287109375,10.929888725280762
0,503654,-3.594560146331787,22.209428787231445,12.384255409240723,-13.765949249267578
0,503654,25.12618637084961,16.793970108032227,-3.0322787761688232,-18.326995849609375
0,503654,-18.522918701171875,-27.00722312927246,-19.687849044799805,2.20609712600708
0,503654,-15.338912963867188,-18.298276901245117,6.731810092926025,-8.363136291503906
0,503654,18.948915481567383,23.318605422973633,22.29545783996582,0.5301874876022339
0,503655,0.22289370000362396,5.2743821144104,-6.8837103843688965,-5.989936351776123
0,503655,-14.583227157592773,-15.974489212036133,-14.964021682739258,-14.472360610961914
0,503655,-4.952966690063477,-11.105544090270996,-0.9812305569648743,11.655462265014648
0,503655,0.3862511217594147,-11.420947074890137,5.527814865112305,6.730690956115723
0,503655,-0.509712815284729,13.851537704467773,8.592175483703613,-17.14066505432129
0,503655,7.657749652862549,5.197300910949707,-0.49714231491088867,-3.1975581645965576
0,503656,5.128580570220947,-3.336332082748413,-21.65114974975586,11.93664836883545
0,503656,7.00495719909668,16.21234130859375,-12.338157653808594,-3.9472835063934326
0,503656,-6.39995002746582,-13.895435333251953,9.44968032836914,-8.410806655883789
0,503656,-29.986391067504883,-24.309812545776367,8.680693626403809,3.156730890274048
0,503656,8.833914756774902,22.549222946166992,-8.73294448852539,-8.407172203063965
0,503656,24.831621170043945,29.406457901000977,-7.653098106384277,-1.87907874584198
0,503657,-4.747951030731201,-18.47321891784668,17.274658203125,20.644548416137695
0,503657,-1.1890954971313477,-8.693714141845703,7.559905052185059,3.972541570663452
0,503657,3.184333324432373,13.384825706481934,-2.0251994132995605,9.19437026977539
0,503657,0.9007138013839722,-10.614645957946777,8.235071182250977,10.868963241577148
0,503657,-1.6812411546707153,-7.859551906585693,-2.677994728088379,-8.571651458740234
0,503657,-0.9472935199737549,-11.722371101379395,-12.426074981689453,-11.1301908493042
0,503658,-0.23361143469810486,9.59347915649414,7.114416599273682,-10.598721504211426
0,503658,-6.651800155639648,22.53040885925293,10.866083145141602,-3.8435754776000977
0,503658,9.326252937316895,-18.40078353881836,-20.410297393798828,-6.719947814941406
0,503658,-1.8672226667404175,-8.750615119934082,-12.873619079589844,6.4202375411987305
0,503658,-18.331401824951172,13.378608703613281,21.658456802368164,4.8586297035217285
0,503658,13.59233570098877,-4.835252285003662,5.411574363708496,-3.409121036529541
0,503660,12.617667198181152,-9.45440673828125,-17.90924072265625,-24.23151206970215
0,503660,-2.9423282146453857,26.421119689941406,-9.201148986816406,-48.82396697998047
0,503660,-13.865958213806152,-5.871542453765869,5.796799182891846,24.843351364135742
0,503660,-11.75904369354248,-36.17210388183594,6.9016218185424805,52.124149322509766
0,503660,22.80028533935547,28.580175399780273,-2.48684024810791,14.559859275817871
0,503661,15.354063034057617,9.581318855285645,-3.5883898735046387,-10.530311584472656
0,503661,-2.238917350769043,-30.9100284576416,4.05195951461792,-18.143186569213867
0,503661,-13.914502143859863,7.857889175415039,10.455131530761719,8.23300552368164
0,503661,-17.233304977416992,9.869372367858887,10.469307899475098,10.732636451721191
0,503662,-6.130503177642822,-24.051719665527344,-15.411526679992676,-21.678123474121094
0,503664,-3.326439380645752,-8.506032943725586,-24.403125762939453,-32.11008834838867
0,503666,2.5076537132263184,-0.6050308346748352,46.79976272583008,22.516645431518555
0,503668,19.78413200378418,-2.9901859760284424,37.657814025878906,60.09345245361328
0,503670,-4.504281997680664,19.787960052490234,-30.255640029907227,70.47128295898438
0,503925,-167.03912353515625,-51.88712692260742,-108.13392639160156,601.4616088867188
0,503927,44.845703125,9.692512512207031,38.90763854980469,-98.75191497802734
0,503929,324.1126708984375,137.07122802734375,241.61041259765625,-1293.0186767578125
0,503931,65.92130279541016,48.23283004760742,45.34048080444336,-383.12579345703125
0,503933,-38.05141830444336,26.011205673217773,-55.77131271362305,110.34342193603516
0,503935,-96.20586395263672,-32.42079544067383,-139.92111206054688,429.818359375
0,503937,-186.1957550048828,-120.44310760498047,-192.24522399902344,887.7745971679688
0,504132,89.01473999023438,30.001663208007812,211.61146545410156,-486.93609619140625
0,504132,178.8213348388672,60.9629020690918,246.600830078125,-920.0445556640625
0,504132,-55.34294509887695,-38.615657806396484,-167.12461853027344,368.8690185546875
0,504132,-72.20795440673828,-14.435687065124512,-124.68036651611328,367.7718811035156
0,504133,-12.848203659057617,-30.17557144165039,12.879210472106934,-8.801880836486816
0,504133,-28.983610153198242,-20.979433059692383,-20.861656188964844,230.05299377441406
0,504133,10.292567253112793,7.9420952796936035,-21.313121795654297,178.30804443359375
0,504133,-10.977367401123047,-17.449359893798828,-47.95774459838867,66.53507995605469
0,504133,-33.467098236083984,-1.2866898775100708,4.6477580070495605,26.104991912841797
0,504133,4.457800388336182,-4.2000932693481445,32.48635482788086,2.8338205814361572
0,504134,18.000986099243164,21.168807983398438,-15.095051765441895,-53.13645935058594
0,504134,-13.77903938293457,17.967374801635742,-38.504398345947266,-46.364986419677734
0,504134,-40.151893615722656,-17.350555419921875,1.4066784381866455,3.3540685176849365
0,504134,-33.87841796875,-5.815658092498779,14.553022384643555,33.7790412902832
0,504134,-22.39385223388672,-17.154245376586914,-22.973669052124023,61.00962448120117
0,504134,-17.831098556518555,4.561569690704346,3.59148907661438,76.60248565673828
0,504135,-25.37220573425293,5.0861053466796875,27.99533462524414,47.743473052978516
0,504135,0.5764316320419312,-26.04965591430664,1.1007227897644043,-15.752303123474121
0,504135,16.91269302368164,-0.1021437868475914,-7.1138811111450195,-28.6829891204834
0,504135,0.635983407497406,23.01998519897461,-0.05335177481174469,-13.788556098937988
0,504135,44.98208999633789,10.63156795501709,-11.902276992797852,-38.83049392700195
0,504136,35.678218841552734,16.51047134399414,-0.3403121531009674,-61.89524841308594
0,504136,-28.395736694335938,-3.4997990131378174,15.088349342346191,-6.193326473236084
0,504136,-16.67129898071289,-9.353090286254883,11.078624725341797,43.739192962646484
0,504136,8.112374305725098,6.828980922698975,-4.840091228485107,8.05383586883545
0,504136,-0.02385590597987175,-22.567169189453125,-10.918752670288086,32.776058197021484
0,504136,0.8160304427146912,-1.5561203956604004,0.930838942527771,51.37533950805664
0,504137,2.007368803024292,-11.061816215515137,8.628921508789062,-29.010713577270508
0,504137,7.248110771179199,-12.572237014770508,17.973934173583984,-42.2018928527832
0,504137,23.670412063598633,39.25624465942383,16.92108726501465,-11.652525901794434
0,504137,9.438152313232422,15.782224655151367,18.69960594177246,-20.014575958251953
0,504137,0.8381131887435913,-5.254241943359375,-1.8565473556518555,-45.499534606933594
0,504137,9.690375328063965,1.1575862169265747,-33.172794342041016,-20.11167335510254
0,504138,-5.8808441162109375,-5.6622314453125,-3.08870530128479,24.739749908447266
0,504138,-1.8475886583328247,-22.992464065551758,28.654056549072266,-5.7760233879089355
0,504138,-1.4335685968399048,-10.50409984588623,-2.1711134910583496,9.657894134521484
0,504138,-5.594752311706543,21.711536407470703,-1.8849267959594727,25.973697662353516
0,504138,19.683408737182617,19.431177139282227,-0.6197366714477539,-23.19129753112793
0,504138,-13.219045639038086,9.949036598205566,-6.765864849090576,3.782714366912842
0,504139,-32.255428314208984,-17.88170623779297,19.07773208618164,6.672544002532959
0,504139,33.631290435791016,-15.427114486694336,-2.945861339569092,-37.69127655029297
0,504139,38.220848083496094,11.444735527038574,-14.683745384216309,-21.21078872680664
0,504139,-18.19125747680664,12.753192901611328,13.513847351074219,-19.72347068786621
0,504139,-14.915267944335938,-4.704719543457031,-6.239563465118408,-0.6161060333251953
0,504139,-7.693792819976807,-24.36810302734375,-10.331902503967285,40.10791015625
0,504140,-8.810918807983398,9.396408081054688,27.20897674560547,9.473675727844238
0,504140,-0.5985747575759888,8.486979484558105,12.312252044677734,-22.338329315185547
0,504140,-5.629652500152588,-13.63863468170166,-16.636194229125977,-9.284948348999023
0,504140,11.341459274291992,8.722676277160645,8.297585487365723,-2.292379379272461
0,504140,-3.107455015182495,7.046385288238525,36.235286712646484,-13.603307723999023
0,504140,4.142118453979492,6.3512420654296875,7.479203701019287,-0.6201964020729065
0,504141,37.64593505859375,7.074851036071777,-12.958230972290039,40.223087310791016
0,504141,-9.204168319702148,-9.028267860412598,-37.25849151611328,48.129817962646484
0,504141,-8.104448318481445,6.648824691772461,-30.9207763671875,10.693613052368164
0,504141,24.703369140625,-0.5159720182418823,20.24180030822754,-16.586904525756836
0,504141,-13.977105140686035,-2.0343122482299805,-6.551321983337402,12.895538330078125
0,504141,-27.28616714477539,21.090696334838867,-17.588001251220703,14.297477722167969
0,504142,-17.660083770751953,-22.024080276489258,-12.447455406188965,1.3179874420166016
0,504142,13.609824180603027,-17.763681411743164,-11.459454536437988,2.422363758087158
0,504142,11.85267162322998,9.26969051361084,11.407760620117188,-23.299694061279297
0,504142,-32.422176361083984,-14.288254737854004,0.786077618598938,-13.233187675476074
0,504142,-11.061014175415039,3.034538984298706,17.04499053955078,-21.2171688079834
0,504142,9.410439491271973,4.131908893585205,10.65868091583252,-50.38569641113281
0,504143,-20.264394760131836,-24.74338722229004,-23.42339515686035,-29.257122039794922
0,504143,-11.38272762298584,6.454268455505371,16.593427658081055,5.244990348815918
0,504143,42.391483306884766,28.88369369506836,26.35674285888672,-11.01247787475586
0,504143,15.753140449523926,5.064977169036865,0.7445299029350281,-40.94557189941406
0,504143,-27.604286193847656,-1.9302465915679932,-3.428128480911255,-36.285316467285156
0,504143,5.901330471038818,8.942214012145996,-2.8786821365356445,-35.08762741088867
0,504144,12.640314102172852,10.699055671691895,14.4131498336792,-14.193840026855469
0,504144,24.38534164428711,-6.7157816886901855,6.204720973968506,7.574281215667725
0,504144,36.7946662902832,7.381723880767822,1.5175306797027588,-20.44412612915039
0,504144,-16.88111114501953,14.684525489807129,5.580915451049805,-39.9284553527832
0,504144,-14.382047653198242,-17.846485137939453,-6.877676963806152,-20.487855911254883
0,504145,36.062374114990234,-0.7225492596626282,-5.352828025817871,-5.314821243286133
0,504145,4.558773517608643,8.213831901550293,17.395143508911133,0.30313342809677124
0,504145,-13.280930519104004,-23.95818328857422,6.177789688110352,1.35419499874115
0,504145,38.003883361816406,-7.596659183502197,-8.725451469421387,-35.386024475097656
0,504145,51.21623611450195,16.693525314331055,-9.045719146728516,-28.033241271972656
0,504145,-4.139825820922852,-2.8488080501556396,0.16603854298591614,24.54768180847168
0,504146,-31.49362564086914,-0.7481529712677002,17.78663444519043,5.664083480834961
0,504146,15.806957244873047,17.475263595581055,-1.762915849685669,-10.624200820922852
0,504146,8.903166770935059,-2.959472894668579,-11.818854331970215,8.167036056518555
0,504146,-31.382137298583984,16.493999481201172,1.9216312170028687,18.836565017700195
0,504146,-17.545352935791016,17.612215042114258,20.826223373413086,5.607297897338867
0,504146,4.446281433105469,-13.394246101379395,12.278688430786133,-5.783473014831543
0,504147,-6.261805534362793,-1.143559455871582,-14.904468536376953,11.486566543579102
0,504147,-32.34165573120117,-19.687999725341797,-18.37547492980957,25.122661590576172
0,504147,-14.333800315856934,-14.954378128051758,-8.100553512573242,19.619199752807617
0,504147,10.762580871582031,6.8224873542785645,12.275604248046875,-14.947654724121094
0,504147,-23.959774017333984,18.705570220947266,11.690177917480469,-12.756147384643555
0,504147,-19.37914276123047,14.273651123046875,-9.037113189697266,10.307223320007324
0,504148,35.72550964355469,-25.288776397705078,-0.48654139041900635,10.511272430419922
0,504148,21.27828025817871,-7.776556015014648,-12.022204399108887,30.380512237548828
0,504148,-26.501693725585938,-5.738640785217285,-12.153483390808105,19.19646453857422
0,504148,-3.8989768028259277,-11.44242000579834,12.548837661743164,-18.789037704467773
0,504148,20.507505416870117,24.528331756591797,6.535175800323486,-4.250176906585693
0,504150,25.969682693481445,12.56251049041748,17.36069679260254,-164.4063720703125
0,504150,32.34281539916992,-9.394658088684082,-0.6351299285888672,-135.0126953125
0,504150,-36.452030181884766,7.971137046813965,-26.425556182861328,201.76344299316406
0,504150,-42.40407180786133,-5.040133953094482,1.7866908311843872,90.80736541748047
0,504150,22.777545928955078,-19.18952751159668,-7.537447929382324,-73.3884506225586
0,504150,-4.034048557281494,3.0394399166107178,-16.088247299194336,38.09548568725586
0,504151,-15.872873306274414,-11.026758193969727,22.56792640686035,-1.7065260410308838
0,504151,33.82825469970703,8.627100944519043,0.5206881761550903,-57.13058853149414
0,599152,-1.906293511390686,16.172592163085938,-5.4201202392578125,47.12533187866211
0,599153,12.81165885925293,0.05686893314123154,48.50550842285156,-120.3689956665039
0,599153,45.74043655395508,11.826911926269531,-5.44481086730957,-138.58924865722656
0,599156,-95.69306182861328,-48.046016693115234,-123.53868103027344,476.0245056152344
0,599157,-130.75619506835938,-60.80827713012695,-122.37450408935547,655.6454467773438
0,599160,-119.75870513916016,-47.43678665161133,-72.59466552734375,462.2312316894531
0,599161,-80.73108673095703,-24.719289779663086,4.3352155685424805,172.37440490722656
0,599164,25.275386810302734,45.3298454284668,53.3131103515625,-54.18394470214844
0,599165,40.07842254638672,22.43930435180664,46.517547607421875,-166.56756591796875
0,599168,253.1571502685547,69.1925048828125,172.1861572265625,-1011.8619995117188
0,599170,207.96517944335938,91.26429748535156,143.09030151367188,-827.0867919921875
0,599172,-35.836021423339844,-4.82994270324707,29.465667724609375,-2.882018804550171
0,599174,66.57167053222656,14.646638870239258,37.1243896484375,-224.29605102539062
0,599176,-44.21689224243164,-24.039621353149414,-138.98501586914062,299.766845703125
0,599178,-182.1124725341797,-79.91111755371094,-188.13311767578125,708.06103515625
0,599180,-112.16878509521484,-46.64191436767578,-8.813826560974121,277.62335205078125
0,599182,-46.30642318725586,-41.85517120361328,43.90810775756836,95.5777816772461
0,599184,32.942649841308594,27.11639404296875,-13.449654579162598,72.41000366210938
0,599186,32.43241500854492,53.7708854675293,-9.886368751525879,-3.6374380588531494
0,599188,122.74310302734375,52.77053451538086,128.66441345214844,-643.2189331054688
0,599190,92.05420684814453,33.61566162109375,79.1754150390625,-417.0007019042969
0,599192,-28.98815155029297,-10.628745079040527,-47.922122955322266,146.80157470703125
0,599194,32.307701110839844,11.530231475830078,17.752456665039062,-194.92420959472656
0,599196,-80.7436752319336,-49.228736877441406,-47.95460891723633,314.7491455078125
0,599198,-119.73155212402344,-28.543079376220703,-75.32121276855469,561.9361572265625
0,599200,17.92424201965332,6.634763717651367,-4.715131759643555,3.4609177112579346
0,599202,75.22846221923828,-20.136133193969727,-23.50444221496582,-43.9628791809082
0,599205,-38.4288330078125,16.05756187438965,28.73824691772461,108.4244613647461
0,599206,-134.26634216308594,-20.869140625,-11.864081382751465,25.48621368408203
0,599399,137.1371307373047,8.763562202453613,-43.51092529296875,-418.5297546386719
0,599399,34.79500198364258,-7.8345232009887695,-14.386125564575195,101.32286071777344
0,599399,-223.5251007080078,-67.73285675048828,-62.478755950927734,778.3392333984375
0,599399,-9.201332092285156,26.346426010131836,18.331497192382812,29.768444061279297
0,599399,117.41856384277344,43.22476577758789,105.01425170898438,-505.7790832519531
0,599399,113.4042739868164,27.422183990478516,86.68624114990234,-454.7930908203125
0,599400,120.12454223632812,69.59160614013672,51.1839485168457,-425.16046142578125
0,599400,46.6680793762207,22.365060806274414,17.891706466674805,-208.63900756835938
0,599400,-37.2467155456543,-35.91374588012695,-3.6518361568450928,87.54371643066406
0,599400,-86.80079650878906,-26.95519256591797,-62.776817321777344,327.18035888671875
0,599400,-89.85647583007812,-26.8612060546875,-93.73332977294922,442.3162536621094
0,599401,-79.12679290771484,-48.88622283935547,-58.804508209228516,381.3930969238281
0,599401,-73.322265625,-47.55229187011719,-10.342061996459961,194.49795532226562
0,599401,5.546619892120361,24.27716827392578,35.373199462890625,-38.236358642578125
0,599401,65.50843048095703,56.282142639160156,49.85312271118164,-253.4379425048828
0,599401,81.63613891601562,14.591181755065918,52.169952392578125,-349.4691162109375
0,599401,71.5120620727539,21.184886932373047,39.72477722167969,-270.76702880859375
0,599402,22.959590911865234,20.18018913269043,8.43882942199707,-124.47904968261719
0,599402,-8.317649841308594,-12.498876571655273,-21.526607513427734,62.56319808959961
0,599402,-56.83126449584961,-23.303442001342773,-33.920379638671875,230.99032592773438
0,599402,-55.29539489746094,-27.800960540771484,-40.837120056152344,267.2087097167969
0,599402,-29.99295425415039,-20.31626319885254,-57.794673919677734,204.41685485839844
0,599402,-34.138057708740234,8.84298324584961,-34.0836067199707,98.63885498046875
0,599403,17.793794631958008,3.5180771350860596,16.900768280029297,-19.618576049804688
0,599403,35.83586502075195,-24.56000518798828,42.699546813964844,-162.55162048339844
0,599403,29.876455307006836,20.51218605041504,39.117671966552734,-219.3737335205078
0,599403,71.43458557128906,43.252349853515625,29.752012252807617,-197.8423309326172
0,599403,45.74252700805664,7.67937707901001,14.922557830810547,-139.7599639892578
0,599404,-18.97965431213379,-19.135818481445312,-2.116608142852783,5.659698963165283
0,599404,-43.280845642089844,-15.049921035766602,-0.2063000649213791,95.34600067138672
0,599404,-10.536905288696289,20.972816467285156,-20.18979263305664,120.60984802246094
0,599404,-9.640059471130371,-4.327858924865723,-17.50835609436035,127.07453155517578
0,599404,-42.82350540161133,-24.160137176513672,17.63935661315918,48.256385803222656
0,599404,-3.5672640800476074,12.58495807647705,2.5007693767547607,-43.8382682800293
0,599405,33.95510482788086,-5.177582263946533,11.700017929077148,-110.68975067138672
0,599405,44.08756637573242,-14.054387092590332,28.0989990234375,-145.09524536132812
0,599405,21.30884552001953,56.88389205932617,28.346359252929688,-112.0685043334961
0,599405,1.509267807006836,15.7942533493042,12.080670356750488,-59.790340423583984
0,599405,16.07672882080078,-47.736358642578125,-21.069509506225586,-5.665543079376221
0,599405,-3.3008413314819336,-1.1060603857040405,-14.44853401184082,26.665142059326172
0,599406,-16.09175682067871,16.89082145690918,-26.693357467651367,72.95307922363281
0,599406,-19.400615692138672,10.355710983276367,-20.570743560791016,104.22297668457031
0,599406,-28.87661361694336,-25.415729522705078,17.364381790161133,46.69776153564453
0,599406,19.186553955078125,-3.9994540214538574,18.539949417114258,-24.41838836669922
0,599406,54.57796096801758,37.9369010925293,-0.0064744120463728905,-76.50377655029297
0,599406,27.564971923828125,5.526322364807129,11.722251892089844,-97.2296371459961
0,599407,12.575721740722656,-7.437671661376953,7.683536529541016,-60.162384033203125
0,599407,-10.249292373657227,3.9399328231811523,9.502257347106934,-3.187744617462158
0,599407,-22.10040855407715,11.746310234069824,20.078855514526367,8.975003242492676
0,599407,-17.25496482849121,-8.578503608703613,-33.96145248413086,35.874698638916016
0,599407,-28.544126510620117,-26.221393585205078,-33.948036193847656,89.02978515625
0,599407,-15.871711730957031,-4.166717529296875,10.83932113647461,59.705989837646484
0,599408,5.54595947265625,22.447546005249023,-4.9337968826293945,1.6802582740783691
0,599408,-6.622597694396973,1.1342108249664307,-16.064388275146484,7.639327526092529
0,599408,-39.97779083251953,-21.834625244140625,4.718363285064697,11.502928733825684
0,599408,3.322113275527954,9.76072883605957,26.587038040161133,-34.28790283203125
0,599408,32.437076568603516,5.564147472381592,14.964406967163086,-45.5172119140625
0,599408,-0.7017314434051514,-14.234996795654297,-22.69255828857422,-22.70175552368164
0,599409,-8.210371971130371,22.64373016357422,-11.967732429504395,13.84768295288086
0,599409,5.03482723236084,19.403718948364258,4.3693389892578125,35.28096389770508
0,599409,21.23933219909668,-27.653018951416016,-17.158964157104492,30.308618545532227
0,599409,-19.556455612182617,-17.364791870117188,-15.978809356689453,53.86823272705078
0,599409,-31.69156837463379,4.612159729003906,9.516881942749023,29.364025115966797
0,599409,11.383495330810547,2.2193081378936768,8.242264747619629,-14.05257797241211
0,599410,18.9842472076416,-9.460732460021973,-12.179146766662598,-17.413719177246094
0,599410,15.034004211425781,-1.455653190612793,-10.148100852966309,-47.519412994384766
0,599410,3.767489433288574,31.153018951416016,26.31951332092285,-41.194190979003906
0,599410,-10.052314758300781,-12.136624336242676,14.878183364868164,22.28976058959961
0,599410,12.543269157409668,-33.49669647216797,-25.294166564941406,23.267711639404297
0,599410,7.580435752868652,13.894613265991211,-4.542633056640625,11.551846504211426
0,599411,-32.3721809387207,-11.348196029663086,14.828481674194336,40.378658294677734
0,599411,2.286292314529419,-8.91129207611084,-3.8058736324310303,35.75338363647461
0,599411,25.36355209350586,9.927348136901855,-28.791797637939453,-0.8122770190238953
0,599411,-16.576404571533203,-7.994000434875488,9.33210563659668,-6.358668327331543
0,599411,-1.8903580904006958,17.30885124206543,22.859657287597656,-10.375838279724121
0,599411,16.12604522705078,20.407440185546875,-8.64453125,-54.25984191894531
0,599412,11.239738464355469,9.480241775512695,39.5286865234375,-46.74164962768555
0,599412,40.33647537231445,5.461602687835693,31.722248077392578,-42.58641815185547
0,599412,24.123104095458984,-9.469292640686035,-30.630117416381836,-39.69913864135742
0,599412,-28.225006103515625,-8.616494178771973,-15.818746566772461,38.149505615234375
0,599412,-18.41379165649414,10.624849319458008,5.707015037536621,34.72380828857422
0,599413,5.919342994689941,-2.4316930770874023,-21.734725952148438,-12.881309509277344
0,599413,-7.391579627990723,-17.2666015625,-8.789129257202148,8.334529876708984
0,599413,-10.672934532165527,7.588236331939697,28.68285369873047,2.2376880645751953
0,599413,-13.85555362701416,-2.518242597579956,-15.263618469238281,12.06082820892334
0,599413,-41.37900924682617,-20.04093360900879,-20.91484832763672,47.92121505737305
0,599413,-17.11016082763672,8.069744110107422,4.250981330871582,9.29209041595459
0,599414,7.939616680145264,19.5822696685791,-5.484915256500244,16.66390609741211
0,599414,-21.685903549194336,-8.218008041381836,-7.304715156555176,64.15826416015625
0,599414,-14.964668273925781,-29.619951248168945,-11.761335372924805,9.916398048400879
0,599414,-6.677760124206543,-8.71674919128418,5.279932022094727,21.2934627532959
0,599414,-4.717637538909912,30.979450225830078,-0.9468874335289001,56.73076629638672
0,599414,4.457065582275391,1.0252617597579956,-13.033089637756348,5.620655536651611
0,599415,-10.059703826904297,-21.68113136291504,-6.400736331939697,16.187196731567383
0,599415,9.369847297668457,5.413804531097412,0.17981186509132385,6.844779968261719
0,599415,28.287494659423828,13.422249794006348,0.9288236498832703,-11.93408203125
0,599416,-61.10149383544922,-19.820331573486328,-67.45579528808594,241.41226196289062
0,599416,-64.41722869873047,-49.19147872924805,-49.59144592285156,241.50746154785156
0,599417,37.57753372192383,18.21927833557129,65.9047622680664,-196.06008911132812
0,599417,37.95561981201172,36.02392578125,39.363197326660156,-127.222900390625
0,599417,13.5416898727417,-31.86157989501953,-18.302227020263672,77.99232482910156
0,599417,-10.562944412231445,-7.567896842956543,5.778324127197266,-9.825522422790527
0,599417,13.008750915527344,38.96213912963867,14.377434730529785,-22.460241317749023
0,599417,24.663606643676758,1.1931555271148682,-7.373273849487305,-15.509942054748535
0,599418,-11.30480670928955,-9.578734397888184,16.061481475830078,-32.2170295715332
0,599419,-33.45439910888672,0.265747606754303,-1.3473217487335205,135.3011932373047
0,599420,-54.789634704589844,-22.594324111938477,-52.31520462036133,278.1242980957031
0,599421,30.768218994140625,-3.8558664321899414,-3.240485429763794,52.92859649658203
0,599424,-38.866268157958984,-55.32991409301758,-20.549768447875977,75.74381256103516
0,599425,-45.69499588012695,-34.67987060546875,21.75885581970215,-145.1403045654297
0,599428,273.5318603515625,159.5343475341797,212.4785919189453,-1006.6076049804688
0,599430,184.9528350830078,110.54972839355469,120.21794891357422,-720.2551879882812
0,599432,-41.71683120727539,-22.79759979248047,-25.969255447387695,-25.544790267944336
0,599434,31.096446990966797,-5.078151226043701,20.282268524169922,-131.84519958496094
0,599436,-30.629230499267578,-37.53843307495117,-148.52381896972656,529.01513671875
0,599438,-174.18829345703125,-40.169681549072266,-194.5114288330078,847.8933715820312
0,599440,-183.249755859375,-47.10541534423828,0.13245776295661926,251.97073364257812
0,599442,-58.20326614379883,-52.09347915649414,23.36057472229004,132.92288208007812
0,599444,12.622991561889648,-22.849647521972656,-34.97809600830078,115.3045654296875
0,599446,53.6469841003418,-4.449760913848877,18.143327713012695,-110.18244171142578
0,599448,166.32298278808594,125.0243911743164,179.49034118652344,-660.6758422851562
0,599450,78.40314483642578,98.39486694335938,101.43460845947266,-420.49609375
0,599452,-23.675039291381836,-59.75410842895508,-48.268707275390625,92.47042083740234
0,599454,46.67427062988281,-33.23052215576172,-24.868465423583984,-208.74114990234375
0,599456,-67.17963409423828,-19.72809410095215,-120.46487426757812,362.7333984375
0,599458,-155.25711059570312,-35.36656188964844,-100.32829284667969,624.9756469726562
0,599460,-43.107906341552734,3.2003066539764404,61.88260269165039,-3.4509541988372803
0,599462,32.53279113769531,6.163870334625244,13.612434387207031,35.49336624145508
0,599464,27.049663543701172,-28.594980239868164,-60.88269805908203,97.65831756591797
0,599466,-9.358858108520508,-9.95956039428711,18.019031524658203,-140.8773651123047
0,599468,95.43262481689453,73.94546508789062,132.99234008789062,-552.49169921875
0,599470,86.41961669921875,19.17807960510254,49.59589385986328,-212.89797973632812
0,599665,-384.91351318359375,-158.64134216308594,-310.6554260253906,1305.301025390625
0,599665,-298.9202575683594,-107.17638397216797,-210.15574645996094,851.3951416015625
0,599665,348.1170654296875,127.10941314697266,285.5326843261719,-1118.1710205078125
0,599665,258.1175842285156,117.7553939819336,204.70254516601562,-882.8876953125
0,599665,33.426212310791016,15.866896629333496,44.577293395996094,-214.52525329589844
0,599665,65.21025848388672,38.079708099365234,60.93141555786133,-266.98809814453125
0,599666,1.0276850461959839,15.456693649291992,-36.59444046020508,83.26866149902344
0,599666,-49.11227798461914,-29.068866729736328,-70.50970458984375,335.1144104003906
0,599666,-82.23458862304688,-34.810359954833984,-57.69135284423828,376.2659912109375
0,599666,-55.12950134277344,-29.958688735961914,-14.356782913208008,293.2630615234375
0,599666,-3.3506529331207275,-9.107403755187988,-1.6188783645629883,90.94325256347656
0,599666,65.23285675048828,25.60973358154297,34.92567825317383,-138.75405883789062
0,599667,79.72430419921875,13.420333862304688,80.66802978515625,-274.0823669433594
0,599667,31.642574310302734,-20.424819946289062,31.234039306640625,-279.3582458496094
0,599667,20.27423095703125,30.702518463134766,-6.796600341796875,-206.4965057373047
0,599667,23.98771858215332,51.03776168823242,-2.888685464859009,-54.427772521972656
0,599667,-10.598520278930664,-25.69457244873047,-46.36812210083008,102.62520599365234
0,599667,-65.27864074707031,-50.08738708496094,-72.39669799804688,189.6500701904297
0,599668,-64.63633728027344,-25.3619327545166,-38.66287612915039,246.041015625
0,599668,-27.415706634521484,-6.377963066101074,-15.068135261535645,205.1160430908203
0,599668,-8.559158325195312,-8.860817909240723,-4.079334735870361,56.7578125
0,599668,-0.600875735282898,-2.455054759979248,12.78502368927002,-84.05197143554688
0,599668,28.266319274902344,30.41995620727539,34.74105453491211,-170.9847869873047
0,599669,52.0455207824707,21.91104507446289,47.992244720458984,-205.64492797851562
0,599669,23.879804611206055,-8.33207893371582,12.951518058776855,-172.7569122314453
0,599669,-13.409798622131348,11.708772659301758,-15.548552513122559,-61.51819610595703
0,599669,1.4339263439178467,14.606499671936035,-6.865834712982178,64.9117431640625
0,599669,9.259302139282227,-28.35372543334961,-27.63280487060547,142.52906799316406
0,599669,-31.496109008789062,-8.378106117248535,-26.429855346679688,187.0048828125
0,599670,-14.597068786621094,5.5506591796875,-2.7236385345458984,175.27598571777344
0,599670,18.831632614135742,-10.167487144470215,-1.1690640449523926,44.79757308959961
0,599670,-6.93311882019043,3.1697821617126465,31.486860275268555,-54.37050247192383
0,599670,2.0242350101470947,20.855831146240234,45.632808685302734,-68.36354064941406
0,599670,33.8318977355957,24.418123245239258,4.295927047729492,-77.27700805664062
0,599670,2.754624843597412,-5.855745315551758,-1.1486107110977173,-42.36219024658203
0,599671,-48.41098403930664,-10.278854370117188,-4.567796230316162,5.978662014007568
0,599671,-40.616600036621094,1.8789464235305786,-9.841755867004395,47.36814880371094
0,599671,-21.916032791137695,-0.3900313675403595,-14.505084991455078,70.19501495361328
0,599671,-28.0318603515625,-9.769855499267578,-58.29424285888672,52.54133224487305
0,599671,-15.656137466430664,-19.68219566345215,-24.119205474853516,-4.7398529052734375
0,599671,-4.470999240875244,2.5810656547546387,19.31598472595215,-41.2178955078125
0,599672,0.23759829998016357,0.663485050201416,-7.2312092781066895,-65.39353942871094
0,599672,18.71660614013672,-6.992805004119873,23.393470764160156,-106.1075210571289
0,599672,43.80979537963867,-1.2860815525054932,25.536558151245117,-120.49222564697266
0,599672,16.804746627807617,5.597517013549805,-20.351001739501953,-64.02804565429688
0,599672,8.041755676269531,9.184636116027832,-9.871208190917969,-0.9537060260772705
0,599672,18.8319149017334,-20.38029670715332,-3.3325960636138916,-3.730633497238159
0,599673,-16.352811813354492,-6.683849334716797,-14.724472045898438,44.7689094543457
0,599673,-11.399415969848633,23.543127059936523,-1.0615202188491821,63.970401763916016
0,599673,-15.049559593200684,-16.97627830505371,15.090840339660645,39.12594985961914
0,599673,-29.186542510986328,-12.676034927368164,4.89711332321167,37.3076171875
0,599673,6.399280548095703,17.7960262298584,-13.196316719055176,-12.81675910949707
0,599673,18.10246467590332,-3.1276493072509766,-1.1099952459335327,-16.02050018310547
0,599674,9.445281982421875,16.69444465637207,25.842397689819336,-10.611827850341797
0,599674,-1.5450009107589722,0.061549052596092224,1.109298586845398,2.7400455474853516
0,599674,-20.04389762878418,-21.497194290161133,-5.074735164642334,47.68153381347656
0,599674,3.7578704357147217,36.587406158447266,22.192508697509766,39.562110900878906
0,599674,19.78634262084961,9.868896484375,-7.08196496963501,61.903324127197266
0,599674,1.0678884983062744,-53.492923736572266,-28.648670196533203,67.41262817382812
0,599675,-4.605318546295166,-22.833934783935547,-4.749515056610107,43.63601303100586
0,599675,0.38187697529792786,13.135951042175293,1.7756081819534302,41.842098236083984
0,599675,-17.064897537231445,13.57454776763916,9.769920349121094,26.388242721557617
0,599675,19.815404891967773,11.974274635314941,14.505778312683105,-4.515032768249512
0,599675,30.819597244262695,-4.932593822479248,-13.061895370483398,-32.1989860534668
0,599675,-35.67184829711914,-23.848724365234375,-18.173341751098633,-1.8868199586868286
0,599676,-22.588579177856445,2.7712173461914062,-0.1568792462348938,13.698261260986328
0,599676,-4.771613597869873,12.734207153320312,15.575982093811035,1.6496860980987549
0,599676,-9.955062866210938,2.0290021896362305,-1.4633477926254272,22.213035583496094
0,599676,-15.881006240844727,8.57722282409668,-22.638477325439453,15.136181831359863
0,599676,-42.92124938964844,-12.691591262817383,13.193965911865234,2.2194902896881104
0,599676,18.327396392822266,-9.120705604553223,3.7871761322021484,0.9404041767120361
0,599677,44.91383361816406,24.73145294189453,-2.280947208404541,8.196366310119629
0,599677,-22.90001106262207,-0.12718184292316437,21.3857421875,-4.305652141571045
0,599677,-11.375040054321289,-26.49578857421875,-13.093574523925781,-39.386844635009766
0,599677,12.457200050354004,14.429633140563965,6.349508285522461,-5.053817272186279
0,599677,17.21400260925293,12.979971885681152,23.526153564453125,2.3464407920837402
0,599677,-15.64289665222168,-28.92917251586914,-18.292713165283203,-21.877119064331055
0,599678,-21.911928176879883,5.875853538513184,-3.1496052742004395,18.173383712768555
0,599678,35.969520568847656,31.477466583251953,-10.570741653442383,17.547645568847656
0,599678,-1.3358503580093384,-21.42850112915039,-32.751163482666016,-8.681868553161621
0,599678,-25.089231491088867,-28.022737503051758,11.43588924407959,4.164156436920166
0,599678,20.66065216064453,24.68096923828125,17.42999839782715,-12.396728515625
0,599678,36.13959884643555,29.413864135742188,-4.215353488922119,-41.329341888427734
0,599679,20.84920310974121,-17.78792381286621,-4.061903476715088,-52.99987030029297
0,599679,2.884509325027466,-18.007904052734375,-2.369476556777954,17.541576385498047
0,599679,17.38422966003418,28.02768325805664,-5.958996295928955,72.07843017578125
0,599679,34.08638381958008,29.41714096069336,10.768949508666992,-21.243297576904297
0,599679,-22.403915405273438,-19.053119659423828,13.55699348449707,-39.38425064086914
0,599680,-68.70909118652344,-39.783103942871094,-4.460351943969727,16.134090423583984
0,599680,12.321431159973145,7.620258808135986,-3.789900302886963,13.39789867401123
0,599680,30.72963523864746,15.466361045837402,-15.031770706176758,13.008709907531738
0,599680,-49.733638763427734,-0.6617113947868347,10.241365432739258,-1.4054830074310303
0,599680,-12.686567306518555,24.78534698486328,29.4934139251709,-19.49275016784668
0,599680,36.79767990112305,3.4048874378204346,-2.30985951423645,-0.853110671043396
0,599681,-7.28036642074585,-16.152294158935547,-9.433706283569336,-11.918866157531738
0,599681,-14.769014358520508,10.047551155090332,11.909431457519531,-16.580101013183594
0,599681,16.25107765197754,5.735424041748047,8.283687591552734,-9.757698059082031
0,599682,-82.71031951904297,1.4950462579727173,-66.9181900024414,218.52671813964844
0,599682,-86.20227813720703,16.7332763671875,-59.538848876953125,236.98077392578125
0,599683,85.642578125,-15.798948287963867,40.56102752685547,-202.42433166503906
0,599683,50.923919677734375,-18.382343292236328,37.6037712097168,-141.69752502441406
0,599683,-33.21780014038086,20.677040100097656,15.626388549804688,59.36551284790039
0,599683,-4.185069561004639,-11.50693130493164,-0.34731703996658325,-43.69016647338867
0,599683,25.34515953063965,-42.94308090209961,-19.760313034057617,-24.542207717895508
0,599683,7.244576930999756,-3.5278432369232178,18.699148178100586,-18.411479949951172
0,599684,-6.761658191680908,36.9257698059082,31.645540237426758,-75.22256469726562
0,599685,78.7362289428711,10.361562728881836,41.35738754272461,-168.3948211669922
0,599686,116.05606079101562,-17.349475860595703,112.9842529296875,-396.5038757324219
0,599687,79.80683135986328,29.461864471435547,151.38331604003906,-427.7375183105469
0,599690,97.49063110351562,42.76089096069336,41.75529479980469,-442.860107421875
0,599692,61.084476470947266,-20.851293563842773,-107.68048095703125,-229.97219848632812
0,599694,-24.626325607299805,-17.385482788085938,-87.8365707397461,321.4678955078125
0,599696,-111.71330261230469,2.457209348678589,-64.74494171142578,462.53399658203125
0,599698,-282.4923400878906,-89.85807800292969,-189.8854522705078,808.44873046875
0,599700,-189.1420135498047,-59.5140266418457,-108.86402130126953,672.3621215820312
0,599702,13.263484954833984,79.69815063476562,61.66789245605469,188.08792114257812
0,599704,22.551467895507812,-6.741578102111816,9.238274574279785,215.786376953125
0,599706,123.07003021240234,-6.113542556762695,85.94193267822266,-527.702880859375
0,599708,111.56929779052734,83.0627670288086,131.7216796875,-741.1292114257812
0,599710,91.53053283691406,8.467602729797363,-1.5011988878250122,-147.44525146484375
0,599712,71.1778793334961,43.197689056396484,27.14760971069336,-44.154335021972656
0,599714,-129.92225646972656,14.7837495803833,18.642364501953125,-86.85092163085938
0,599716,-100.07858276367188,-68.45257568359375,-89.80794525146484,-135.35443115234375
0,599719,-8.785834312438965,-74.78172302246094,-171.80702209472656,289.6597900390625
0,599720,-19.928918838500977,-48.394622802734375,-44.50056076049805,566.8616333007812
0,599723,-42.550506591796875,6.614473342895508,82.9283218383789,829.0192260742188
0,599724,-10.207080841064453,-35.16303634643555,-45.35621643066406,458.4015197753906
0,599727,92.34169006347656,55.12942123413086,119.41876220703125,-1382.2738037109375
0,599728,-11.999064445495605,117.30060577392578,178.54824829101562,-1030.6004638671875
0,599731,55.004234313964844,-15.608914375305176,-92.26019287109375,424.9889221191406
0,599732,122.97926330566406,-24.854063034057617,-12.091711044311523,-4.279435157775879
0,599733,-102.5941162109375,86.3424301147461,132.00439453125,-28.59836769104004
0,599736,-45.88431167602539,12.957539558410645,-119.61600494384766,519.535888671875
0,599929,47.17618942260742,-95.6545639038086,-30.330738067626953,116.29804992675781
0,599930,49.352325439453125,39.13457489013672,274.65179443359375,-704.1761474609375
0,599930,91.15870666503906,66.05579376220703,-33.518741607666016,-473.1637878417969
0,599930,-21.55194091796875,-41.32539749145508,-175.03221130371094,232.69622802734375
0,599930,-115.42955017089844,-53.88917541503906,-74.72400665283203,457.1927795410156
0,599930,-96.42969512939453,-29.714914321899414,-102.50988006591797,535.0314331054688
0,599930,-60.341983795166016,-32.01572036743164,-54.10023880004883,418.3710632324219
0,599931,-28.480985641479492,-30.890342712402344,-28.670747756958008,142.3743438720703
0,599931,17.398040771484375,-5.542649269104004,45.30729675292969,-129.1290283203125
0,599931,84.50519561767578,33.76240539550781,107.21607208251953,-383.7591552734375
0,599931,93.22383117675781,45.60111618041992,77.1529312133789,-512.8310546875
0,599931,56.911746978759766,17.85200309753418,41.70292663574219,-405.25616455078125
0,599931,29.92815399169922,1.4417088031768799,-13.399748802185059,-158.07351684570312
0,599932,-32.898963928222656,-2.411527633666992,-39.91975021362305,107.68223571777344
0,599932,-56.001243591308594,-6.898900508880615,-45.45708084106445,280.4169921875
0,599932,-37.26068115234375,-35.39370346069336,-68.47221374511719,346.79217529296875
0,599932,-56.32256317138672,-24.663198471069336,-32.685054779052734,285.2349853515625
0,599932,-23.202659606933594,2.804527759552002,6.709852695465088,109.75665283203125
0,599932,19.716541290283203,5.046367645263672,37.129241943359375,-56.276275634765625
0,599933,34.708740234375,23.933805465698242,64.9959716796875,-199.43968200683594
0,599933,63.70600128173828,21.365436553955078,41.76708221435547,-257.39178466796875
0,599933,48.30458450317383,14.973289489746094,5.1644721031188965,-199.4918212890625
0,599933,-13.217409133911133,7.155797004699707,-30.528844833374023,-78.80473327636719
0,599933,-43.13256072998047,-12.281654357910156,-24.34427261352539,112.31592559814453
0,599933,-36.04582977294922,-0.16932669281959534,-22.5858097076416,216.21267700195312
0,599934,-38.16619873046875,-16.500934600830078,-50.97074508666992,218.75576782226562
0,599934,-21.464231491088867,-27.544891357421875,-14.71333122253418,229.23854064941406
0,599934,-30.420822143554688,4.76350736618042,17.964797973632812,113.43186950683594
0,599934,-9.814812660217285,-10.683059692382812,16.795146942138672,-54.31595230102539
0,599934,39.47592544555664,7.365117073059082,18.853302001953125,-122.96564483642578
0,599935,28.410972595214844,28.026517868041992,-12.309032440185547,-122.56905364990234
0,599935,6.598841190338135,-4.816860675811768,0.16425463557243347,-71.4140853881836
0,599935,14.717933654785156,10.647513389587402,9.993935585021973,-12.657978057861328
0,599935,14.506041526794434,-1.390413761138916,-28.23390769958496,56.66545486450195
0,599935,-34.24964904785156,-20.50542640686035,-10.246214866638184,114.54422760009766
0,599935,-52.930789947509766,-16.608787536621094,-9.00438117980957,98.27806854248047
0,599936,-39.34320068359375,-21.016817092895508,-16.77756118774414,63.779273986816406
0,599936,-10.125946044921875,16.003511428833008,13.829316139221191,48.32084274291992
0,599936,35.6331901550293,-6.129485130310059,17.52345848083496,3.103332996368408
0,599936,22.399005889892578,-15.888548851013184,28.965864181518555,-96.3503646850586
0,599936,-2.2282276153564453,32.32221221923828,12.711078643798828,-157.5366668701172
0,599936,19.35405158996582,8.832077980041504,-13.045694351196289,-97.52259826660156
0,599937,15.583036422729492,2.944420099258423,30.358732223510742,-15.846787452697754
0,599937,-9.665340423583984,29.902175903320312,3.3654263019561768,-0.6557013392448425
0,599937,6.060856342315674,-10.556831359863281,-60.53359603881836,31.276416778564453
0,599937,-19.20793914794922,-42.618919372558594,-11.997875213623047,80.4856948852539
0,599937,-29.370193481445312,2.0919666290283203,21.90755271911621,47.46232223510742
0,599937,30.71445083618164,39.251548767089844,-14.17232608795166,9.17220401763916
0,599938,7.21690034866333,5.762670516967773,3.4941632747650146,-19.723857879638672
0,599938,-6.231312274932861,-24.44948959350586,23.997758865356445,-49.88040542602539
0,599938,17.797935485839844,22.736509323120117,0.6747942566871643,-31.278383255004883
0,599938,24.623689651489258,27.82177734375,8.826350212097168,-31.096446990966797
0,599938,24.29075813293457,-21.643638610839844,19.909162521362305,-31.402591705322266
0,599938,-8.473372459411621,-15.354146003723145,0.330031156539917,2.9696948528289795
0,599939,-13.387317657470703,0.7534867525100708,-10.318696022033691,38.22753143310547
0,599939,-22.711946487426758,-20.4029541015625,-4.703567028045654,71.6362533569336
0,599939,-15.268046379089355,11.266427040100098,5.66754150390625,25.865753173828125
0,599939,15.356371879577637,16.382898330688477,0.20384910702705383,-8.375377655029297
0,599939,6.16419792175293,-25.56841468811035,-3.7406885623931885,14.804238319396973
0,599939,1.1457769870758057,0.1975400298833847,1.5297268629074097,-31.168418884277344
0,599940,22.39076805114746,15.415507316589355,-2.8535752296447754,-62.63045120239258
0,599940,19.16663360595703,-8.846429824829102,9.732081413269043,-37.7953987121582
0,599940,-22.64799690246582,-34.020442962646484,22.120004653930664,-7.531883239746094
0,599940,-36.39754104614258,8.54731559753418,17.223432540893555,1.4033524990081787
0,599940,4.509461879730225,20.617109298706055,-13.294146537780762,-4.403479099273682
0,599940,8.720294952392578,-20.935283660888672,-21.684907913208008,8.213970184326172
0,599941,-11.589763641357422,-2.0762155055999756,1.2476494312286377,3.1299593448638916
0,599941,16.429458618164062,-10.430166244506836,-4.0130696296691895,-0.34629344940185547
0,599941,0.15742915868759155,-14.746417999267578,-11.187604904174805,31.800090789794922
0,599941,-15.807924270629883,27.174087524414062,-5.641754150390625,43.32284164428711
0,599941,2.034069538116455,18.937747955322266,8.981524467468262,39.54792404174805
0,599942,-9.369715690612793,-17.058475494384766,-3.046236276626587,-6.856603145599365
0,599942,-9.803086280822754,-9.463942527770996,-17.570035934448242,-33.82813262939453
0,599942,1.591007113456726,16.0128116607666,2.763709783554077,28.177452087402344
0,599942,26.940662384033203,-11.283157348632812,-6.435542583465576,42.175350189208984
0,599942,18.864534378051758,-8.17112922668457,-3.9021434783935547,24.51129722595215
0,599942,11.760542869567871,26.406240463256836,26.049724578857422,2.9553165435791016
0,599942,43.20936584472656,14.697497367858887,20.090967178344727,-9.420064926147461
0,599943,55.21826934814453,22.92414665222168,6.455641746520996,-10.778573036193848
0,599943,25.709360122680664,-0.2915284335613251,-0.28882068395614624,-74.07530212402344
0,599943,-26.094865798950195,-11.557207107543945,-5.524905204772949,-82.05075073242188
0,599943,-25.48198127746582,4.49448823928833,21.170326232910156,-31.575660705566406
0,599943,-1.106469988822937,4.620321750640869,25.163606643676758,-45.64327621459961
0,599943,-12.309004783630371,2.237575054168701,-7.968876838684082,-34.18111038208008
0,599944,-41.828369140625,-8.908720016479492,7.513495445251465,-12.183435440063477
0,599944,-24.7296199798584,1.106096863746643,3.0153496265411377,-23.65109634399414
0,599944,-21.84822654724121,-5.704163074493408,-14.289804458618164,5.39607572555542
0,599944,-29.830224990844727,-23.663253784179688,9.617175102233887,-8.341887474060059
0,599944,16.034448623657227,-2.3384432792663574,-11.67067813873291,-41.018463134765625
0,599945,16.919025421142578,4.795256614685059,-24.435440063476562,-37.443519592285156
0,599945,-10.873430252075195,-28.55942726135254,12.58761215209961,-35.61076736450195
0,599945,-6.350825786590576,7.020717620849609,26.449769973754883,-26.550018310546875
0,599945,19.107223510742188,4.328314304351807,-10.201253890991211,-7.456799507141113
0,599945,25.278879165649414,-31.418920516967773,-19.408714294433594,11.332700729370117
0,599945,1.1934067010879517,24.41224479675293,1.9512007236480713,5.831157684326172
0,599946,1.6992253065109253,22.189281463623047,-15.417819023132324,6.108796119689941
0,599946,4.237751007080078,-4.3105573654174805,-11.6519193649292,3.1533877849578857
0,599947,98.49746704101562,91.07444763183594,37.96989440917969,-190.48562622070312
0,599947,97.6287841796875,92.72293853759766,41.3534049987793,-145.4188995361328
0,599947,-95.9991683959961,-35.67220687866211,-17.22927474975586,193.39047241210938
0,599947,-67.45361328125,-39.568260192871094,-24.290916442871094,122.10895538330078
0,599948,9.040020942687988,-6.837226867675781,11.002205848693848,-0.3747718930244446
0,599948,-14.445002555847168,-5.151421546936035,8.47459888458252,50.1038703918457
0,599948,-4.442083835601807,10.442094802856445,-8.746826171875,42.08537673950195
0,599948,-19.25806999206543,-19.18174171447754,3.6317269802093506,24.08757209777832
0,599949,-40.91550064086914,-49.65784454345703,23.273822784423828,-430.48583984375
0,599950,-22.006757736206055,-21.508827209472656,2.680955171585083,-395.10955810546875
0,599952,153.39822387695312,33.18562316894531,76.67523193359375,203.2406463623047
0,599954,109.66999053955078,6.506923198699951,14.467378616333008,-8.190299034118652
0,599956,-290.97509765625,-75.99217224121094,-293.06390380859375,746.7823486328125
0,599958,-277.6416931152344,-50.249908447265625,-236.3453826904297,1243.7982177734375
0,599960,36.58638381958008,24.913114547729492,91.8879623413086,-72.47367095947266
0,599962,125.90433502197266,-8.03603458404541,143.80081176757812,-253.4208526611328
0,599964,152.15431213378906,-2.5102853775024414,61.74139404296875,145.1622772216797
0,599966,-0.1300753504037857,82.65834045410156,72.64266967773438,-356.82427978515625
0,599968,36.09065246582031,58.61597442626953,53.68635177612305,-885.017333984375
0,599970,175.3788299560547,4.954983711242676,4.653253078460693,-404.96820068359375
0,599972,-7.647982120513916,-20.647817611694336,53.63565444946289,107.92774200439453
0,599974,11.474869728088379,-28.45407485961914,61.93814468383789,-192.76954650878906
0,599976,-67.40413665771484,-38.161502838134766,-139.83572387695312,230.955322265625
0,599978,-184.5484161376953,-33.31125259399414,-144.96548461914062,441.2891845703125
0,599980,-82.02983856201172,-9.425521850585938,65.72441101074219,154.25047302246094
0,599982,-18.175174713134766,-6.237365245819092,3.6987035274505615,348.6241760253906
0,599984,-0.2859768569469452,-24.526355743408203,-260.51336669921875,188.36856079101562
0,599986,68.15864562988281,0.12859800457954407,-59.97441482543945,-201.01724243164062
0,599988,230.97438049316406,111.30925750732422,529.0789794921875,-632.0808715820312
0,599990,117.24442291259766,76.3975601196289,256.9997253417969,-349.5076599121094
0,599992,-53.23106002807617,-38.70255661010742,-275.4712829589844,84.03778076171875
0,599994,-88.55738830566406,-20.420665740966797,-63.66724395751953,-107.96683502197266
0,599997,-192.24075317382812,1.2588571310043335,-58.55927276611328,525.8965454101562
0,599998,-106.4690933227539,-24.589046478271484,-162.68162536621094,331.6954345703125
0,600001,113.60356140136719,-26.501272201538086,27.849498748779297,-684.5064086914062
0,600194,388.80908203125,74.57074737548828,401.37646484375,-987.4238891601562
0,600194,249.5041961669922,76.12882995605469,302.2092590332031,-385.42791748046875
0,600195,-345.1701965332031,-82.92513275146484,-407.3274841308594,1047.08740234375
0,600195,-267.9223937988281,-87.41779327392578,-305.99658203125,912.9744873046875
0,600195,-20.7952938079834,-26.986217498779297,22.59247589111328,257.6517639160156
0,600195,-38.06843566894531,9.532800674438477,-37.41802215576172,230.92373657226562
0,600195,80.2503890991211,23.52104949951172,52.017704010009766,-77.88906860351562
0,600195,131.9031219482422,13.461699485778809,102.23802185058594,-266.9812927246094
0,600196,83.55352020263672,30.032114028930664,39.185237884521484,-290.9038391113281
0,600196,8.280826568603516,31.220232009887695,0.9320192337036133,-125.69163513183594
0,600196,-26.738622665405273,28.074735641479492,-28.637882232666016,67.98031616210938
0,600196,-77.2971420288086,-24.99587059020996,-111.3110122680664,209.15505981445312
0,600196,-123.34545135498047,-45.77022171020508,-116.03927612304688,342.937744140625
0,600196,-104.56661224365234,-10.3338041305542,-27.806644439697266,271.8590087890625
0,600197,-63.431007385253906,-23.93992042541504,6.410677433013916,30.25941276550293
0,600197,-1.1145555973052979,-9.37980842590332,10.000927925109863,-120.6873779296875
0,600197,23.181447982788086,-10.865241050720215,67.20791625976562,-211.8378448486328
0,600197,17.592060089111328,-3.9348642826080322,77.50385284423828,-287.5551452636719
0,600197,40.86658477783203,52.71924591064453,48.95734405517578,-295.58062744140625
0,600197,33.16899108886719,20.291362762451172,18.58347511291504,-218.50975036621094
0,600198,1.376156210899353,-2.224980115890503,-20.437456130981445,-74.17645263671875
0,600198,-22.81186294555664,-2.223259687423706,-15.029874801635742,50.74068069458008
0,600198,-33.321327209472656,-29.552349090576172,-32.033599853515625,119.6407699584961
0,600198,-24.93718910217285,-15.277995109558105,-55.71904373168945,139.68649291992188
0,600198,-2.026717185974121,-11.351460456848145,-2.4775023460388184,80.05374145507812
0,600198,33.82557678222656,-2.032238721847534,18.007299423217773,-28.986421585083008
0,600199,38.643524169921875,24.457910537719727,9.37190055847168,-89.00344848632812
0,600199,37.734764099121094,5.670685291290283,46.272281646728516,-102.71829986572266
0,600199,42.37830352783203,-13.008767127990723,36.063629150390625,-97.0698013305664
0,600199,31.318267822265625,23.527246475219727,22.084836959838867,-25.992408752441406
0,600199,16.054548263549805,17.497234344482422,32.481536865234375,54.69165802001953
0,600199,-16.744850158691406,-34.2460823059082,-21.20940399169922,104.10006713867188
0,600200,-21.942874908447266,-8.227716445922852,-57.60916519165039,160.03372192382812
0,600200,-20.33343505859375,1.1425713300704956,-14.447946548461914,151.55848693847656
0,600200,-2.109029531478882,-8.887274742126465,22.035425186157227,62.979774475097656
0,600200,33.30773162841797,-3.258657932281494,5.056975841522217,-25.907363891601562
0,600200,-1.9080431461334229,-11.683046340942383,5.069766998291016,-51.65483093261719
0,600201,-0.04686187952756882,20.31084632873535,24.797855377197266,-57.3251953125
0,600201,57.33502960205078,7.847709655761719,14.79810619354248,-31.114225387573242
0,600201,17.995521545410156,-16.36891746520996,-2.7362213134765625,30.116785049438477
0,600201,-40.05116653442383,-3.301367998123169,-8.742048263549805,-0.8688668608665466
0,600201,-16.671016693115234,15.227848052978516,-24.645931243896484,-8.744237899780273
0,600201,-16.36187744140625,17.002952575683594,-27.915159225463867,51.850433349609375
0,600202,-33.87384796142578,-12.357357025146484,5.917283058166504,49.67219924926758
0,600202,-21.44886589050293,-9.08239459991455,10.38241195678711,32.7205924987793
0,600202,4.046514511108398,2.9546725749969482,-29.420265197753906,-15.570981979370117
0,600202,8.022686958312988,-5.524062156677246,-8.101841926574707,-43.24137496948242
0,600202,0.00925634428858757,17.241458892822266,42.93088150024414,-29.956768035888672
0,600202,28.56365966796875,19.835641860961914,27.74241828918457,-73.40547943115234
0,600203,16.739360809326172,-3.0005674362182617,8.916559219360352,-53.117244720458984
0,600203,3.754037380218506,32.984737396240234,11.217324256896973,19.19615364074707
0,600203,0.3227158784866333,9.582196235656738,9.117624282836914,57.21552276611328
0,600203,-21.202392578125,-23.482627868652344,8.030473709106445,41.422176361083984
0,600203,5.791036605834961,10.758686065673828,7.15638542175293,3.113166093826294
0,600203,26.576431274414062,-19.93509292602539,-13.462005615234375,-21.58758544921875
0,600204,3.4096932411193848,-22.068410873413086,7.8207855224609375,-53.903568267822266
0,600204,14.706124305725098,41.959869384765625,23.617053985595703,-76.12300872802734
0,600204,29.09781265258789,3.149916410446167,-30.964086532592773,-113.17581939697266
0,600204,-9.598945617675781,-39.328487396240234,0.07081053406000137,-92.5623779296875
0,600204,-2.877990484237671,5.428640365600586,15.007073402404785,-21.546735763549805
0,600204,16.430950164794922,-0.8941951394081116,-65.55374145507812,-31.68718719482422
0,600205,-20.517364501953125,-24.865449905395508,-26.465652465820312,-53.75825881958008
0,600205,-27.48549461364746,-0.9136465787887573,33.99348449707031,-33.606353759765625
0,600205,3.3352344036102295,14.185389518737793,-17.8531551361084,-46.60325241088867
0,600205,-7.396749496459961,14.280638694763184,-22.274703979492188,-113.21328735351562
0,600205,-1.587199330329895,8.842717170715332,-2.4007716178894043,-74.07371520996094
0,600205,-0.9875301718711853,-2.0392467975616455,-10.152292251586914,72.04877471923828
0,600206,-15.352202415466309,-0.5521568655967712,22.86223793029785,37.17991256713867
0,600206,12.501664161682129,23.606098175048828,28.01061248779297,-48.19369888305664
0,600206,8.087389945983887,10.531888961791992,-8.453146934509277,-7.956817150115967
0,600206,-3.590620756149292,-18.158592224121094,8.596993446350098,-26.728792190551758
0,600206,7.2581562995910645,19.571041107177734,22.022668838500977,-31.29698944091797
0,600206,7.335077285766602,-4.173449516296387,-25.76753044128418,55.67925262451172
0,600207,10.92626667022705,-34.07027053833008,-8.403944969177246,68.4715347290039
0,600207,17.141931533813477,4.1407575607299805,16.48105812072754,63.12405014038086
0,600207,-18.273578643798828,2.117431640625,6.258101940155029,76.24124145507812
0,600207,-18.48175048828125,14.741321563720703,16.012622833251953,46.52006530761719
0,600207,-3.081885576248169,-2.4455678462982178,13.909721374511719,5.354517459869385
0,600207,7.1576690673828125,-25.260948181152344,10.081189155578613,-22.063459396362305
0,600208,12.93071460723877,7.6916375160217285,-15.144554138183594,8.454277038574219
0,600208,-11.42451286315918,-11.615923881530762,-9.380924224853516,65.13883972167969
0,600208,11.313276290893555,2.571739673614502,16.543725967407227,100.19900512695312
0,600208,26.585918426513672,41.649681091308594,13.423724174499512,88.91962432861328
0,600208,9.868279457092285,-24.18609046936035,-10.648200035095215,105.11193084716797
0,600209,-25.14997673034668,-45.32126998901367,-11.84006404876709,118.82438659667969
0,600209,-11.66565990447998,-8.585127830505371,27.450271606445312,88.39228820800781
0,600209,16.400314331054688,-6.055847644805908,-0.5958735346794128,89.94660949707031
0,600209,1.5589733123779297,17.014230728149414,-11.966414451599121,46.499080657958984
0,600209,5.848394393920898,12.347589492797852,8.503783226013184,-18.633073806762695
0,600209,-9.269887924194336,-21.50893211364746,-33.8419075012207,-37.32244110107422
0,600209,-33.81709671020508,0.4593113660812378,-36.578857421875,-28.913036346435547
0,600210,-38.89820861816406,1.3141741752624512,-0.9371593594551086,-5.7653279304504395
0,600210,-5.998185157775879,-9.396929740905762,-5.20241117477417,-31.683271408081055
0,600210,20.287185668945312,20.51604652404785,-16.139846801757812,-83.45854187011719
0,600210,-3.631352424621582,-1.6751081943511963,-11.459416389465332,-95.23674011230469
0,600210,-13.488880157470703,-2.5618677139282227,-14.069052696228027,-104.6849136352539
0,600210,-6.206989288330078,15.865612983703613,20.180387496948242,-114.7541732788086
0,600212,117.88823699951172,88.39891815185547,96.33657836914062,200.24557495117188
0,600212,128.2362823486328,93.15139770507812,58.21589660644531,263.465576171875
0,600212,-86.87511444091797,-70.8057632446289,-54.87950134277344,-237.27630615234375
0,600212,-70.04751586914062,-49.37746047973633,-32.59364318847656,-191.56690979003906
0,600212,32.347171783447266,40.612770080566406,15.809366226196289,40.376407623291016
0,600213,-0.25953081250190735,-5.2462968826293945,-10.778032302856445,-45.10396194458008
0,600213,-28.437314987182617,-22.527111053466797,3.4535903930664062,-11.558735847473145
0,600213,-14.737523078918457,-22.16404914855957,-6.405608654022217,87.80583190917969
0,600213,-1.1324912309646606,-42.929203033447266,-56.162513732910156,107.88384246826172
0,600214,-70.3372573852539,-36.674293518066406,-8.311685562133789,234.39651489257812
0,600216,-116.03932189941406,-9.920977592468262,-14.891138076782227,-17.86126136779785
0,600218,-153.95680236816406,-55.312015533447266,-150.92320251464844,-192.76564025878906
0,600220,-95.72666931152344,-89.94544982910156,-119.50386810302734,238.433837890625
0,600222,52.532047271728516,37.47985076904297,92.2002182006836,455.99444580078125
0,600224,154.56689453125,121.24243927001953,122.67939758300781,289.1668395996094
0,600226,124.40354919433594,79.32359313964844,102.71537780761719,-434.7010803222656
0,600228,5.143873691558838,88.2141342163086,174.7527618408203,-953.3290405273438
0,600231,125.90475463867188,-62.18047332763672,16.07509422302246,-1369.1783447265625
0,600232,171.92445373535156,-155.56698608398438,-14.219888687133789,-733.716064453125
0,600235,-19.864482879638672,88.27371978759766,-27.48973846435547,1598.03662109375
0,600236,-162.7191619873047,69.18639373779297,-231.27099609375,2091.30419921875
0,600239,-164.68862915039062,-124.99786376953125,-75.02783966064453,-101.46221923828125
0,600240,-59.07664108276367,-43.78177261352539,-29.72637939453125,-1253.463623046875
0,600243,-30.368141174316406,58.030235290527344,-70.39956665039062,99.4173812866211
0,600244,166.12368774414062,40.18462371826172,206.96487426757812,563.00537109375
0,600245,235.83401489257812,13.079299926757812,232.77426147460938,-358.2939147949219
0,600248,-37.46516799926758,-33.93992614746094,-30.93006706237793,-461.65997314453125
0,600249,-129.88511657714844,-8.363838195800781,-100.7459945678711,-132.18544006347656
0,600252,-82.37747955322266,101.97017669677734,55.29109573364258,-116.21810150146484
0,600253,102.03677368164062,66.27534484863281,88.8045425415039,-350.548828125
0,600256,22.66937255859375,-92.88496398925781,-156.48367309570312,182.60089111328125
0,600257,-93.9049072265625,-51.289039611816406,-170.45091247558594,641.2901000976562
0,600260,-27.86042022705078,-27.517322540283203,71.56978607177734,1.6924140453338623
0,600261,-172.4079132080078,-132.5911407470703,-160.79124450683594,13.468605041503906
0,600264,-17.289594650268555,6.785621643066406,-57.40901184082031,548.1771850585938
0,600265,180.3911590576172,137.6110076904297,382.32879638671875,87.78854370117188
0,600460,-20.626007080078125,33.09436798095703,-103.43940734863281,-295.4549560546875
0,600460,-151.5487518310547,-45.599937438964844,-302.6949462890625,261.2473449707031
0,600460,9.728808403015137,-4.5196757316589355,162.117431640625,322.794189453125
0,600460,114.89330291748047,8.691177368164062,160.80230712890625,-245.35391235351562
0,600461,91.83269500732422,8.174171447753906,72.31107330322266,-440.88629150390625
0,600461,107.47151947021484,46.74396896362305,99.00108337402344,-412.1245422363281
0,600461,87.18126678466797,46.78657913208008,25.51386833190918,-325.0091247558594
0,600461,15.555270195007324,0.05401131510734558,-35.48311233520508,-82.3083724975586
0,600461,-56.53602600097656,-29.57349395751953,-63.202857971191406,167.50677490234375
0,600462,-65.51190948486328,-28.52400016784668,-96.12393951416016,307.2992248535156
0,600462,-71.07943725585938,-23.304515838623047,-112.1598129272461,362.7939453125
0,600462,-85.95185089111328,-22.026687622070312,-58.405723571777344,312.8154602050781
0,600462,-39.12309646606445,-9.168011665344238,-7.71800422668457,97.24219512939453
0,600462,18.475143432617188,14.404863357543945,28.0169677734375,-168.3035125732422
0,600462,50.8138427734375,24.568483352661133,58.73543930053711,-318.8328857421875
0,600463,46.646156311035156,24.07020378112793,61.12782669067383,-303.92462158203125
0,600463,17.99454689025879,12.250016212463379,27.680994033813477,-216.17625427246094
0,600463,-14.984439849853516,-11.462508201599121,-18.873111724853516,-118.58843231201172
0,600463,-32.247047424316406,-40.94184875488281,-43.012290954589844,65.63114166259766
0,600463,-43.684505462646484,-20.798118591308594,-41.08796310424805,212.73507690429688
0,600463,-17.648408889770508,15.135177612304688,-28.183181762695312,189.69911193847656
0,600464,-4.20894718170166,-18.857952117919922,-29.51488494873047,121.912353515625
0,600464,-11.668231010437012,-2.5826187133789062,20.45514678955078,27.852895736694336
0,600464,31.10777473449707,31.886672973632812,71.92566680908203,-77.04179382324219
0,600464,57.50217056274414,23.222923278808594,74.83833312988281,-154.3671417236328
0,600464,64.06568145751953,31.23569679260254,56.10101318359375,-220.67555236816406
0,600464,50.3073616027832,7.970319747924805,20.985912322998047,-164.78176879882812
0,600465,-15.87117862701416,-28.128461837768555,8.319544792175293,-5.884552001953125
0,600465,-29.028759002685547,-19.21969985961914,-10.739211082458496,70.8392333984375
0,600465,0.5838773250579834,12.850095748901367,-15.16499137878418,112.80606079101562
0,600465,-29.888700485229492,-1.712160348892212,-8.205988883972168,144.59327697753906
0,600465,-25.854585647583008,-19.889284133911133,-39.07515335083008,78.22367858886719
0,600465,40.8419075012207,-12.64653491973877,11.800984382629395,-8.27491569519043
0,600466,46.48081970214844,14.047892570495605,50.43846893310547,-58.07371520996094
0,600466,-6.4658613204956055,23.577024459838867,-9.574070930480957,-88.19345092773438
0,600466,7.5386271476745605,-17.26422882080078,29.02674102783203,-102.7862548828125
0,600466,21.66864013671875,8.897096633911133,51.995765686035156,-68.87079620361328
0,600466,8.92551040649414,49.06163024902344,-32.86553955078125,-5.738970756530762
0,600466,-1.1485052108764648,-2.352126359939575,-49.66181564331055,30.980079650878906
0,600467,-40.32347869873047,-33.363311767578125,-20.872907638549805,61.96253204345703
0,600467,-17.9505615234375,-14.548492431640625,-22.911954879760742,93.75121307373047
0,600467,-5.448380470275879,1.6249908208847046,-25.12533187866211,74.97933959960938
0,600467,-23.1900634765625,-10.588434219360352,-21.646717071533203,19.0036678314209
0,600467,-22.1331844329834,-16.879833221435547,-5.1148152351379395,-19.285661697387695
0,600467,-6.777174472808838,20.7279052734375,20.764503479003906,-45.1476936340332
0,600468,8.262932777404785,1.611579179763794,6.288611888885498,-62.69611740112305
0,600468,-24.355709075927734,-25.67042350769043,-15.876717567443848,-44.71152877807617
0,600468,-10.527503967285156,-1.6704341173171997,-19.03523826599121,6.601123332977295
0,600468,2.8188693523406982,4.070983409881592,-10.600319862365723,53.58237838745117
0,600468,3.089059352874756,13.857132911682129,3.9774582386016846,60.55475997924805
0,600468,32.605655670166016,-5.914572238922119,-2.9551894664764404,42.9077262878418
0,600469,4.809169292449951,-26.016822814941406,8.222835540771484,17.239864349365234
0,600469,12.228241920471191,33.540672302246094,16.473012924194336,10.456643104553223
0,600469,59.15202331542969,34.931461334228516,11.98837661743164,3.358578681945801
0,600469,50.229461669921875,-27.469375610351562,24.771711349487305,-27.083715438842773
0,600469,28.76983642578125,-3.9962286949157715,7.261331081390381,-27.208654403686523
0,600469,11.846121788024902,19.448528289794922,-19.945688247680664,-15.050034523010254
0,600470,-7.913469314575195,-12.217954635620117,16.488697052001953,15.682767868041992
0,600470,-8.93128490447998,-1.6925938129425049,29.9951114654541,13.199079513549805
0,600470,-26.8164119720459,9.853960990905762,-2.853642702102661,1.5248900651931763
0,600470,-77.81383514404297,-8.908855438232422,0.6646681427955627,42.1711540222168
0,600470,-77.97734069824219,6.038522720336914,4.176651954650879,9.20057487487793
0,600471,-22.119401931762695,-1.1770658493041992,-5.568627834320068,-42.53679656982422
0,600471,-20.564327239990234,-20.600996017456055,17.756973266601562,-43.88853454589844
0,600471,-36.24973678588867,20.82703971862793,29.76291847229004,-76.85501861572266
0,600471,-13.55143928527832,26.50042724609375,-17.966827392578125,-56.203243255615234
0,600471,-16.733381271362305,-6.996462821960449,-39.469879150390625,8.439783096313477
0,600471,-13.034080505371094,-3.511800765991211,-12.70611572265625,18.73908233642578
0,600472,6.955649375915527,3.6215529441833496,1.8819987773895264,14.073915481567383
0,600472,14.151863098144531,0.6266404986381531,-20.11668586730957,33.79742431640625
0,600472,17.85886573791504,-21.45874786376953,-38.89775466918945,57.94819641113281
0,600472,33.0854377746582,-12.55986499786377,-51.944793701171875,14.820049285888672
0,600472,21.814241409301758,-2.513400077819824,-24.937204360961914,2.6803524494171143
0,600472,-10.133441925048828,-7.596200942993164,22.536357879638672,35.31029510498047
0,600473,25.70713233947754,9.141071319580078,-16.584392547607422,-8.964370727539062
0,600473,36.51871109008789,-23.74698257446289,-41.84673309326172,-5.920327186584473
0,600473,-7.471188545227051,-12.11424446105957,-2.4716196060180664,37.869834899902344
0,600473,-9.797093391418457,25.721378326416016,0.7588147521018982,19.62781524658203
0,600473,0.6758979558944702,-9.995718002319336,-19.27496337890625,31.075563430786133
0,600473,1.1568899154663086,-8.636299133300781,1.2058991193771362,39.83672332763672
0,600474,11.24866771697998,4.141848087310791,17.265722274780273,2.96720552444458
0,600474,-13.812231063842773,1.309363842010498,9.686601638793945,23.535072326660156
0,600474,-16.370691299438477,13.80264663696289,4.9000139236450195,46.898189544677734
0,600474,24.548736572265625,-0.7839563488960266,11.539827346801758,1.601578712463379
0,600474,-3.931837797164917,-1.936700701713562,14.433135032653809,5.0268940925598145
0,600474,-11.100618362426758,6.523075103759766,1.9545458555221558,22.66758155822754
0,600475,3.4246554374694824,-0.2691892981529236,21.387248992919922,21.260250091552734
0,600475,-13.100515365600586,15.173795700073242,43.670875549316406,10.185376167297363
0,600475,-0.2482946813106537,3.6839253902435303,3.9594295024871826,-19.863500595092773
0,600475,4.628142833709717,-30.590038299560547,-17.93767547607422,-1.3006272315979004
0,600475,-13.520301818847656,-6.8034820556640625,-5.570219039916992,34.20703887939453
0,600475,-10.956027030944824,23.57248306274414,-8.73058032989502,56.59101104736328
0,600476,22.414926528930664,17.37959098815918,23.544607162475586,18.163240432739258
0,600476,16.977785110473633,-21.647661209106445,28.33796501159668,-21.898893356323242
0,600476,-38.13681411743164,-16.669300079345703,0.8562437891960144,-16.269105911254883
0,600476,-25.684951782226562,15.734601974487305,34.81095886230469,-19.404857635498047
0,600476,43.30379867553711,5.350935935974121,30.162748336791992,-28.659395217895508
0,600478,-34.52077865600586,4.110178470611572,30.922807693481445,186.20416259765625
0,600478,-78.13439178466797,-5.336968421936035,30.01732063293457,185.77093505859375
0,600478,38.72377395629883,-8.164875030517578,-35.56689453125,-211.6629638671875
0,600478,50.65793228149414,20.79261589050293,-17.835533142089844,-147.19017028808594
0,600478,0.027396271005272865,4.99233865737915,-24.89653968811035,28.45796775817871
0,600478,10.817028999328613,-28.563491821289062,-40.5667724609375,-32.68315505981445
0,600479,56.49496841430664,-6.040055274963379,-1.2419337034225464,-34.7691535949707
0,600479,29.075902938842773,-2.6300086975097656,-9.090032577514648,-43.013282775878906
0,600479,0.10847222059965134,-3.1363022327423096,-17.41914176940918,-34.285945892333984
0,600480,14.38222599029541,-0.7773136496543884,-41.96769714355469,26.705684661865234
0,600482,-134.15896606445312,-64.0631332397461,-122.06974029541016,275.010009765625
0,600484,-66.4275894165039,-7.927307605743408,-24.27158546447754,98.08746337890625
0,600486,177.9365997314453,98.64095306396484,209.8418731689453,-551.9498291015625
0,600488,145.3505096435547,80.43721771240234,220.0018768310547,-825.7796630859375
0,600490,56.003395080566406,11.886492729187012,9.211258888244629,-392.6588134765625
0,600492,116.01962280273438,-24.02136993408203,-46.66511154174805,116.73452758789062
0,600494,12.404054641723633,6.589425563812256,13.666961669921875,145.73878479003906
0,600496,-337.66571044921875,-43.95246124267578,-229.19435119628906,756.2630615234375
0,600498,-246.90798950195312,-63.43002700805664,-200.25228881835938,856.8087158203125
0,600500,10.738361358642578,-24.653217315673828,84.50383758544922,32.43067169189453
0,600502,11.3588285446167,-17.914094924926758,-22.606767654418945,-59.18251419067383
0,600504,43.80561065673828,12.718324661254883,8.54796314239502,-218.85061645507812
0,600506,102.58621215820312,8.234169006347656,152.53358459472656,-326.9157409667969
0,600508,139.9506378173828,68.22715759277344,135.79351806640625,-30.260379791259766
0,600510,44.399723052978516,111.63139343261719,41.96098709106445,-90.81107330322266
0,600512,-46.86602783203125,-64.47100830078125,-98.4776382446289,-350.9248352050781
0,600514,26.337379455566406,-98.20618438720703,9.481542587280273,-324.94970703125
0,600516,-35.760921478271484,48.722957611083984,-64.70894622802734,634.3060913085938
0,600518,-113.10724639892578,19.498292922973633,-144.1389923095703,700.468505859375
0,600521,-79.49160766601562,-50.76673126220703,69.67950439453125,-223.84317016601562
0,600522,-85.56037139892578,-19.52621841430664,-25.97789764404297,83.21739959716797
0,600525,44.88670349121094,-2.143038511276245,-13.8855562210083,83.38777923583984
0,600526,193.60813903808594,-7.470928192138672,148.4642333984375,-443.892578125
0,600529,178.71592712402344,73.71985626220703,118.87183380126953,-359.5817565917969
0,600530,-53.45320129394531,25.124919891357422,14.35486125946045,28.859132766723633
0,600725,-460.58770751953125,-143.2416534423828,-397.7183837890625,1082.56982421875
0,600725,-236.64060974121094,-55.01910400390625,-255.28121948242188,705.9302978515625
0,600725,378.6198425292969,110.5255355834961,375.9983215332031,-1085.3494873046875
0,600725,273.749267578125,85.13999938964844,240.9246063232422,-835.7648315429688
0,600725,13.818207740783691,15.12192153930664,-26.147686004638672,-112.22270202636719
0,600726,17.81390953063965,-2.087440013885498,0.8335162401199341,-112.21404266357422
0,600726,-53.95552444458008,-21.62735366821289,-53.182979583740234,141.09825134277344
0,600726,-95.91693115234375,-56.915428161621094,-99.77596282958984,282.9729919433594
0,600726,-54.312217712402344,-32.49483108520508,-63.161964416503906,315.42156982421875
0,600726,-25.017513275146484,20.176177978515625,9.1838960647583,153.42372131347656
0,600727,10.403898239135742,14.948859214782715,53.49700927734375,-56.45512771606445
0,600727,64.77101135253906,-4.365896701812744,73.75624084472656,-182.88156127929688
0,600727,71.32066345214844,17.85748291015625,78.30322265625,-259.99041748046875
0,600727,85.51886749267578,35.108909606933594,62.28445816040039,-246.5455780029297
0,600727,78.58715057373047,21.634214401245117,12.22333812713623,-136.61744689941406
0,600727,-30.62627410888672,-19.784221649169922,-57.64980697631836,42.84613800048828
0,600728,-79.70873260498047,-32.02979278564453,-90.03549194335938,188.90463256835938
0,600728,-55.72880935668945,11.624387741088867,-53.237709045410156,236.23680114746094
0,600728,-54.900516510009766,-2.7610621452331543,-27.87907600402832,189.8739013671875
0,600728,-46.22517395019531,-39.71822738647461,-29.019760131835938,112.153564453125
0,600728,0.43278223276138306,-4.648916721343994,18.624103546142578,13.907881736755371
0,600728,47.76294708251953,37.36244583129883,67.99334716796875,-104.11602020263672
0,600729,40.64567947387695,13.050806045532227,55.090919494628906,-164.72024536132812
0,600729,28.489585876464844,4.609766960144043,7.718723773956299,-134.9078826904297
0,600729,10.469673156738281,28.329179763793945,23.17661476135254,-70.84436798095703
0,600729,9.632474899291992,-6.156406402587891,21.442842483520508,-13.496137619018555
0,600729,-7.325911521911621,-27.75442886352539,-61.3477783203125,92.53022003173828
0,600729,-51.72907257080078,-5.969995498657227,-65.645263671875,164.0834197998047
0,600730,-39.29345703125,-7.4603495597839355,-30.013233184814453,128.94796752929688
0,600730,-36.688751220703125,-22.187522888183594,-6.0107340812683105,56.393619537353516
0,600730,-22.973424911499023,-4.618189334869385,26.575464248657227,-11.834896087646484
0,600730,16.855133056640625,24.496488571166992,34.80600357055664,-71.96998596191406
0,600730,39.32347869873047,25.58599090576172,27.16295623779297,-139.8145751953125
0,600731,57.378082275390625,1.4756672382354736,3.706634283065796,-122.98171997070312
0,600731,20.762786865234375,-4.721345901489258,-9.492854118347168,-57.5278205871582
0,600731,-15.941166877746582,2.121487855911255,-17.310104370117188,-11.755561828613281
0,600731,-13.99521541595459,-13.551549911499023,-28.17821502685547,74.77931213378906
0,600731,-28.47223663330078,-27.584989547729492,-23.013858795166016,119.59722900390625
0,600731,-28.30585289001465,2.666292667388916,-3.1756765842437744,57.71271896362305
0,600732,-12.96371841430664,30.874345779418945,-5.001595973968506,-2.0009872913360596
0,600732,-19.058523178100586,-21.244142532348633,-7.503426551818848,21.82021713256836
0,600732,-18.253650665283203,-20.763736724853516,22.757226943969727,1.163827657699585
0,600732,20.45634651184082,34.27178955078125,32.59837341308594,-65.28662872314453
0,600732,38.39817428588867,5.879091262817383,0.2842700183391571,-58.3899040222168
0,600732,26.07316017150879,-11.075697898864746,-13.28061294555664,-6.59977388381958
0,600733,20.718448638916016,15.963088989257812,-24.502418518066406,28.5062313079834
0,600733,-18.026273727416992,-1.4289770126342773,-31.627241134643555,53.818050384521484
0,600733,-14.421092987060547,-15.288764953613281,-10.058277130126953,82.26936340332031
0,600733,-1.4250224828720093,-0.8100908994674683,-27.755329132080078,65.73709106445312
0,600733,-38.83824920654297,-2.001772403717041,-22.858476638793945,30.884241104125977
0,600733,-4.967198371887207,-3.8279550075531006,23.651443481445312,-0.5133060812950134
0,600734,26.603437423706055,-8.088106155395508,6.560784816741943,2.1651241779327393
0,600734,-11.709610939025879,-6.231205940246582,-28.151966094970703,-7.88841438293457
0,600734,-34.38618850708008,-1.1520696878433228,18.561777114868164,-24.7502498626709
0,600734,-24.657939910888672,-6.043187141418457,27.587968826293945,23.94746971130371
0,600734,-5.93435525894165,19.24687385559082,-0.9422903060913086,22.26949119567871
0,600734,7.481174945831299,7.962050437927246,8.147191047668457,28.2821102142334
0,600735,-6.487422466278076,-23.67691421508789,-5.51951789855957,63.678951263427734
0,600735,-24.23974609375,11.991264343261719,2.3553144931793213,27.53133201599121
0,600735,8.728414535522461,11.133964538574219,18.413484573364258,5.172685146331787
0,600735,28.798599243164062,-11.20257568359375,-2.6329853534698486,-1.1704782247543335
0,600735,11.02589225769043,-10.88647747039795,-15.898520469665527,-32.87725830078125
0,600735,-3.963259220123291,1.465966820716858,23.26827049255371,-22.976348876953125
0,600736,5.674510955810547,11.212138175964355,23.476152420043945,-7.800207614898682
0,600736,12.517263412475586,-16.66513442993164,-21.656574249267578,-6.193924427032471
0,600736,-4.118195533752441,-7.525973796844482,-9.637273788452148,-1.164088487625122
0,600736,-3.2331459522247314,-2.7074027061462402,-15.554781913757324,-27.557636260986328
0,600736,-4.177499771118164,-10.434088706970215,-4.565622329711914,0.9376183748245239
0,600736,9.505361557006836,10.527078628540039,29.383007049560547,15.617134094238281
0,600737,22.934885025024414,0.37521398067474365,-0.12543277442455292,-27.505775451660156
0,600737,-10.152388572692871,-5.906522750854492,-10.517115592956543,-9.853175163269043
0,600737,-18.80899429321289,16.16254997253418,-3.2493743896484375,4.611359119415283
0,600737,14.281682968139648,-7.612332344055176,0.4565581679344177,-4.208680152893066
0,600737,11.97994327545166,-9.241409301757812,19.405033111572266,-14.854493141174316
0,600737,-2.9173643589019775,16.971237182617188,9.773372650146484,-45.91654586791992
0,600738,2.346327066421509,-11.846956253051758,-11.982234954833984,-8.280959129333496
0,600738,-5.018347263336182,8.635665893554688,10.087872505187988,27.13498878479004
0,600738,7.357678413391113,30.61233901977539,22.75234031677246,14.55924129486084
0,600738,30.467144012451172,-15.895400047302246,-12.857629776000977,20.474567413330078
0,600738,2.338231086730957,-19.2854061126709,-2.3025543689727783,-3.6248364448547363
0,600738,-19.05935287475586,28.37774085998535,16.01936912536621,-20.62919044494629
0,600739,-19.547653198242188,22.178714752197266,-4.612098217010498,-12.44070816040039
0,600739,-1.1619174480438232,-9.198275566101074,6.107972145080566,-4.318689346313477
0,600739,24.982864379882812,1.2660661935806274,5.924642562866211,-10.73458480834961
0,600739,-2.1363720893859863,14.14133358001709,-9.091878890991211,-4.456535816192627
0,600739,-7.901334762573242,4.584635257720947,-5.24287223815918,7.980233192443848
0,600739,-5.794561862945557,-11.216209411621094,-16.3841609954834,-9.003768920898438
0,600740,-13.093461990356445,9.562335014343262,-3.963425397872925,-0.7992005348205566
0,600740,3.0301337242126465,-0.2165917009115219,18.64774513244629,-7.835667133331299
0,600740,4.403076648712158,-12.29216480255127,-1.5644234418869019,-17.66252326965332
0,600740,17.761816024780273,-9.126362800598145,-17.734512329101562,31.389915466308594
0,600740,27.04889488220215,-16.590087890625,-2.2223479747772217,23.313390731811523
0,600741,8.14702033996582,8.739755630493164,-9.780384063720703,-5.90964937210083
0,600741,-13.027350425720215,-5.571131229400635,-30.473417282104492,43.856319427490234
0,600741,1.8626008033752441,-12.897533416748047,0.26821500062942505,26.78807258605957
0,600741,50.559165954589844,18.024269104003906,14.930022239685059,-26.479482650756836
0,600741,28.712678909301758,2.6328256130218506,-15.780502319335938,26.5577392578125
0,600743,1.7961623668670654,-26.404069900512695,-26.653337478637695,189.84088134765625
0,600743,6.427949905395508,1.5015480518341064,2.390451192855835,80.2002182006836
0,600743,-36.15402603149414,18.64691925048828,29.325050354003906,-224.22325134277344
0,600743,-40.75053024291992,-14.777445793151855,43.19097900390625,-92.0931625366211
0,600743,-16.68924903869629,-3.6039090156555176,53.432029724121094,38.224613189697266
0,600743,-11.783824920654297,21.980350494384766,44.0095100402832,-74.71478271484375
0,600743,-8.808317184448242,-4.278919696807861,27.858997344970703,-53.842533111572266
0,600744,-8.509368896484375,-3.9114487171173096,8.802188873291016,-41.04085922241211
0,600744,-4.016819000244141,18.329673767089844,-5.903354644775391,-89.6282730102539
0,600745,-3.2246720790863037,24.10918617248535,107.08338165283203,-299.6939697265625
0,600746,54.384517669677734,45.1440315246582,150.99342346191406,-480.858642578125
0,600748,92.34020233154297,17.0778865814209,-118.84989166259766,-235.1410369873047
0,600751,2.803450107574463,-58.51445007324219,-95.29145050048828,-201.44976806640625
0,600752,14.96833324432373,-28.52017593383789,118.22505187988281,-189.26043701171875
0,600755,59.09748840332031,26.378450393676758,-177.31906127929688,500.1090087890625
0,600756,-83.56488800048828,-9.514826774597168,-323.29541015625,834.4151000976562
0,600757,-168.27059936523438,-0.2444867640733719,-7.355432033538818,463.3530578613281
0,600760,-138.3139190673828,-8.315950393676758,101.77043914794922,372.2420349121094
0,600761,-74.95831298828125,-49.87809371948242,-74.94977569580078,345.95068359375
0,600764,69.09359741210938,-63.317989349365234,-69.52423858642578,-7.604037284851074
0,600765,216.86062622070312,-48.331932067871094,174.84791564941406,-367.9453430175781
0,600768,99.29434204101562,102.80867004394531,199.49380493164062,-736.4649047851562
0,600769,-99.66641235351562,123.22268676757812,89.76744079589844,-425.2687072753906
0,600772,60.059043884277344,-22.938444137573242,54.38357162475586,21.84849739074707
0,600773,81.74017333984375,-43.17173385620117,-89.08937072753906,-95.54717254638672
0,600776,-65.00914764404297,-61.51556396484375,-226.82688903808594,453.4920654296875
0,600777,-88.7635498046875,-59.641048431396484,-61.57221603393555,543.1913452148438
0,600780,-111.03328704833984,99.09403228759766,75.67857360839844,-76.60116577148438
0,600781,-87.58004760742188,73.38725280761719,-52.6219482421875,152.95709228515625
0,600784,-13.592082977294922,-119.03297424316406,21.937427520751953,123.03929138183594
0,600785,132.01727294921875,-4.781501293182373,48.0925407409668,-355.7608642578125
0,600788,101.7308120727539,138.62689208984375,3.884779930114746,-470.1519470214844
0,600789,15.6023530960083,17.7960147857666,152.87779235839844,-86.63374328613281
0,600792,149.66261291503906,-61.37430191040039,-4.7808146476745605,12.69079303741455
0,600793,82.9953842163086,-5.038928985595703,-122.86610412597656,-278.46221923828125
0,600796,-236.4495849609375,-11.148008346557617,5.54238748550415,501.0235595703125
0,600990,20.495668411254883,-4.800103187561035,166.66152954101562,110.57826232910156
0,600990,295.9308166503906,59.10783004760742,197.37510681152344,-1047.6201171875
0,600990,-31.11273193359375,-1.452613353729248,-104.07219696044922,-132.6609649658203
0,600990,-138.8333282470703,-39.7021598815918,-150.17581176757812,509.8131408691406
0,600991,-83.503173828125,6.977462291717529,-44.174468994140625,356.41668701171875
0,600991,-112.32181549072266,-11.824785232543945,-95.85881042480469,440.6562194824219
0,600991,-93.11613464355469,-47.678314208984375,-77.23605346679688,305.27978515625
0,600991,-65.18263244628906,-2.9271740913391113,-4.895549774169922,79.29956817626953
0,600991,5.394038200378418,21.685115814208984,50.07267761230469,-157.47218322753906
0,600991,66.51074981689453,4.280980587005615,64.64989471435547,-333.817626953125
0,600992,79.70592498779297,4.3180108070373535,55.423614501953125,-350.6203308105469
0,600992,84.66342163085938,1.6967333555221558,7.530396461486816,-247.59178161621094
0,600992,28.003658294677734,-6.866537570953369,-42.36603927612305,-41.207183837890625
0,600992,-50.34627151489258,-20.613576889038086,-41.90843963623047,193.00213623046875
0,600992,-55.13204574584961,-4.36417293548584,-44.5531005859375,284.84375
0,600992,-53.62808609008789,-2.6515257358551025,-59.22210693359375,271.911865234375
0,600993,-44.47035598754883,-18.255556106567383,-14.38438892364502,210.77032470703125
0,600993,-5.579653263092041,-9.122002601623535,35.104976654052734,43.635169982910156
0,600993,16.66139793395996,3.9202961921691895,55.11343765258789,-94.8131332397461
0,600993,38.036197662353516,44.399742126464844,45.06012725830078,-153.2039337158203
0,600993,49.05921173095703,17.363300323486328,26.205337524414062,-194.38937377929688
0,600993,24.034948348999023,-19.08809471130371,36.019447326660156,-137.28192138671875
0,600994,-3.610201835632324,11.652898788452148,10.879532814025879,-18.072467803955078
0,600994,-10.545804023742676,-7.885684967041016,-29.148759841918945,107.74241638183594
0,600994,-38.303314208984375,-12.641359329223633,-11.055015563964844,212.31158447265625
0,600994,-44.940147399902344,-0.06776676326990128,5.608416557312012,218.6539764404297
0,600994,-25.906396865844727,-14.82530403137207,-31.086650848388672,91.3750228881836
0,600995,-10.87027645111084,-23.974910736083984,-10.656224250793457,-25.454877853393555
0,600995,34.44477462768555,4.692073345184326,37.49564743041992,-43.82593536376953
0,600995,55.90654754638672,25.652545928955078,26.99052619934082,-80.24806213378906
0,600995,80.6224365234375,20.26613426208496,11.493477821350098,-106.52136993408203
0,600995,66.4090576171875,1.4139378070831299,-25.409143447875977,-73.98389434814453
0,600995,20.13575553894043,-30.675029754638672,-60.10900115966797,-4.567507266998291
0,600996,3.9195802211761475,-2.8447136878967285,-33.74009323120117,41.05584716796875
0,600996,-45.261661529541016,31.01913070678711,-21.81548500061035,78.03511047363281
0,600996,-51.93128204345703,2.200251579284668,-27.15418815612793,106.36984252929688
0,600996,-42.63465118408203,-2.3516011238098145,1.6713165044784546,52.8841552734375
0,600996,-68.42259979248047,8.31787109375,3.58589506149292,-16.678730010986328
0,600996,-33.34739303588867,-11.060020446777344,16.438005447387695,-53.49079895019531
0,600997,-16.270490646362305,7.2520222663879395,16.822532653808594,-111.70816802978516
0,600997,-30.888887405395508,5.989564418792725,-0.3872692883014679,-125.33940124511719
0,600997,28.814517974853516,-17.620792388916016,30.09808921813965,-72.51985168457031
0,600997,37.03957748413086,23.505441665649414,1.4969031810760498,-60.54440689086914
0,600997,1.4592341184616089,21.572406768798828,-18.266210556030273,7.747463226318359
0,600997,25.427719116210938,-21.19186782836914,13.90904712677002,93.77568817138672
0,600998,19.00123405456543,-18.608257293701172,-13.409018516540527,72.5544204711914
0,600998,-7.06392765045166,-17.860885620117188,-20.536243438720703,16.727115631103516
0,600998,4.152860164642334,10.087590217590332,12.468254089355469,-4.989700794219971
0,600998,20.312793731689453,4.726691246032715,4.124642848968506,-17.103254318237305
0,600998,12.230997085571289,-39.69509506225586,-4.306579113006592,-48.08155059814453
0,600998,-24.661907196044922,-10.301499366760254,21.179197311401367,-44.6452751159668
0,600999,-3.258240222930908,5.336170673370361,20.495365142822266,-22.158599853515625
0,600999,17.319772720336914,3.7439000606536865,-7.245351314544678,10.287667274475098
0,600999,-32.85678482055664,9.622090339660645,-12.14547061920166,18.786243438720703
0,600999,-28.663421630859375,-4.884725093841553,2.172948122024536,16.715709686279297
0,600999,22.065685272216797,15.363677024841309,21.56594467163086,42.661346435546875
0,600999,30.9849910736084,25.75872230529785,17.67363739013672,20.69911766052246
0,601000,10.13867473602295,10.553630828857422,-11.354866027832031,4.855936050415039
0,601000,3.5793983936309814,-0.1307736039161682,-7.663701057434082,5.281013488769531
0,601000,7.971014976501465,8.601617813110352,9.273405075073242,-16.448657989501953
0,601000,-2.606450080871582,21.50953483581543,4.366943359375,-23.08099937438965
0,601000,-25.732852935791016,6.328551769256592,12.247652053833008,10.11856746673584
0,601000,-8.26991081237793,-12.975855827331543,-5.52630090713501,22.115636825561523
0,601001,3.2662034034729004,-23.589841842651367,-37.60940170288086,-2.1908938884735107
0,601001,-24.5921573638916,-10.943686485290527,-14.794843673706055,28.396194458007812
0,601001,-3.1679210662841797,-6.180534839630127,10.806374549865723,32.84923553466797
0,601001,15.784982681274414,9.940605163574219,13.8538818359375,3.6875381469726562
0,601001,-2.058596611022949,15.05330753326416,-2.2550671100616455,-14.421080589294434
0,601001,16.811582565307617,-39.193389892578125,-10.848223686218262,-1.4512609243392944
0,601002,1.6741290092468262,-15.495401382446289,13.000455856323242,0.4227396547794342
0,601002,-5.841291904449463,22.79153060913086,3.958519458770752,-67.05940246582031
0,601002,23.077411651611328,2.677685022354126,7.950995445251465,-46.66757583618164
0,601002,3.9795947074890137,8.314181327819824,22.714054107666016,-2.6474905014038086
0,601002,4.519799709320068,0.17268875241279602,3.5871059894561768,-34.15510940551758
0,601002,10.847115516662598,-2.409909725189209,-11.040989875793457,-27.50667381286621
0,601003,1.6991654634475708,-5.251978874206543,-4.4061994552612305,14.655712127685547
0,601003,3.657470703125,-22.85163688659668,11.359574317932129,4.363589763641357
0,601003,-2.243116617202759,-9.072746276855469,13.550183296203613,-20.415979385375977
0,601003,4.7734694480896,17.46350860595703,19.93659782409668,-9.015110969543457
0,601003,25.673683166503906,21.400022506713867,-1.441702961921692,-14.594454765319824
0,601004,14.588534355163574,11.107988357543945,-9.099108695983887,-29.773618698120117
0,601004,-14.030669212341309,6.646622657775879,4.899923324584961,-25.786357879638672
0,601004,-4.668379306793213,-5.970648288726807,17.21332550048828,-8.679816246032715
0,601004,25.015214920043945,6.7590508460998535,21.206159591674805,-18.454608917236328
0,601004,3.464747667312622,17.57240104675293,-19.727783203125,-32.980377197265625
0,601004,-17.60679054260254,-18.506847381591797,-18.499570846557617,-5.398111343383789
0,601005,4.128111362457275,-30.249202728271484,25.045467376708984,10.20208740234375
0,601005,19.49537467956543,-3.3002588748931885,9.8085355758667,-22.207683563232422
0,601005,20.612009048461914,8.325236320495605,-36.16465377807617,-25.797792434692383
0,601005,-19.277877807617188,9.25473690032959,-2.7945592403411865,4.411419868469238
0,601005,-22.545066833496094,17.201841354370117,17.908246994018555,-9.872570991516113
0,601005,16.338947296142578,-3.747725009918213,-8.109694480895996,-10.82226848602295
0,601006,-9.407452583312988,-4.761809825897217,12.89321517944336,23.837902069091797
0,601006,-4.344984531402588,17.1966609954834,-0.6577778458595276,24.364086151123047
0,601006,15.187029838562012,-4.458414077758789,-36.0115966796875,4.515110969543457
0,601006,-24.10715103149414,-13.500953674316406,2.4872522354125977,16.915565490722656
0,601006,-5.109685897827148,14.047454833984375,5.260584354400635,3.7879979610443115
0,601008,12.597820281982422,5.10786771774292,-24.728490829467773,-247.43972778320312
0,601008,-26.929903030395508,-14.060501098632812,27.14643669128418,-182.18768310546875
0,601008,-2.5475926399230957,12.220226287841797,19.549257278442383,237.22422790527344
0,601008,20.106447219848633,4.121770858764648,-25.745439529418945,124.4825210571289
0,601008,-22.61947250366211,-20.257144927978516,-4.331886291503906,-14.971699714660645
0,601008,-3.5343806743621826,0.5696603059768677,3.8476545810699463,42.41236877441406
0,601008,27.340364456176758,10.487772941589355,-7.215766429901123,2.3488564491271973
0,601009,-9.190770149230957,8.284262657165527,3.599943161010742,53.544864654541016
0,601009,-13.191657066345215,2.4184772968292236,11.691122055053711,74.76738739013672
0,601010,52.32762145996094,29.054813385009766,31.97330665588379,-30.37902069091797
0,601011,83.7012710571289,1.9067893028259277,58.37189865112305,-275.1990966796875
0,601014,-30.599287033081055,-74.67755889892578,-39.29526901245117,10.859599113464355
0,601015,-185.46641540527344,-1.8148342370986938,-201.8374786376953,653.022216796875
0,601018,-178.09182739257812,52.96186065673828,-213.22772216796875,640.12158203125
0,601019,45.83280944824219,5.556722640991211,73.6460189819336,154.14166259765625
0,601022,22.36656379699707,-86.14818572998047,123.77840423583984,52.13010025024414
0,601023,-134.16915893554688,-120.4053955078125,-50.41684341430664,5.096461772918701
0,601026,165.6293182373047,33.54529571533203,185.0994873046875,-924.00830078125
0,601028,219.5001678466797,120.05364227294922,174.21888732910156,-866.271728515625
0,601030,159.87770080566406,109.28406524658203,-69.47904968261719,68.01459503173828
0,601032,203.7710723876953,33.84343338012695,4.2921600341796875,-76.71195983886719
0,601034,-250.1576690673828,-103.99282836914062,4.6250834465026855,-63.38101577758789
0,601036,-306.5252990722656,-62.80098342895508,-96.8371353149414,428.2297668457031
0,601038,-59.783531188964844,-15.496024131774902,-102.3937759399414,663.2577514648438
0,601040,-20.810684204101562,-34.4536247253418,-57.24357223510742,202.4542694091797
0,601042,65.55021667480469,-7.893872261047363,-13.302481651306152,-127.10667419433594
0,601044,5.5282440185546875,52.43793487548828,51.21973419189453,91.07051849365234
0,601046,137.5297393798828,112.64860534667969,199.7554931640625,-539.6849365234375
0,601048,72.68013763427734,2.9437108039855957,82.29744720458984,-512.43505859375
0,601050,-136.4005584716797,-30.285383224487305,-155.38186645507812,117.19129943847656
0,601052,117.2337875366211,-8.188895225524902,21.417842864990234,-149.41036987304688
0,601054,140.16567993164062,-12.161786079406738,47.05256652832031,147.51364135742188
0,601056,-97.62329864501953,24.162790298461914,-128.50994873046875,486.58355712890625
0,601058,-166.3504180908203,-58.30710220336914,-31.18513298034668,249.05076599121094
0,601060,38.32905197143555,-55.84828567504883,72.30703735351562,-47.256072998046875
0,601063,20.369853973388672,-45.16403579711914,-43.0948600769043,-73.1990966796875
0,601256,44.69021987915039,85.81969451904297,-7.978857040405273,-601.78173828125
0,601256,208.24807739257812,154.9926300048828,81.3817138671875,-577.1197509765625
0,601256,-251.19854736328125,-103.28518676757812,-144.4853515625,1053.9609375
0,601256,-250.16726684570312,-101.55943298339844,-113.20008850097656,766.5917358398438
0,601256,70.52389526367188,44.109127044677734,77.5790786743164,-212.67617797851562
0,601256,50.20542526245117,25.76194190979004,72.926025390625,-187.8936309814453
0,601257,94.47073364257812,18.27811622619629,61.869449615478516,-402.1089172363281
0,601257,88.09004211425781,37.50949478149414,78.93610382080078,-417.0448303222656
0,601257,60.200347900390625,17.0540771484375,55.280174255371094,-227.88226318359375
0,601257,-2.2584547996520996,-13.643200874328613,-29.302143096923828,55.74114227294922
0,601257,-77.28768157958984,-25.700422286987305,-67.03186798095703,284.3992004394531
0,601257,-103.44670104980469,-39.247257232666016,-64.6598892211914,393.0655822753906
0,601258,-86.60942077636719,-35.37278747558594,-60.576351165771484,363.328369140625
0,601258,-34.46728515625,-30.118764877319336,-31.66396713256836,188.51087951660156
0,601258,-0.32439979910850525,-22.359193801879883,24.791593551635742,-49.4154052734375
0,601258,55.28676223754883,23.55815315246582,42.255558013916016,-231.2397003173828
0,601258,74.49346923828125,40.8519401550293,50.927268981933594,-294.10699462890625
0,601259,51.12406921386719,26.735950469970703,66.60731506347656,-273.4423522949219
0,601259,59.1243782043457,21.382068634033203,23.379802703857422,-171.18382263183594
0,601259,2.105705499649048,8.112359046936035,-25.632795333862305,21.749736785888672
0,601259,-40.710567474365234,-4.576429843902588,-46.65412521362305,181.76931762695312
0,601259,-42.1016731262207,-26.76875114440918,-35.51930618286133,223.4237060546875
0,601259,-48.491233825683594,-35.412330627441406,-4.2137250900268555,184.4344024658203
0,601260,-31.58505630493164,-8.132902145385742,-13.7382173538208,109.87017822265625
0,601260,9.212783813476562,13.883502960205078,-1.7336578369140625,-8.494993209838867
0,601260,47.12012481689453,23.774606704711914,42.14935302734375,-107.44766235351562
0,601260,38.24665069580078,13.167964935302734,44.8715705871582,-146.9112091064453
0,601260,40.37849426269531,10.44532299041748,13.517656326293945,-161.6780548095703
0,601260,37.216121673583984,9.691120147705078,-16.057527542114258,-96.37161254882812
0,601261,-27.516834259033203,-14.650520324707031,-22.374618530273438,12.257145881652832
0,601261,-49.05727005004883,-1.724757194519043,0.5915001034736633,89.77484130859375
0,601261,-8.159841537475586,-0.8317155838012695,-20.357837677001953,157.1097412109375
0,601261,-19.428632736206055,-3.2799277305603027,-43.1713752746582,138.16709899902344
0,601261,-38.13599395751953,-10.849715232849121,-5.7744293212890625,35.493900299072266
0,601261,8.595911979675293,-15.765482902526855,16.629106521606445,-32.27748107910156
0,601262,48.120086669921875,33.500240325927734,10.901514053344727,-103.65412139892578
0,601262,31.669095993041992,24.52217674255371,13.98686408996582,-116.08030700683594
0,601262,18.08925437927246,-10.814910888671875,29.354833602905273,-78.57838439941406
0,601262,14.155327796936035,5.368828296661377,20.040130615234375,-80.24102783203125
0,601262,-0.004977705888450146,7.067378520965576,-3.569078207015991,-40.642356872558594
0,601262,-8.58857536315918,-3.244900703430176,-10.630757331848145,53.44160461425781
0,601263,-24.59895133972168,-6.784165859222412,-2.686361789703369,87.48656463623047
0,601263,-44.9056282043457,-1.9666073322296143,0.47240322828292847,31.449399948120117
0,601263,-8.63321590423584,0.9140183329582214,-0.2015569657087326,19.263572692871094
0,601263,40.93843460083008,-3.3479952812194824,-7.326024055480957,6.423680782318115
0,601263,14.175662994384766,-0.029073473066091537,-1.3760416507720947,-62.07693099975586
0,601264,7.2141194343566895,-8.686799049377441,7.42037296295166,-90.79994201660156
0,601264,43.436317443847656,6.247138500213623,20.271791458129883,-94.89083099365234
0,601264,29.21180534362793,18.889877319335938,15.887389183044434,-65.84797668457031
0,601264,2.4117445945739746,-4.275043964385986,-6.8297834396362305,13.93423843383789
0,601264,23.88814353942871,-4.842594623565674,-4.70398473739624,55.5217170715332
0,601264,15.438218116760254,-6.486667633056641,-8.668977737426758,26.145849227905273
0,601265,-43.83488845825195,-24.559432983398438,-1.936387062072754,19.01068878173828
0,601265,-44.70698165893555,5.4774556159973145,-12.114387512207031,13.538747787475586
0,601265,32.36316680908203,16.16766929626465,-6.008296012878418,-11.584795951843262
0,601265,27.089567184448242,15.19519329071045,29.0615177154541,-13.218713760375977
0,601265,-22.92903709411621,14.869521141052246,20.91581916809082,-34.508121490478516
0,601265,34.62656021118164,-32.079341888427734,6.0161213874816895,-49.85602951049805
0,601266,28.097375869750977,-12.319207191467285,8.916110038757324,-36.80371856689453
0,601266,-39.99605941772461,21.458694458007812,-14.331148147583008,12.922521591186523
0,601266,-39.53093338012695,-9.317208290100098,-36.607460021972656,27.697509765625
0,601266,-23.181978225708008,-41.76624298095703,-10.284356117248535,35.94633102416992
0,601266,-23.431148529052734,-6.794800758361816,10.58138370513916,61.48514175415039
0,601266,-17.717742919921875,31.74066734313965,-4.4518561363220215,3.687978982925415
0,601267,0.42734381556510925,-15.38318157196045,-10.26870346069336,-16.820972442626953
0,601267,-13.48337459564209,-26.71511459350586,8.95561408996582,13.815899848937988
0,601267,-19.197019577026367,18.003196716308594,-5.805397033691406,-22.387739181518555
1,601267,-17.08852195739746,9.277570724487305,-0.8882526755332947,-23.170488357543945
1,601267,-12.552897453308105,-8.091325759887695,24.759437561035156,21.438037872314453
1,601267,3.3815791606903076,18.89142417907715,-0.9611259698867798,14.584884643554688
1,601268,9.826460838317871,7.522009372711182,-10.181605339050293,-8.929136276245117
1,601268,1.811462640762329,-5.57457160949707,-0.3888321816921234,15.920809745788574
1,601268,12.2164888381958,22.435287475585938,-5.048286437988281,64.2204818725586
1,601268,25.147077560424805,5.002583026885986,-13.839366912841797,30.108552932739258
1,601268,4.12726354598999,-7.950423717498779,0.754545271396637,-15.718151092529297
1,601268,11.887754440307617,-7.119199752807617,10.954643249511719,-1.807325839996338
1,601269,6.148752212524414,-9.414571762084961,-4.108461856842041,10.780810356140137
1,601269,12.202823638916016,21.03471565246582,7.198528289794922,-20.28127670288086
1,601269,39.13970184326172,7.83064079284668,-3.2105603218078613,-25.476333618164062
1,601269,-2.5325727462768555,-16.31947135925293,-29.725444793701172,22.969928741455078
1,601269,-13.304773330688477,-0.5881564021110535,-5.137914657592773,28.9913272857666
1,601269,12.731451034545898,14.758365631103516,20.657005310058594,13.407258987426758
1,601270,-19.031620025634766,-1.2006542682647705,-0.7974255681037903,7.642601490020752
1,601270,-15.602150917053223,-24.767091751098633,-19.607479095458984,-22.097211837768555
1,601270,16.27992820739746,1.744728684425354,-12.249731063842773,-46.0632209777832
1,601270,-13.982257843017578,-6.30069637298584,17.360280990600586,-29.324472427368164
1,601270,-23.25631332397461,-3.094123125076294,35.59518814086914,-30.718448638916016
1,601270,10.646784782409668,20.7291202545166,-8.08121395111084,-25.049072265625
1,601271,-9.584548950195312,-15.102347373962402,-5.049758434295654,8.886374473571777
1,601271,-7.688389301300049,-12.483600616455078,9.90594482421875,10.1466064453125
1,601271,19.101167678833008,10.831839561462402,-26.826601028442383,-4.9599199295043945
1,601271,-12.977208137512207,-8.426307678222656,-17.577882766723633,-24.120891571044922
1,601271,-13.114490509033203,-3.672334909439087,4.883618354797363,16.41505241394043
1,601271,-1.885366678237915,7.566999912261963,15.823317527770996,55.29655456542969
1,601272,2.9711050987243652,-7.359928607940674,12.097816467285156,18.14677619934082
1,601272,24.140867233276367,13.468060493469238,7.091952800750732,26.96504783630371
1,601272,7.465766429901123,15.433183670043945,-5.568946838378906,14.868876457214355
1,601273,-18.00550079345703,-11.00202465057373,-59.92026901245117,86.92984008789062
1,601273,-3.679504632949829,-6.164017200469971,-41.35882568359375,129.9882049560547
1,601274,-4.312617778778076,18.13507080078125,18.22433853149414,-19.06130027770996
1,601274,-20.270559310913086,7.595390796661377,33.31183624267578,10.34519100189209
1,601274,1.6558960676193237,-0.5007074475288391,14.777881622314453,53.01486587524414
1,601274,2.5808193683624268,20.306840896606445,-26.554094314575195,0.24296598136425018
1,601274,-18.34276580810547,-6.8186869621276855,-11.260978698730469,13.477682113647461
1,601274,-13.362005233764648,-15.30319595336914,11.59592342376709,-12.960667610168457
1,601275,-6.116448879241943,-9.02134895324707,-4.499215602874756,-13.1591796875
1,601276,-65.35452270507812,-33.71379470825195,-50.24757766723633,251.0279998779297
1,601277,-105.85612487792969,-59.19292068481445,-68.66609191894531,378.35711669921875
1,601280,-75.98546600341797,-33.008968353271484,-40.58966827392578,225.86544799804688
1,601281,-55.19074249267578,49.64805603027344,-12.317673683166504,163.3509979248047
1,601284,84.28062438964844,30.30857276916504,122.5755615234375,-276.7893981933594
1,601285,273.2362060546875,-9.858455657958984,174.73709106445312,-744.4718017578125
1,601288,304.1289978027344,154.53846740722656,159.9993438720703,-760.659912109375
1,601289,-31.27216339111328,115.32836151123047,74.25975799560547,-314.0084228515625
1,601292,-146.65869140625,-167.34976196289062,-135.5814971923828,-51.453060150146484
1,601293,62.77776336669922,-77.6943359375,-78.74890899658203,-72.53346252441406
1,601296,-144.39036560058594,50.26927185058594,-116.4520263671875,772.4508056640625
1,601297,-122.16761016845703,-33.524757385253906,-138.0081787109375,700.0286254882812
1,601300,52.19367599487305,-26.996726989746094,101.36087799072266,-74.88629913330078
1,601301,9.060257911682129,-39.49568176269531,29.615461349487305,196.92938232421875
1,601304,-38.79338455200195,-17.669984817504883,-70.69453430175781,-106.57743072509766
1,601305,-70.46173095703125,35.95781326293945,53.732242584228516,-540.5366821289062
1,601308,104.08126831054688,32.676509857177734,118.6241226196289,-336.40985107421875
1,601309,134.646728515625,20.3704833984375,35.5401725769043,-34.879398345947266
1,601312,63.26254653930664,34.76894760131836,-20.880937576293945,-33.60470199584961
1,601313,-9.529760360717773,53.00973129272461,-14.413610458374023,-162.6799774169922
1,601316,-203.31166076660156,-54.545677185058594,-175.2156982421875,573.3086547851562
1,601317,-113.08451843261719,-61.473716735839844,-104.70211791992188,513.6699829101562
1,601320,73.36742401123047,31.00677490234375,242.79324340820312,-180.9856719970703
1,601321,-6.794464588165283,0.5526153445243835,83.12084197998047,121.07512664794922
1,601324,65.13062286376953,-48.99591064453125,-154.58160400390625,-42.86871337890625
1,601325,-38.94021224975586,21.22090721130371,84.7263412475586,-366.26611328125
1,601580,-41.6102294921875,68.6352310180664,59.646183013916016,-270.75067138671875
1,601582,260.8833923339844,-19.199188232421875,-134.21484375,-50.1274299621582
1,601584,-16.297014236450195,-39.480140686035156,2.624650239944458,126.89436340332031
1,601586,-152.05288696289062,21.727880477905273,67.92987823486328,-42.35725402832031
1,601588,-38.130306243896484,-14.587449073791504,-80.75503540039062,413.4398193359375
1,601590,1.344892144203186,-14.18781852722168,-26.563480377197266,278.13238525390625
1,601592,54.71492385864258,96.01726531982422,28.355682373046875,-292.411865234375
1,605364,134.92857360839844,29.85919952392578,122.9822998046875,-814.8462524414062
1,605364,154.632568359375,-63.79927444458008,151.77542114257812,-716.6912841796875
1,605364,-203.14306640625,-40.53498077392578,-221.7653045654297,955.2247314453125
1,605364,-225.3929901123047,-35.93357467651367,-159.40008544921875,946.6875
1,605364,-11.456733703613281,-20.792879104614258,53.70096969604492,42.12083435058594
1,605364,9.15168285369873,-7.397039890289307,10.888649940490723,-29.073894500732422
1,605365,76.25721740722656,28.41223907470703,83.7627944946289,-291.6808166503906
1,605365,106.51931762695312,60.37459945678711,107.26112365722656,-467.41693115234375
1,605365,71.24369812011719,15.863570213317871,32.64580535888672,-408.51568603515625
1,605365,29.43678855895996,8.91392707824707,-24.187231063842773,-169.37831115722656
1,605365,-20.44797706604004,11.378273963928223,-37.139652252197266,90.1929931640625
1,605366,-42.146087646484375,-27.094316482543945,-58.232967376708984,292.9315185546875
1,605366,-67.67644500732422,-22.341875076293945,-54.99812698364258,379.4993896484375
1,605366,-84.80496978759766,-34.58732986450195,-35.070884704589844,294.14886474609375
1,605366,-34.687252044677734,-19.099327087402344,-19.211435317993164,135.64039611816406
1,605366,17.8436336517334,32.93942642211914,30.73271942138672,-45.43952178955078
1,605366,50.152191162109375,12.59634017944336,86.76018524169922,-219.25186157226562
1,605367,60.238624572753906,6.877382278442383,76.36376190185547,-285.5261535644531
1,605367,54.95502471923828,27.486427307128906,4.385725975036621,-270.45208740234375
1,605367,33.05266571044922,-1.777381420135498,-7.5895161628723145,-140.02719116210938
1,605367,-10.43233585357666,-5.608755588531494,-20.321393966674805,67.9665298461914
1,605367,-46.20090103149414,-0.3286595344543457,-78.57928466796875,195.01834106445312
1,605367,-62.917781829833984,-28.52269172668457,-43.59267807006836,258.0948791503906
1,605368,-50.287532806396484,-9.39691162109375,-19.707048416137695,252.37820434570312
1,605368,-15.777640342712402,3.963808059692383,-26.002273559570312,111.18109130859375
1,605368,11.468537330627441,-8.050925254821777,29.454322814941406,-20.30454444885254
1,605368,25.03125,16.965686798095703,57.67998504638672,-84.1430892944336
1,605368,28.249238967895508,-0.7858641147613525,21.535247802734375,-172.9364471435547
1,605368,19.38715171813965,-7.007130146026611,7.1679582595825195,-173.23521423339844
1,605369,0.45946794748306274,26.579755783081055,0.28363972902297974,-39.30793762207031
1,605369,8.907591819763184,15.980327606201172,-32.2531623840332,60.438480377197266
1,605369,3.5319366455078125,-2.041492223739624,-27.71919059753418,108.77933502197266
1,605369,-59.9294548034668,-28.195667266845703,-40.15602493286133,155.62945556640625
1,605369,-56.300899505615234,-27.333473205566406,-41.510074615478516,126.38895416259766
1,605370,8.639693260192871,0.7928019165992737,8.237255096435547,63.12282943725586
1,605370,16.723920822143555,-11.982559204101562,16.230419158935547,1.5603402853012085
1,605370,-3.0781068801879883,-8.44820499420166,20.506256103515625,-71.73504638671875
1,605370,11.064583778381348,17.32976531982422,31.928524017333984,-116.98516082763672
1,605370,49.706607818603516,21.914775848388672,-4.9425129890441895,-96.53610229492188
1,605370,18.93292236328125,16.498498916625977,0.19470450282096863,-22.044109344482422
1,605371,-23.982336044311523,7.64372444152832,15.644476890563965,16.828763961791992
1,605371,-23.871973037719727,-16.736413955688477,-40.12818145751953,36.09983825683594
1,605371,-33.27349090576172,-31.16646957397461,-22.855510711669922,85.83563232421875
1,605371,-1.4863673448562622,19.23653221130371,13.474226951599121,97.67916870117188
1,605371,23.463529586791992,7.924103260040283,-3.1362757682800293,38.42879867553711
1,605371,3.84732723236084,-24.88379669189453,3.7435364723205566,-29.196020126342773
1,605372,-9.144257545471191,6.879284858703613,3.108905553817749,-57.566383361816406
1,605372,19.402626037597656,-5.494828701019287,27.380285263061523,-65.99130249023438
1,605372,41.73095703125,14.174059867858887,33.659141540527344,-72.90409851074219
1,605372,18.432069778442383,18.991239547729492,-5.906898498535156,-40.28815460205078
