Aktueller Finger,timestamp_ms,sensor_0,sensor_1,sensor_2,sensor_3
0,101322,2393.384765625,2384.569091796875,2366.267333984375,2381.976806640625
0,101325,2151.799072265625,2146.592529296875,2134.020751953125,2140.9794921875
0,101326,-2241.065185546875,-2231.3232421875,-2196.004638671875,-2226.584228515625
0,101329,-1312.384765625,-1325.4832763671875,-1316.8929443359375,-1306.99853515625
0,101330,550.933349609375,533.9553833007812,515.0186767578125,535.5577392578125
0,101333,-319.3628845214844,-312.46112060546875,-302.65924072265625,-329.80804443359375
0,101334,-235.65321350097656,-214.23495483398438,-248.8714599609375,-246.9484100341797
0,101337,-254.8932647705078,-230.2505340576172,-233.78489685058594,-219.2772216796875
0,101338,-462.29083251953125,-479.0474853515625,-415.3683166503906,-400.6825866699219
0,101341,-483.8334045410156,-495.63018798828125,-511.1290588378906,-522.8911743164062
0,101343,-391.06939697265625,-378.3808288574219,-396.9710388183594,-425.9216003417969
0,101345,-225.97927856445312,-231.28414916992188,-212.53871154785156,-224.31724548339844
0,101347,-36.033260345458984,-30.776159286499023,-32.68855667114258,-50.07147216796875
0,101349,144.794677734375,158.6559600830078,160.5909881591797,203.54417419433594
0,101351,305.8388977050781,289.5331115722656,278.03643798828125,301.15570068359375
0,101353,321.0055236816406,300.9918212890625,297.79937744140625,283.1604919433594
0,101355,165.69381713867188,200.79568481445312,215.29598999023438,227.51551818847656
0,101357,23.78440284729004,38.95602035522461,29.591747283935547,9.462705612182617
0,101359,-55.739463806152344,-75.31117248535156,-100.25342559814453,-113.82969665527344
0,101361,-137.13986206054688,-135.9657440185547,-129.79551696777344,-110.80999755859375
0,101363,-144.02642822265625,-161.9598388671875,-152.29197692871094,-142.35409545898438
0,101366,-87.71855926513672,-111.27618408203125,-96.09758758544922,-95.41046905517578
0,101367,-13.770021438598633,18.19936180114746,23.00447654724121,16.365100860595703
0,101368,124.06684875488281,151.47286987304688,119.47589111328125,96.09628295898438
0,101371,200.4114227294922,164.47930908203125,177.5869598388672,161.70416259765625
0,101372,143.58607482910156,138.8937225341797,144.20094299316406,158.38116455078125
0,101375,90.88533782958984,108.07005310058594,86.56097412109375,93.64531707763672
0,101376,21.735809326171875,7.756624221801758,41.31269836425781,29.66560173034668
0,101379,-93.17240905761719,-87.16834259033203,-48.873069763183594,-61.056312561035156
0,101381,-128.40322875976562,-112.00323486328125,-163.06613159179688,-127.41427612304688
0,101383,-90.26763916015625,-92.20430755615234,-159.50027465820312,-122.71981811523438
0,101385,-75.31074523925781,-83.38690185546875,-41.14228820800781,-86.05767059326172
0,101387,-12.453703880310059,-20.64909553527832,22.150177001953125,6.732771873474121
0,101389,62.52067565917969,70.10785675048828,44.85321807861328,70.71263885498047
0,101391,88.73280334472656,94.11955261230469,92.86979675292969,98.09796905517578
0,101393,112.5457534790039,102.0499038696289,103.71532440185547,115.92388153076172
0,101395,32.8266716003418,37.42719650268555,40.605682373046875,44.39041519165039
0,101397,-19.28719711303711,-21.25438690185547,-2.31380033493042,-14.253746032714844
0,101399,-19.47845458984375,-19.783994674682617,-33.75434494018555,-65.28133392333984
0,101401,-79.64028930664062,-73.9059829711914,-76.3307876586914,-94.26368713378906
0,101403,-64.76460266113281,-72.88587951660156,-71.59541320800781,-45.036373138427734
0,101405,-36.45559310913086,-28.20532989501953,-31.708057403564453,-35.557106018066406
0,101407,-11.631367683410645,-32.6439208984375,-1.7281461954116821,19.923294067382812
0,101409,37.60824966430664,28.841684341430664,6.683138370513916,33.04691696166992
0,101411,39.05073928833008,89.94244384765625,42.453025817871094,20.386323928833008
0,101413,58.89454650878906,35.950164794921875,79.61382293701172,77.65894317626953
0,101415,58.17205047607422,-14.545929908752441,54.35578536987305,15.657569885253906
0,101417,-14.694125175476074,43.42687225341797,-10.079498291015625,-18.761777877807617
0,101419,-33.918819427490234,18.010648727416992,-53.419769287109375,-30.121578216552734
0,101421,-29.712888717651367,-88.25199127197266,-48.837623596191406,-46.4154052734375
0,101423,-69.46133422851562,-51.1708984375,-19.076581954956055,-24.011760711669922
0,101425,-44.69031524658203,-9.537039756774902,-14.310847282409668,-40.743568420410156
0,101427,24.893638610839844,-2.1220414638519287,-25.83683967590332,17.322179794311523
0,101429,41.13603973388672,24.211307525634766,30.575376510620117,40.40153884887695
0,101499,-10.832937240600586,-12.081430435180664,-2.489198684692383,-19.57018280029297
0,101499,-20.144073486328125,-24.019441604614258,-19.019695281982422,-5.479392051696777
0,101500,10.399857521057129,32.001041412353516,9.243623733520508,11.534078598022461
0,101503,-17.705608367919922,-11.618782997131348,-7.407906532287598,-26.752492904663086
0,101504,-18.44640350341797,-24.335010528564453,-24.842552185058594,-5.786324501037598
0,101507,21.620664596557617,-10.599778175354004,25.13022232055664,27.63873291015625
0,101508,-2.3085200786590576,18.021398544311523,-1.6787102222442627,10.358717918395996
0,101511,3.5584826469421387,62.36539077758789,-3.100639581680298,-25.434467315673828
0,101512,18.202857971191406,-21.945043563842773,10.53058910369873,-16.954317092895508
0,101515,-31.734899520874023,-43.09871292114258,-27.2043514251709,19.323986053466797
0,101516,-10.500250816345215,12.774030685424805,12.173521995544434,9.309691429138184
0,101519,30.642383575439453,8.905649185180664,32.5923957824707,1.199079990386963
0,101520,-8.807316780090332,-5.190576553344727,-6.024768829345703,29.880199432373047
0,101523,-9.014151573181152,3.5729317665100098,-24.104652404785156,-38.47658157348633
0,101524,15.026984214782715,5.823014259338379,-16.603897094726562,-87.79852294921875
0,101527,-4.594675064086914,-16.400569915771484,6.080554485321045,43.167991638183594
0,101528,-8.731718063354492,-12.041476249694824,11.8644437789917,84.4866714477539
0,101531,-6.251087188720703,19.940601348876953,-12.272223472595215,-34.565670013427734
0,101532,-10.972509384155273,-7.289705276489258,12.709110260009766,-25.063207626342773
0,101535,38.08182144165039,-1.6747550964355469,28.869598388671875,45.37583923339844
0,101536,41.484397888183594,37.23974609375,-0.5943698287010193,-2.0412158966064453
0,101539,-53.858001708984375,-25.149831771850586,-10.397839546203613,-25.36672019958496
0,101540,-51.172752380371094,-43.93190002441406,-29.7322998046875,-23.393470764160156
0,101543,24.41192626953125,25.60597038269043,-2.0744869709014893,0.884416937828064
0,101544,32.98704528808594,48.443885803222656,25.036130905151367,39.391353607177734
0,101547,9.46790885925293,-22.89757537841797,-17.74247169494629,-8.87149429321289
0,101548,-11.256797790527344,-13.995335578918457,-3.3210108280181885,-21.002174377441406
0,101551,-8.714934349060059,41.060874938964844,30.280704498291016,12.83471393585205
0,101552,29.843660354614258,-3.487399101257324,-8.55603313446045,0.590610146522522
0,101555,-7.589273929595947,-47.35725784301758,-25.241540908813477,-17.829952239990234
0,101556,-43.065162658691406,-12.045380592346191,3.4322407245635986,16.41099739074707
0,101559,8.54410171508789,32.502620697021484,5.0998687744140625,16.088319778442383
0,101560,12.872514724731445,5.099618434906006,-8.48138427734375,-24.52347183227539
0,101563,-4.753788948059082,-22.11676788330078,12.4118070602417,13.598260879516602
0,101564,-7.570862770080566,-21.959136962890625,17.37621307373047,5.012643337249756
0,101567,14.415872573852539,14.641946792602539,-19.33530616760254,-33.888248443603516
0,101568,25.698291778564453,40.277191162109375,-3.9997215270996094,30.21892547607422
0,101571,-15.588532447814941,-9.54820728302002,22.167966842651367,15.224555015563965
0,101572,-9.90962028503418,-20.11701011657715,-0.9025591015815735,-62.98735427856445
0,101577,9.540130615234375,6.533751487731934,-17.72066307067871,54.67002487182617
0,101577,-0.9892704486846924,0.5218958258628845,-11.719587326049805,75.34459686279297
0,101579,9.613122940063477,-1.4955589771270752,17.605886459350586,-64.05237579345703
0,101581,-8.775588035583496,16.706621170043945,34.61543655395508,-46.11911392211914
0,101583,-7.471468925476074,22.278705596923828,-5.065648078918457,-23.707469940185547
0,101585,12.619338989257812,-22.173646926879883,-36.112945556640625,-4.454024314880371
0,101587,-33.06760787963867,-48.8714599609375,-24.846284866333008,39.64928436279297
0,101589,-5.921240329742432,1.7300441265106201,14.728414535522461,44.9151725769043
0,101591,57.761558532714844,30.846670150756836,43.595123291015625,-8.012274742126465
0,101593,-18.65243911743164,3.0046088695526123,-22.70301628112793,-89.88996887207031
0,101595,-39.85372543334961,3.0191221237182617,-21.16436767578125,71.14501953125
0,101597,22.84429359436035,1.6402560472488403,27.440584182739258,80.5025863647461
0,101599,-8.16712474822998,-17.54305648803711,-10.701066970825195,-69.48296356201172
0,101601,-2.8955748081207275,8.787363052368164,-16.3730525970459,36.345375061035156
0,101603,21.389192581176758,-6.482967853546143,10.036369323730469,-31.385026931762695
0,101605,-4.826049327850342,-19.164283752441406,7.606654167175293,-144.68153381347656
0,101607,-4.134494304656982,27.391508102416992,-6.646228313446045,60.50067901611328
0,101609,12.802762985229492,22.795799255371094,24.712587356567383,239.55368041992188
0,101611,0.9779320359230042,5.2125020027160645,15.337236404418945,-78.23028564453125
0,101613,-12.883362770080566,-12.856760025024414,-39.40169143676758,-196.56703186035156
0,101615,3.9067177772521973,-31.446346282958984,-24.474925994873047,-4.688735485076904
0,101617,5.597326278686523,19.8516902923584,26.271617889404297,-38.997013092041016
0,101619,-4.071927547454834,24.93531036376953,14.80549144744873,76.7595443725586
0,101621,-7.1499104499816895,-46.17640686035156,-19.359149932861328,208.46710205078125
0,101623,2.7715251445770264,-34.031070709228516,8.327495574951172,109.3857650756836
0,101625,7.037257671356201,32.89232635498047,3.623318910598755,-99.83272552490234
0,101627,-14.409466743469238,23.38541030883789,-15.68466567993164,-273.050537109375
0,101629,4.342789173126221,-25.835962295532227,-1.6714938879013062,-197.60252380371094
0,101631,14.063905715942383,4.739460468292236,-2.84429669380188,162.4353790283203
0,101633,-14.254517555236816,39.12782669067383,17.997835159301758,181.4345703125
0,101636,4.835561275482178,13.368250846862793,25.612163543701172,18.13144874572754
0,101637,-6.027009010314941,-55.9607048034668,-42.300270080566406,-36.64400100708008
0,101638,-14.747700691223145,-18.43393898010254,-20.184368133544922,-84.12383270263672
0,101641,21.076431274414062,70.70040130615234,50.758934020996094,56.762699127197266
0,101642,-0.7590550184249878,18.116374969482422,4.836187839508057,48.37421417236328
0,101645,-5.152047634124756,-21.34402084350586,-10.038338661193848,-30.038803100585938
0,101646,33.1659049987793,-20.980384826660156,1.1870208978652954,35.43055725097656
0,101649,-12.535907745361328,-38.49143600463867,-21.004528045654297,25.722929000854492
0,101650,-40.49766159057617,-0.6903151273727417,7.950048923492432,8.514238357543945
0,101653,12.882293701171875,37.405052185058594,15.517468452453613,21.132722854614258
0,101654,15.814886093139648,-11.110432624816895,-21.756128311157227,-56.84426498413086
0,101657,0.8557391166687012,-34.962650299072266,3.1388964653015137,-76.21282196044922
0,101658,-1.5551902055740356,26.246788024902344,5.678863048553467,-9.820235252380371
0,101661,-8.149438858032227,28.86922264099121,-9.788371086120605,15.364346504211426
0,101662,10.603967666625977,-30.317161560058594,15.762299537658691,9.053730964660645
0,101665,-9.833264350891113,-15.803985595703125,-10.233512878417969,-1.6159723997116089
0,101666,-23.026491165161133,44.58156204223633,-14.190299034118652,27.013038635253906
0,101670,27.788606643676758,43.31283187866211,9.927469253540039,45.84050369262695
0,101670,9.61972427368164,-40.99276351928711,4.930607318878174,1.3359061479568481
0,101673,-22.38749885559082,-48.60184097290039,5.8690409660339355,-31.36557960510254
0,101674,-4.030628204345703,47.39125061035156,10.134024620056152,-9.091814994812012
0,101677,22.118408203125,40.25614547729492,-9.9168701171875,-7.025754928588867
0,101678,6.434372901916504,-39.862979888916016,-11.390915870666504,-47.06847381591797
0,101681,-15.981678009033203,-27.03453254699707,19.383060455322266,-7.516502857208252
0,101682,19.263221740722656,-2.7907233238220215,-6.798028469085693,40.162864685058594
0,101685,-1.8867082595825195,-14.303491592407227,-16.64759635925293,9.313621520996094
0,101686,-13.773845672607422,26.36551856994629,3.3706841468811035,-30.494874954223633
0,101689,8.279419898986816,28.442167282104492,8.954682350158691,36.41155242919922
0,101690,-23.24979591369629,-55.14818572998047,3.6775479316711426,65.41545867919922
0,101693,-1.3864468336105347,-17.92761993408203,-16.76892852783203,-46.6983757019043
0,101694,20.13400650024414,58.80423355102539,1.4290778636932373,-28.61241912841797
0,101697,8.083284378051758,-4.778135776519775,19.442249298095703,19.572813034057617
0,101698,9.539016723632812,-38.83304977416992,0.8070706725120544,-9.364514350891113
0,101701,-46.130008697509766,17.372926712036133,-20.32917022705078,-15.05410099029541
0,101702,-21.920989990234375,49.27151870727539,8.010387420654297,-19.03777313232422
0,101705,70.17517852783203,-1.0095317363739014,20.739431381225586,17.5810604095459
0,101706,-5.385871887207031,-44.9832649230957,-26.115760803222656,19.41533660888672
0,101709,-57.73678970336914,-3.746856212615967,-4.063344478607178,4.030544757843018
0,101710,33.498409271240234,21.493356704711914,23.832983016967773,-2.7211527824401855
0,101713,14.77280330657959,-11.378996849060059,-19.13516616821289,-8.445919036865234
0,101714,-23.31850242614746,-11.65073013305664,-0.4142019748687744,20.88347053527832
0,101717,26.79940414428711,31.271289825439453,28.499143600463867,0.6922752857208252
0,101718,27.14750862121582,33.219337463378906,-3.435565948486328,-7.46533203125
0,101721,-30.005046844482422,-36.72185134887695,-21.52752113342285,-2.8600621223449707
0,101722,-20.5567684173584,-26.143278121948242,14.964025497436523,2.569197416305542
0,101725,12.776355743408203,11.867709159851074,4.982728004455566,3.4709417819976807
0,101726,-17.974069595336914,-24.876792907714844,-56.17896270751953,-14.67207145690918
0,101729,12.22573471069336,27.70505142211914,20.642711639404297,-3.1692581176757812
0,101730,29.46510887145996,26.95604705810547,47.22591781616211,-4.549681186676025
0,101733,-22.812442779541016,-41.38850784301758,-17.829925537109375,15.819469451904297
0,101734,-11.253792762756348,12.485235214233398,-11.241950988769531,22.35434341430664
0,101737,5.746811389923096,8.115289688110352,-13.463536262512207,-65.10242462158203
0,101738,-9.847817420959473,-19.725332260131836,-3.7980477809906006,-39.21495056152344
0,101741,7.904049873352051,29.547222137451172,16.463924407958984,78.26141357421875
0,101743,19.381948471069336,-0.8943086266517639,9.006983757019043,16.120899200439453
0,101745,-14.511482238769531,-35.47241973876953,1.868751883506775,-10.604802131652832
0,101747,-4.785147190093994,7.405734062194824,13.709040641784668,25.57130241394043
0,101749,22.429933547973633,15.705645561218262,-23.234254837036133,-21.021987915039062
0,101751,-31.02755355834961,0.21173523366451263,-23.48484230041504,0.5531673431396484
0,101753,-19.285480499267578,3.2785696983337402,39.49872970581055,-0.20634664595127106
0,101755,28.526777267456055,3.56705641746521,2.4039692878723145,-12.826488494873047
0,101757,-2.5039243698120117,-8.5432767868042,-36.556182861328125,1.000684142112732
0,101759,-1.224463939666748,-9.164250373840332,-0.003568895161151886,-7.365599155426025
0,101761,24.78917694091797,10.599839210510254,18.047800064086914,0.8515620827674866
0,101763,-7.216033458709717,7.050717830657959,-21.487110137939453,-0.08095553517341614
0,101765,-22.762041091918945,-14.142274856567383,7.088974475860596,-5.460327625274658
0,101767,31.142065048217773,-5.152503490447998,54.04965591430664,-7.5594611167907715
0,101769,10.1719388961792,27.3314151763916,-14.44735050201416,21.04372215270996
0,101771,-39.067718505859375,-4.468922138214111,-37.149879455566406,7.630630970001221
0,101773,0.4172697365283966,-37.961055755615234,21.06142807006836,-48.087669372558594
0,101775,21.229236602783203,-2.3286027908325195,12.340924263000488,5.838066577911377
0,101779,5.814404487609863,25.341371536254883,-41.25535202026367,40.13351821899414
0,101779,-7.35565185546875,15.927302360534668,-4.645050525665283,-22.894691467285156
0,101781,-3.6924140453338623,-8.744640350341797,40.53774642944336,13.348021507263184
0,101782,-6.204202175140381,-12.77656078338623,15.146750450134277,45.163330078125
0,101785,-16.35483741760254,6.765130519866943,-17.47264862060547,-26.22236442565918
0,101786,-6.458357810974121,20.65167236328125,-22.210416793823242,-14.200416564941406
0,101789,3.2066550254821777,-6.024284362792969,-13.883087158203125,-2.452707290649414
0,101790,23.836423873901367,-39.267799377441406,11.663803100585938,-36.30080032348633
0,101793,-15.728199005126953,2.839674234390259,12.568473815917969,32.32151794433594
0,101794,-16.274267196655273,40.81130599975586,-16.26831817626953,55.42892837524414
0,101797,41.44239044189453,-10.6896333694458,10.822211265563965,-33.72219467163086
0,101798,-1.2650843858718872,-30.600357055664062,12.337261199951172,-171.55702209472656
0,101801,-17.78933334350586,13.111227989196777,-3.5075225830078125,-18.0191593170166
0,101802,10.737203598022461,35.37913131713867,21.467689514160156,219.10708618164062
0,101805,20.05267333984375,1.4638429880142212,-4.538538455963135,190.0424041748047
0,101806,7.721142292022705,-27.432876586914062,-36.07707214355469,107.696044921875
0,101809,-45.99118423461914,-23.543222427368164,-5.601521015167236,-401.34466552734375
0,101810,-18.73956298828125,-0.13263723254203796,29.697370529174805,-275.1310729980469
0,101813,48.98431396484375,35.0548210144043,30.490747451782227,520.968505859375
0,101814,-4.44579553604126,-2.0395634174346924,-26.79789924621582,149.12025451660156
0,101817,-34.790252685546875,-7.672182559967041,-44.602996826171875,-375.6515197753906
0,101818,25.23233413696289,15.521636009216309,17.146461486816406,-89.5662841796875
0,101821,3.280012369155884,-16.889217376708984,23.669340133666992,-82.92396545410156
0,101822,-16.86768913269043,-5.654385089874268,-10.432452201843262,-164.87850952148438
0,101825,28.87355613708496,23.692276000976562,11.283522605895996,403.6810302734375
0,101826,1.8248752355575562,-7.791356086730957,16.973220825195312,340.55853271484375
0,101829,-37.48418426513672,-38.33878707885742,-55.03402328491211,-355.3479309082031
0,101830,-3.1027331352233887,17.18077278137207,-29.149795532226562,-250.59371948242188
0,101833,36.645530700683594,30.167957305908203,63.879539489746094,256.2332458496094
0,101834,-5.359097003936768,-15.087700843811035,-2.6199095249176025,230.62744140625
0,101837,-43.895599365234375,-11.914155960083008,-21.758352279663086,-303.4642333984375
0,101838,18.969236373901367,-4.824125289916992,42.43939208984375,-178.69020080566406
0,101841,15.412272453308105,1.1050331592559814,-14.438304901123047,324.8812561035156
0,101842,-24.142011642456055,6.306759834289551,-28.960487365722656,93.12345123291016
0,101845,14.619800567626953,-5.927135944366455,-5.036085605621338,-195.6345672607422
0,101846,32.52981948852539,12.441569328308105,15.318059921264648,-189.50270080566406
0,101849,17.612232208251953,21.931550979614258,45.65605545043945,-205.1507110595703
0,101850,-26.816207885742188,7.393860340118408,-2.4674532413482666,277.0041809082031
0,101853,-51.4232063293457,-11.48980712890625,-31.526315689086914,695.7592163085938
0,101854,14.899100303649902,-42.54658889770508,-2.5394785404205322,-155.9834442138672
0,101857,53.085723876953125,10.81921100616455,4.791180610656738,-858.453125
0,101858,-4.9513020515441895,29.27123260498047,-12.425884246826172,186.34759521484375
0,101861,-42.54828643798828,-17.86071014404297,-3.657360792160034,886.5873413085938
0,101862,1.1648104190826416,2.531639814376831,3.066318988800049,-153.5933837890625
0,101865,-1.9994198083877563,-63.06507110595703,-5.4640889167785645,-857.0591430664062
0,101866,-33.554405212402344,-60.2197265625,-9.15566635131836,-105.25753784179688
0,101869,42.52273178100586,140.1930694580078,28.80086326599121,503.16607666015625
0,101870,83.59715270996094,94.05593872070312,42.57621765136719,-119.41339111328125
0,101873,-26.206893920898438,-65.89990997314453,-20.331167221069336,-198.19931030273438
0,101874,-83.45298767089844,-18.9880428314209,-33.66855239868164,402.028076171875
0,101877,34.3068733215332,16.16407585144043,7.336330890655518,213.79086303710938
0,101878,31.35821533203125,-34.625370025634766,11.150161743164062,-93.14987182617188
0,101881,-49.28030776977539,-53.35444641113281,-23.461814880371094,-452.71893310546875
0,101882,8.706477165222168,-13.935287475585938,-22.254253387451172,-98.08101654052734
0,101885,14.580080032348633,44.623512268066406,9.427983283996582,661.8261108398438
0,101886,-8.313124656677246,61.26934051513672,28.833486557006836,63.113704681396484
0,101889,27.068588256835938,8.285069465637207,10.94840145111084,-484.32757568359375
0,101890,-4.00148868560791,-59.34977722167969,-14.7166109085083,-31.015769958496094
0,101893,-51.50624084472656,-72.37523651123047,-24.419275283813477,448.0188903808594
0,101894,-8.270370483398438,0.6232611536979675,-17.553226470947266,-62.72990798950195
0,101897,-42.003726959228516,-44.011688232421875,-13.468123435974121,-927.54638671875
0,101899,2.49019455909729,24.204801559448242,13.816807746887207,-143.03237915039062
0,101902,176.54185485839844,221.69786071777344,105.5782470703125,1057.45703125
0,101902,30.79547882080078,51.991241455078125,53.63931655883789,280.5110778808594
0,101905,-143.28851318359375,-132.65481567382812,-90.99478912353516,-176.1068572998047
0,101906,-45.06758499145508,-82.11152648925781,-73.11083984375,143.28611755371094
0,101909,26.140905380249023,-12.675553321838379,-11.6102933883667,-881.5983276367188
0,101910,10.018843650817871,37.17104721069336,29.556066513061523,-456.9824523925781
0,101913,41.50399398803711,70.080078125,87.13339233398438,1040.0335693359375
0,101914,56.111541748046875,14.717562675476074,23.776338577270508,263.2920837402344
0,101917,-79.41641998291016,-116.24366760253906,-100.75081634521484,-495.90362548828125
0,101918,-68.32275390625,-57.17807388305664,-41.88323211669922,-243.852783203125
0,101921,84.39713287353516,84.90596771240234,62.64006042480469,271.3182067871094
0,101922,24.359880447387695,47.52878952026367,8.062128067016602,54.037776947021484
0,101925,-53.736900329589844,-18.096548080444336,-31.157930374145508,-458.4720153808594
0,101926,-1.887643575668335,-17.17110824584961,-19.329509735107422,360.19464111328125
0,101929,21.683198928833008,10.46717643737793,-2.1284267902374268,324.6485595703125
0,101930,24.027612686157227,39.635616302490234,44.68294143676758,-99.79513549804688
0,101933,-5.8437180519104,-23.526779174804688,22.482938766479492,-264.03485107421875
0,101934,-47.24364471435547,-39.81648635864258,-37.9232292175293,-231.40118408203125
0,101937,-22.127546310424805,-22.443008422851562,-11.416702270507812,-74.4779052734375
0,101938,25.79143524169922,0.27555418014526367,31.752023696899414,66.10889434814453
0,101941,70.02117156982422,92.45628356933594,38.57706069946289,939.8812255859375
0,101942,-1.5816045999526978,-3.3549206256866455,-1.8852057456970215,154.99794006347656
0,101945,-62.250980377197266,-80.14657592773438,-67.7101821899414,-970.0453491210938
0,101946,-4.106991291046143,-29.398643493652344,-23.38331413269043,-381.7572326660156
0,101949,8.954645156860352,4.3716301918029785,44.376014709472656,406.0518493652344
0,101950,31.232500076293945,55.73292922973633,5.976741313934326,603.030029296875
0,101953,24.10257339477539,34.3136100769043,-19.216184616088867,-10.344647407531738
0,101954,-34.91497039794922,-16.247182846069336,5.090768814086914,-247.6844482421875
0,101957,-5.207188606262207,-9.621183395385742,25.481830596923828,-62.50227737426758
0,101958,20.910377502441406,7.936100959777832,1.437134027481079,-102.64912414550781
0,101961,-48.0838623046875,-33.47926330566406,-37.52447509765625,-298.55279541015625
0,101962,1.4453531503677368,-12.118683815002441,33.8250732421875,-182.0767364501953
0,101965,47.51993179321289,33.46315383911133,38.22875213623047,444.32513427734375
0,101966,-42.49647903442383,18.10455322265625,-50.79365158081055,191.478515625
0,101969,-25.252511978149414,-27.55008888244629,-41.14973831176758,-304.52728271484375
0,101970,42.606876373291016,-27.792531967163086,5.168454647064209,149.19827270507812
0,101973,6.335386276245117,37.09105682373047,42.9437370300293,488.69482421875
0,101974,-23.11026954650879,15.300104141235352,31.120529174804688,-263.2187805175781
0,101977,15.214935302734375,-3.7634036540985107,-51.29476547241211,-646.0665893554688
0,101978,-16.485231399536133,-13.698661804199219,-39.44388961791992,304.7640380859375
0,101981,-13.579985618591309,-18.13018035888672,49.47597885131836,494.57440185546875
0,101982,28.924591064453125,4.229854106903076,21.17734146118164,-505.0794982910156
0,101985,33.86480712890625,14.907231330871582,-34.004459381103516,-361.9934387207031
0,101986,35.18403625488281,20.763471603393555,22.920419692993164,571.903564453125
0,101989,-76.93159484863281,-84.93560791015625,1.959384799003601,103.24474334716797
0,101990,-70.79856872558594,-83.08047485351562,-54.57609176635742,-366.2137145996094
0,101993,126.51124572753906,160.33810424804688,69.34305572509766,164.83702087402344
0,101994,58.822967529296875,118.7083740234375,49.49610900878906,127.83477020263672
0,101997,-112.7734375,-125.69337463378906,-123.99437713623047,-180.1726531982422
0,101998,-5.025059223175049,-65.7798843383789,-34.57887649536133,-142.93658447265625
0,102001,65.07035827636719,65.41209411621094,91.41524505615234,191.24496459960938
0,102002,-12.801974296569824,50.771949768066406,44.14829635620117,341.24102783203125
0,102005,-56.39274215698242,-42.632293701171875,-35.63081359863281,-90.6717529296875
0,102006,-30.28329849243164,-94.82614135742188,-57.27946090698242,-72.94520568847656
0,102009,22.442832946777344,12.323173522949219,36.31911087036133,-135.83074951171875
0,102010,49.0766487121582,114.0301742553711,59.85232925415039,-285.23284912109375
0,102013,14.981698036193848,33.223777770996094,-5.882503986358643,175.5388641357422
0,102014,-49.91862487792969,-62.50132369995117,-50.7742919921875,107.55608367919922
0,102017,-35.07737350463867,-58.85801315307617,-43.805503845214844,-86.79357147216797
0,102018,8.546420097351074,3.8828046321868896,14.282308578491211,238.41285705566406
0,102021,37.66227722167969,49.41427993774414,19.94253921508789,32.84607696533203
0,102023,20.107938766479492,17.634611129760742,3.84883975982666,-403.5424499511719
0,102025,-8.745352745056152,-9.941910743713379,14.683904647827148,-30.860153198242188
0,102027,0.1513424515724182,-8.104288101196289,7.09048318862915,301.6563720703125
0,102029,-11.546001434326172,-9.6571044921875,-12.637872695922852,-26.730751037597656
0,102031,13.653005599975586,2.950225353240967,-4.497081756591797,-105.47080993652344
0,102033,16.849863052368164,-4.505591869354248,3.4330358505249023,73.61985778808594
0,102035,-49.82624435424805,-35.744361877441406,-8.305522918701172,86.2282943725586
0,102037,-8.220646858215332,1.9287265539169312,3.963714599609375,22.089223861694336
0,102039,27.634552001953125,19.169979095458984,10.628362655639648,-180.90892028808594
0,102042,-14.425169944763184,5.384591102600098,-7.253608703613281,-57.6292839050293
0,102042,10.666638374328613,10.619706153869629,16.980764389038086,166.54660034179688
0,102045,7.25408411026001,-10.23715591430664,6.067261219024658,48.26607894897461
0,102046,7.012739658355713,27.520009994506836,-23.051084518432617,16.886165618896484
0,102049,-2.3269810676574707,-0.6982523202896118,-14.741896629333496,-223.85794067382812
0,102050,-51.83826446533203,-75.1790771484375,-34.645973205566406,-143.0392608642578
0,102053,44.70866394042969,30.696495056152344,35.02457046508789,231.7337188720703
0,102054,68.25833892822266,55.41102981567383,54.93537139892578,32.339298248291016
0,102057,-59.495849609375,-31.947574615478516,-34.48238754272461,9.216775894165039
0,102058,-35.15057373046875,1.7242428064346313,-11.116984367370605,-99.56035614013672
0,102061,31.260969161987305,12.454781532287598,-18.617355346679688,-35.283329010009766
0,102062,4.62795352935791,-10.13960075378418,-15.563746452331543,299.4140319824219
0,102065,-6.871877670288086,-12.636271476745605,64.50634765625,-74.73046112060547
0,102066,-2.720832586288452,5.033669471740723,17.68985366821289,-181.44190979003906
0,102069,-3.2401976585388184,38.55836868286133,-34.24882125854492,-12.539280891418457
0,102070,9.066577911376953,-2.454178810119629,-6.499990463256836,58.54106521606445
0,102073,5.893284797668457,-57.06682586669922,-9.681962013244629,174.3359832763672
0,102074,-2.827589750289917,-5.9510908126831055,3.9282703399658203,-66.52088928222656
0,102077,9.06529712677002,48.762027740478516,14.766261100769043,-85.35842895507812
0,102078,1.6754398345947266,-16.8353271484375,-2.5977959632873535,68.0273208618164
0,102081,-41.7862548828125,-31.046924591064453,-23.96929931640625,-67.71351623535156
0,102082,-21.85808563232422,20.794958114624023,-17.589963912963867,-173.54100036621094
0,102085,46.26210403442383,23.32314682006836,40.77315139770508,45.0703125
0,102086,9.826102256774902,3.2362477779388428,8.031729698181152,159.2692413330078
0,102089,-35.204307556152344,-30.569107055664062,-48.62632751464844,-67.70892333984375
0,102090,2.805264711380005,-38.94551467895508,4.984506130218506,20.977340698242188
0,102093,15.178240776062012,37.61311721801758,47.56598663330078,-8.919061660766602
0,102094,15.04821491241455,64.15390014648438,15.052384376525879,-77.15938568115234
0,102097,11.50927734375,-35.54981231689453,-35.76264190673828,287.15228271484375
0,102098,-15.92988109588623,-66.15299224853516,-20.96485710144043,82.68136596679688
0,102101,-14.429067611694336,12.484246253967285,20.64385414123535,-309.7477722167969
0,102102,17.38743782043457,62.25952911376953,2.8569538593292236,-56.06349182128906
0,102105,0.32049450278282166,4.404137134552002,-4.3106842041015625,93.30693054199219
0,102106,-21.431062698364258,-40.86983108520508,12.243030548095703,-20.208385467529297
0,102109,3.0938847064971924,-5.728315353393555,-10.014806747436523,-20.226205825805664
0,102110,1.6991652250289917,36.51494216918945,-15.5858793258667,4.532390117645264
0,102113,7.873377799987793,-3.038083553314209,28.195281982421875,51.154727935791016
0,102114,9.505763053894043,-39.22140121459961,7.508525371551514,4.856210708618164
0,102117,-6.107839107513428,40.77741241455078,-18.011808395385742,-67.78585052490234
0,102118,30.3446102142334,48.328582763671875,9.902195930480957,15.215028762817383
0,102121,-0.6910368204116821,-49.580806732177734,-27.12796401977539,60.99894332885742
0,102122,-58.14450454711914,-35.906524658203125,-11.734498023986816,20.5241756439209
0,102125,0.5441074371337891,31.223697662353516,24.6900577545166,-15.051603317260742
0,102126,16.377504348754883,4.052374362945557,6.916471481323242,7.5183539390563965
0,102129,11.942842483520508,-11.413993835449219,8.255282402038574,15.002680778503418
0,102130,9.96355152130127,-1.6923695802688599,-11.589630126953125,-46.13541030883789
0,102133,-24.85344123840332,-27.144990921020508,-19.444272994995117,-112.6714859008789
0,102134,2.793678045272827,-2.3876121044158936,9.157560348510742,69.70609283447266
0,102137,7.227561950683594,40.208885192871094,22.351913452148438,145.31040954589844
0,102138,-25.267221450805664,-12.86584186553955,-14.938736915588379,-140.3738250732422
0,102141,5.780611515045166,-16.46146583557129,-14.263736724853516,-96.10799407958984
0,102142,35.5500373840332,31.59807014465332,17.054656982421875,120.51480865478516
0,102145,5.810648441314697,3.1317081451416016,2.217071533203125,87.85211944580078
0,102146,-7.45448112487793,-5.214119911193848,5.415210247039795,-37.198455810546875
0,102149,-6.102318286895752,4.34412145614624,13.329379081726074,-7.6634602546691895
0,102150,-1.4451534748077393,-4.325040340423584,-5.270012378692627,19.912979125976562
0,102153,-5.738455295562744,-6.320033073425293,-15.903007507324219,-122.96661376953125
0,102154,-6.642101764678955,-17.24871253967285,-13.559229850769043,-113.14120483398438
0,102157,20.05327033996582,-17.382919311523438,22.14218521118164,152.45266723632812
0,102159,-16.485183715820312,14.297355651855469,14.170609474182129,157.39273071289062
0,102161,1.2593103647232056,15.51285171508789,-39.65689468383789,-101.79158020019531
0,102163,39.991966247558594,8.631710052490234,-0.9362632632255554,-61.61810302734375
0,102165,-22.273452758789062,-14.038838386535645,36.41679382324219,31.575042724609375
0,102167,-28.45120620727539,-24.468076705932617,-23.63589096069336,-25.859169006347656
0,102169,-1.4751167297363281,25.3365535736084,-14.865203857421875,45.71555709838867
0,102171,-1.5708940029144287,-6.842609405517578,6.309708595275879,55.23740005493164
0,102173,9.159375190734863,-9.593801498413086,-16.30036735534668,-80.8478775024414
0,102175,11.84547233581543,54.66621017456055,40.10313415527344,-40.68443298339844
0,102177,-9.950980186462402,13.393793106079102,6.040874004364014,55.382957458496094
0,102179,-6.0927300453186035,-41.608394622802734,-33.019805908203125,4.396021842956543
0,102181,7.34916877746582,-40.87420654296875,30.021240234375,-9.572822570800781
0,102183,-17.27134132385254,3.0516648292541504,11.398900985717773,25.23689842224121
0,102185,-9.75282096862793,51.339839935302734,-38.138648986816406,-51.87975311279297
0,102187,15.07080078125,-6.467794418334961,-10.121976852416992,-5.675002574920654
0,102189,38.12527847290039,-34.94301223754883,18.845802307128906,82.51701354980469
0,102191,0.5241057872772217,18.698984146118164,-10.578968048095703,-30.24506187438965
0,102193,-32.543209075927734,28.259923934936523,0.80159991979599,-54.77873992919922
0,102195,33.399810791015625,-6.47911262512207,23.630496978759766,-40.04600143432617
0,102197,1.5027135610580444,-23.88640022277832,-0.26600250601768494,26.544904708862305
0,102199,-25.33247184753418,-11.99666976928711,-8.12745475769043,129.4863739013672
0,102201,2.5944762229919434,2.119560480117798,-2.281614065170288,-13.491765022277832
0,102203,-3.6230010986328125,28.168134689331055,-4.615081310272217,-84.54188537597656
0,102205,16.736309051513672,4.16374397277832,1.2688871622085571,0.3909064531326294
0,102207,-13.60737419128418,-42.560577392578125,3.407477617263794,20.3498592376709
0,102209,-24.166269302368164,-22.534711837768555,15.380228042602539,10.500349044799805
0,102211,24.10049057006836,27.083166122436523,7.2846503257751465,11.568899154663086
0,102213,-7.732703685760498,35.666378021240234,-25.820337295532227,-41.4647102355957
0,102215,-8.435480117797852,25.64244842529297,-9.41810131072998,-23.577775955200195
0,102217,31.363252639770508,-24.07613754272461,-5.057666778564453,42.54151916503906
0,102219,-7.168946266174316,-55.287574768066406,23.60625648498535,0.36315950751304626
0,102221,-22.09191131591797,17.174230575561523,28.67320442199707,14.409100532531738
0,102223,8.516990661621094,59.573944091796875,-37.26658630371094,6.645968914031982
0,102225,7.316366672515869,-29.878265380859375,7.21675443649292,-50.104576110839844
0,102227,-19.65583038330078,-65.51260375976562,19.477556228637695,-16.37697410583496
0,102229,20.579864501953125,46.013214111328125,-32.538089752197266,49.395843505859375
0,102231,13.438539505004883,38.895938873291016,-22.082304000854492,7.510985374450684
0,102233,-26.560375213623047,-15.885383605957031,15.9855375289917,-44.593666076660156
0,102235,3.1779425144195557,-8.21809196472168,31.72956657409668,8.121286392211914
0,102237,1.7536202669143677,6.419229030609131,-9.762251853942871,55.402015686035156
0,102239,15.902194023132324,12.809280395507812,2.880073070526123,6.949924468994141
0,102241,5.933168411254883,8.04673957824707,5.369421005249023,-56.01198959350586
0,102243,-24.835556030273438,-17.49458885192871,-9.459330558776855,-10.73755168914795
0,102245,-0.5901129841804504,-16.52867889404297,-15.545982360839844,3.2247939109802246
0,102247,2.522580862045288,12.532015800476074,-36.85537338256836,-2.508474826812744
0,102249,2.8240325450897217,-12.106825828552246,33.82143783569336,23.488258361816406
0,102251,7.551548957824707,-4.820296287536621,56.13042068481445,2.5043065547943115
0,102253,-7.252007961273193,28.98727798461914,-21.6219482421875,26.183984756469727
0,102255,-21.457622528076172,-21.139114379882812,-52.11767578125,-7.126534938812256
0,102257,-10.570538520812988,-31.186824798583984,4.670644283294678,-53.551822662353516
0,102259,29.753849029541016,47.767677307128906,32.755374908447266,9.13909912109375
0,102261,-1.6703401803970337,-24.54184913635254,-6.667677879333496,6.855815410614014
0,102263,-11.785026550292969,-27.589397430419922,-2.234360694885254,-1.3620952367782593
0,102265,46.320640563964844,25.096044540405273,-1.269036889076233,62.647457122802734
0,102267,-3.0520100593566895,-1.8397290706634521,-20.20210838317871,-1.0740565061569214
0,102269,-41.435794830322266,18.653339385986328,35.57265090942383,-86.25634765625
0,102271,31.543964385986328,4.366804599761963,51.562007904052734,8.909222602844238
0,102273,8.917033195495605,-27.010759353637695,-40.18928527832031,35.62302780151367
0,102275,-13.341719627380371,11.304829597473145,-44.35245132446289,3.876594066619873
0,102277,13.24695110321045,19.618993759155273,1.7241199016571045,0.3287036418914795
0,102279,-61.80628204345703,-54.333194732666016,-20.415813446044922,-31.194416046142578
0,102281,-2.6747448444366455,4.983564853668213,16.642112731933594,6.102302551269531
0,102283,75.73695373535156,97.97429656982422,64.66888427734375,20.865915298461914
0,102285,-9.84742259979248,-2.2382969856262207,-2.6542575359344482,10.54729175567627
0,102287,-40.651878356933594,-84.99327087402344,-47.61870193481445,5.872359752655029
0,102289,8.119145393371582,15.021307945251465,-8.210003852844238,9.391204833984375
0,102291,21.36627197265625,41.14970016479492,19.570850372314453,8.316849708557129
0,102293,-36.484344482421875,-39.43980026245117,-7.289076805114746,-42.36710739135742
0,102295,3.790977954864502,-21.36529541015625,-11.231022834777832,-31.2564754486084
0,102297,39.00027084350586,26.227052688598633,27.560176849365234,49.33522415161133
0,102299,-31.58115005493164,-4.629596710205078,6.987041473388672,53.440250396728516
0,102301,-7.473576068878174,6.887624740600586,-20.210126876831055,-45.402164459228516
0,102303,14.781448364257812,23.770572662353516,9.286581993103027,-41.24549102783203
0,102305,15.341226577758789,-31.40256690979004,0.9858068823814392,-14.488094329833984
0,102307,0.7617883086204529,-35.18196105957031,-29.512605667114258,-2.186638355255127
0,102309,-28.564043045043945,31.018600463867188,7.068613052368164,63.905906677246094
0,102311,21.440217971801758,49.109519958496094,25.649028778076172,-5.116199493408203
0,102313,-9.35332202911377,-30.491039276123047,-5.036921501159668,-42.47282028198242
0,102315,-16.859464645385742,-28.301612854003906,-5.123249530792236,11.790116310119629
0,102317,52.79054641723633,31.577274322509766,-8.347637176513672,3.8661694526672363
0,102319,0.22326049208641052,2.019402027130127,-16.788925170898438,6.047196865081787
0,102321,-39.53128433227539,-14.787981986999512,12.899214744567871,-15.31020736694336
0,102323,-25.043128967285156,-1.2002121210098267,6.450125694274902,-57.77598190307617
0,102325,17.646703720092773,8.279023170471191,-6.831384658813477,54.694881439208984
0,102327,44.332740783691406,14.707451820373535,16.879837036132812,90.68132781982422
0,102330,-27.602821350097656,-20.219284057617188,12.6488618850708,-30.395851135253906
0,102331,-24.25833511352539,-9.843842506408691,-3.013322353363037,-32.468467712402344
0,102332,8.065953254699707,-0.7494865655899048,-36.62705612182617,-12.48531436920166
0,102335,0.613770067691803,-1.9056400060653687,4.757692813873291,-0.8351085782051086
0,102336,17.945281982421875,28.985292434692383,62.272064208984375,5.901006698608398
0,102339,0.8176386952400208,-8.783227920532227,-27.808523178100586,5.353255271911621
0,102340,4.727941513061523,-24.608333587646484,-38.15382766723633,32.36900329589844
0,102343,1.4204097986221313,12.161637306213379,17.94685935974121,-36.593597412109375
0,102344,-34.7369384765625,22.514081954956055,-11.083602905273438,-55.29563903808594
0,102347,-2.502964496612549,-13.150368690490723,-8.605414390563965,30.773855209350586
0,102348,46.765296936035156,-42.37382888793945,5.588200569152832,24.011362075805664
0,102351,17.649572372436523,28.60638999938965,2.238698959350586,-5.846379280090332
0,102352,-36.58937454223633,50.81293869018555,13.142691612243652,9.881135940551758
0,102355,-14.9046630859375,-25.3859806060791,13.53006362915039,-5.926446437835693
0,102356,12.038911819458008,-27.58151626586914,6.788585186004639,-16.976028442382812
0,102359,-7.492947578430176,7.691242218017578,5.034098148345947,18.58737564086914
0,102362,18.756258010864258,24.636932373046875,-2.861876964569092,19.686857223510742
0,102363,27.22809600830078,-8.655232429504395,-20.226577758789062,-8.760396003723145
0,102364,-26.686368942260742,-16.62446403503418,-31.022613525390625,-23.820728302001953
0,102367,-44.616493225097656,11.208670616149902,14.386887550354004,0.39283719658851624
0,102368,-11.992059707641602,-16.19283103942871,24.76421546936035,-22.843883514404297
0,102371,52.58510208129883,17.142305374145508,-15.714940071105957,-2.4696242809295654
0,102372,18.878490447998047,19.14302635192871,1.2592942714691162,65.54354095458984
0,102375,-35.61884689331055,-22.916494369506836,11.2056245803833,-9.128880500793457
0,102376,8.70997428894043,-8.278544425964355,4.387277603149414,-10.59621810913086
0,102379,-20.249727249145508,-17.38335609436035,-18.99278450012207,2.711118459701538
0,102380,-12.852848052978516,3.499966621398926,-11.068276405334473,-36.212493896484375
0,102383,30.271760940551758,34.31972122192383,22.341405868530273,-19.962448120117188
0,102384,9.534174919128418,10.046494483947754,10.654739379882812,33.02129364013672
0,102387,9.787301063537598,-46.20820617675781,-0.5474478602409363,45.5068473815918
0,102388,-13.983075141906738,-41.690486907958984,-18.72431755065918,-54.11715316772461
0,102391,-15.6932954788208,42.4843864440918,1.1975845098495483,-5.125089645385742
0,102392,21.61722755432129,55.46466064453125,23.48509979248047,72.19702911376953
0,102395,6.318401336669922,-25.362594604492188,-28.993803024291992,-38.66618347167969
0,102396,-15.785002708435059,-33.715824127197266,-28.561368942260742,-49.94720458984375
0,102399,-7.702096462249756,15.751227378845215,29.281940460205078,50.81767654418945
0,102400,6.301974773406982,23.71207618713379,22.22997283935547,30.70188331604004
0,102403,6.071200370788574,13.883123397827148,19.231801986694336,-45.52101516723633
0,102404,-12.590038299560547,-8.233830451965332,-15.63412094116211,-24.098283767700195
0,102407,17.991207122802734,-11.077048301696777,-51.504486083984375,40.55891036987305
0,102408,12.372742652893066,-9.066855430603027,14.615996360778809,28.548416137695312
0,102411,-15.419650077819824,-4.895401954650879,43.54916000366211,-29.45567512512207
0,102412,3.434779644012451,8.178284645080566,-4.870692729949951,-44.13420867919922
0,102415,-6.183001518249512,-5.890331268310547,-27.321802139282227,30.015817642211914
0,102416,-6.332526206970215,-20.851184844970703,9.922128677368164,42.30921173095703
0,102419,-13.148054122924805,-6.989912033081055,-26.399755477905273,-47.81571578979492
0,102420,0.872182309627533,21.501489639282227,3.1921486854553223,3.7145822048187256
0,102423,22.813079833984375,4.047219753265381,59.612693786621094,22.37982177734375
0,102424,-5.662832736968994,8.505613327026367,-24.002853393554688,-42.50007247924805
0,102427,5.634484767913818,24.7349853515625,-17.60081672668457,20.356643676757812
0,102428,6.081614971160889,-47.91257095336914,9.948748588562012,22.885398864746094
0,102431,-18.206478118896484,0.14476794004440308,-8.142080307006836,-39.943790435791016
0,102432,-13.043377876281738,49.42840576171875,-5.380033016204834,-37.81648254394531
0,102435,5.8198652267456055,-17.33483123779297,-3.689779758453369,57.32314682006836
0,102436,25.230051040649414,-6.268558502197266,21.555204391479492,75.77796936035156
0,102439,-5.525630474090576,-14.365084648132324,1.7866815328598022,-68.76627349853516
0,102440,10.170269012451172,-20.85098648071289,-27.27628517150879,-38.98939514160156
0,102443,-0.7109411954879761,22.115570068359375,-6.209306240081787,19.681180953979492
0,102444,-47.65168762207031,-7.812319278717041,-2.139084815979004,-40.08149337768555
0,102447,33.85245132446289,19.535247802734375,28.77315330505371,72.98186492919922
0,102448,28.991943359375,19.618982315063477,13.480456352233887,51.82091522216797
0,102451,-51.6438102722168,-45.6545295715332,-29.502269744873047,-99.96427154541016
0,102452,-16.440937042236328,-0.5380020141601562,-3.5986528396606445,-25.000001907348633
0,102455,28.94068717956543,21.392623901367188,3.1447081565856934,59.402645111083984
0,102456,23.817508697509766,2.9923806190490723,35.709442138671875,25.947681427001953
0,102459,19.056331634521484,7.723223686218262,20.16234588623047,-27.87947654724121
0,102460,-9.344741821289062,12.565844535827637,-43.507598876953125,9.378870010375977
0,102463,-42.62800216674805,-21.065902709960938,-3.0337576866149902,23.98344612121582
0,102464,-3.582056999206543,-6.1362223625183105,25.913740158081055,-39.783023834228516
0,102467,33.96445846557617,4.1045966148376465,-21.029037475585938,-11.562342643737793
0,102468,-15.437596321105957,-24.579496383666992,-21.121976852416992,-8.32927131652832
0,102471,-30.597469329833984,29.015626907348633,17.091337203979492,-16.160755157470703
0,102472,32.555198669433594,47.88410186767578,7.987116813659668,76.8739242553711
0,102475,4.956908702850342,-33.90446472167969,-16.64143180847168,10.688260078430176
0,102476,-36.742130279541016,-49.18133544921875,-26.0126895904541,-70.21692657470703
0,102479,10.776618957519531,6.336004734039307,-7.72363805770874,-45.96089172363281
0,102480,16.563312530517578,12.22091293334961,39.748653411865234,-2.7096164226531982
0,102483,11.670796394348145,15.51356029510498,47.43571090698242,106.37553405761719
0,102484,8.904728889465332,20.39277458190918,-17.544897079467773,36.11288070678711
0,102487,-18.397201538085938,-19.31526756286621,-31.798547744750977,-83.89164733886719
0,102488,18.69869041442871,-26.768138885498047,12.05456256866455,-25.30171775817871
0,102491,17.028858184814453,28.407079696655273,2.080018997192383,70.815673828125
0,102492,-34.663604736328125,19.93874168395996,-3.0352697372436523,36.23670196533203
0,102495,-9.291155815124512,-29.789958953857422,2.469968557357788,-61.2459602355957
0,102496,4.894228935241699,-39.0754280090332,-31.18802833557129,-59.17868423461914
0,102499,-1.264603614807129,18.405935287475586,-8.197546005249023,12.390020370483398
0,102500,3.078899621963501,45.57524490356445,34.8034782409668,64.96522521972656
0,102503,6.722213268280029,-16.195573806762695,2.824425458908081,5.811182022094727
0,102504,9.913726806640625,-18.468347549438477,-0.9547298550605774,-34.272377014160156
0,102507,-29.051523208618164,9.256316184997559,3.3836379051208496,13.064909934997559
0,102508,-14.230300903320312,6.023361682891846,-11.19293212890625,-3.8734450340270996
0,102511,47.44523239135742,14.360215187072754,4.0917487144470215,-36.371009826660156
0,102512,5.295336723327637,-12.29258918762207,-12.546982765197754,-17.74374771118164
0,102515,-40.31603240966797,-38.11759948730469,-2.660630464553833,34.168418884277344
0,102516,8.675692558288574,16.63294219970703,33.610511779785156,55.17440414428711
0,102519,13.115564346313477,41.21928787231445,-16.56439971923828,-34.08708190917969
0,102520,11.316158294677734,-5.527072429656982,-6.024108409881592,-31.369829177856445
0,102523,-9.953527450561523,-51.2663459777832,19.999425888061523,22.34817123413086
0,102524,-27.261323928833008,1.902127981185913,-39.047767639160156,-4.342070579528809
0,102527,24.941923141479492,62.96003723144531,10.59138011932373,4.578664779663086
0,102528,-5.956991672515869,-29.570011138916016,26.39841651916504,-2.409780263900757
0,102531,-12.66001033782959,-42.65969467163086,-35.473777770996094,-2.3545143604278564
0,102532,27.329086303710938,46.22384262084961,6.880073070526123,-0.049024760723114014
0,102535,-4.323584079742432,37.69325637817383,50.08537292480469,-19.67014503479004
0,102536,-3.4605395793914795,-17.05316734313965,1.4646897315979004,9.932147979736328
0,102539,10.430253982543945,-28.89560317993164,-51.01493453979492,35.32012176513672
0,102541,-13.099308013916016,4.741543292999268,-11.058926582336426,6.429542541503906
0,102544,-18.246646881103516,1.5702800750732422,3.413299560546875,-10.137065887451172
0,102545,-6.6125946044921875,-12.582252502441406,-9.64291763305664,-32.538997650146484
0,102546,13.65713119506836,10.718249320983887,34.317203521728516,-1.2464745044708252
0,102549,1.1677712202072144,-3.6438286304473877,-2.9000158309936523,15.017638206481934
0,102550,-15.891321182250977,-19.12303924560547,-28.09498405456543,-42.58502197265625
0,102553,24.155107498168945,12.216312408447266,39.604393005371094,67.11540222167969
0,102554,37.355613708496094,19.599016189575195,16.214454650878906,64.0200424194336
0,102557,-31.726787567138672,-24.23333168029785,-28.6805362701416,-108.51322174072266
0,102558,-13.440901756286621,-12.688265800476074,13.349316596984863,-23.776161193847656
0,102561,25.02969741821289,42.558956146240234,8.535439491271973,51.656707763671875
0,102562,-17.513141632080078,28.649471282958984,-28.545032501220703,-3.7140307426452637
0,102565,2.085782766342163,-46.3212776184082,7.5914483070373535,28.26323127746582
0,102566,17.44330596923828,-41.13772201538086,-6.750606536865234,-3.4412548542022705
0,102569,-11.876471519470215,23.94759178161621,-7.232983112335205,-39.81072235107422
0,102570,-26.109296798706055,16.745420455932617,33.2674446105957,-18.007680892944336
0,102573,11.664175033569336,-14.637406349182129,-19.75230598449707,23.50651741027832
0,102574,19.312192916870117,-4.762108325958252,-29.459922790527344,21.33845329284668
0,102577,-35.201171875,41.436981201171875,17.57381820678711,-55.9813232421875
0,102578,4.292617321014404,-1.4371204376220703,17.705631256103516,7.257322311401367
0,102581,38.550540924072266,-29.60523796081543,4.908711910247803,90.96134948730469
0,102582,-15.822774887084961,16.368616104125977,-7.876893520355225,-22.41476058959961
0,102585,-11.447103500366211,15.280540466308594,-3.747668504714966,-60.83567810058594
0,102586,5.31017541885376,-7.686193466186523,12.179119110107422,43.07223129272461
0,102589,-5.265466690063477,-11.657578468322754,-3.170562267303467,-0.13328248262405396
0,102590,12.244476318359375,-1.6930041313171387,-2.515247106552124,-44.513797760009766
0,102593,4.371679782867432,1.1066449880599976,-21.02605628967285,40.13552474975586
0,102594,-6.059786319732666,17.61563491821289,-22.1860408782959,37.69717788696289
0,102597,-4.9543280601501465,-15.805455207824707,28.068145751953125,-52.305519104003906
0,102598,9.604819297790527,-34.81362533569336,36.6113395690918,-27.558032989501953
0,102601,11.33991813659668,11.807607650756836,-12.232351303100586,29.508625030517578
0,102602,-28.312911987304688,10.247611045837402,-49.041351318359375,5.324814796447754
0,102605,-25.93033790588379,-14.34079360961914,10.695033073425293,-10.568334579467773
0,102606,12.521291732788086,-29.13227653503418,27.651504516601562,-29.344423294067383
0,102609,39.931114196777344,49.806312561035156,-7.091300010681152,28.73118019104004
0,102610,6.571107387542725,76.04676055908203,9.371543884277344,47.079532623291016
0,102613,-17.268402099609375,-53.83584976196289,-4.9377617835998535,-51.49898910522461
0,102614,5.892366886138916,-41.87757110595703,4.187847137451172,-18.77533531188965
0,102617,-26.774892807006836,23.493894577026367,19.299861907958984,39.52566909790039
0,102618,-16.837997436523438,3.8994204998016357,-26.26150131225586,4.898441314697266
0,102621,37.43138122558594,-7.97882604598999,-9.728043556213379,-17.254547119140625
0,102622,12.10252857208252,18.380041122436523,23.59674644470215,2.8464369773864746
0,102625,-16.69135093688965,17.84444236755371,-2.1551146507263184,-2.846362352371216
0,102626,7.847876071929932,-23.24549674987793,-14.33383846282959,-22.841949462890625
0,102629,-7.884449481964111,-12.962331771850586,-3.0159146785736084,24.206462860107422
0,102630,-27.616777420043945,-21.933015823364258,10.490608215332031,30.770414352416992
0,102633,26.203636169433594,4.825737476348877,12.511877059936523,-28.295154571533203
0,102634,9.067102432250977,29.641563415527344,-19.154678344726562,-43.21103286743164
0,102637,-21.12274742126465,-13.841046333312988,-33.533485412597656,15.850911140441895
0,102638,13.850601196289062,-9.17986011505127,3.0729691982269287,56.254547119140625
0,102641,3.935126543045044,9.176695823669434,34.4266471862793,-0.5349708795547485
0,102642,-6.231497764587402,5.339115619659424,-7.970983505249023,-30.56452751159668
0,102645,-0.2321421205997467,-1.6152149438858032,-5.348467826843262,7.010930061340332
0,102646,-10.243896484375,12.11609935760498,43.06060791015625,-5.623897075653076
0,102649,9.423158645629883,-8.056014060974121,-14.358582496643066,-17.84859848022461
0,102650,11.148940086364746,-12.390727996826172,-22.878122329711914,28.60126304626465
0,102653,-14.332221984863281,26.154651641845703,26.491182327270508,19.767526626586914
0,102654,5.544398307800293,-15.659111022949219,-1.0331472158432007,-24.84880828857422
0,102657,-4.949293613433838,-14.573286056518555,-29.038860321044922,-24.57085418701172
0,102658,-27.268949508666992,28.707216262817383,-15.253650665283203,5.369045734405518
0,102661,27.744592666625977,-18.86952781677246,15.074231147766113,24.353986740112305
0,102662,29.208189010620117,-22.026077270507812,34.04620361328125,7.571580410003662
0,102665,-17.906328201293945,3.829308032989502,-25.97470474243164,-11.228358268737793
0,102666,-4.217381000518799,12.62138843536377,-26.11324691772461,-24.9597225189209
0,102669,-3.9257378578186035,19.826690673828125,25.352684020996094,12.523361206054688
0,102670,-3.362536907196045,-16.644935607910156,-8.4844331741333,12.75904369354248
0,102673,11.47238826751709,-12.699546813964844,-0.38797423243522644,-34.0008430480957
0,102674,1.4684535264968872,16.89506721496582,18.828187942504883,3.374479055404663
0,102677,-8.156709671020508,-6.5166778564453125,9.622844696044922,35.09208679199219
0,102678,-3.1653997898101807,3.27585768699646,-6.893119812011719,3.942225456237793
0,102681,16.999008178710938,28.800621032714844,-6.9621429443359375,-20.84334945678711
0,102682,-0.0007314737304113805,-4.986044406890869,5.808259963989258,-12.654645919799805
0,102685,-21.120264053344727,-6.708223342895508,-6.33710241317749,25.020675659179688
0,102686,4.735947608947754,-3.4318408966064453,14.57166862487793,24.74761199951172
0,102689,-4.486274242401123,-25.234956741333008,-10.256900787353516,-29.20029640197754
0,102690,-21.8637752532959,-7.562469005584717,-30.340051651000977,-25.814682006835938
0,102693,5.037857532501221,35.950408935546875,10.759322166442871,11.892831802368164
0,102695,9.161911964416504,1.1488196849822998,1.3339956998825073,13.97555923461914
0,102697,13.782106399536133,-13.493285179138184,-2.5464961528778076,5.433414459228516
0,102699,19.637046813964844,9.70344066619873,11.471752166748047,-2.6399197578430176
0,102701,-6.690136432647705,1.5857032537460327,11.290228843688965,-6.311687469482422
0,102703,-14.375895500183105,3.8939566612243652,12.410646438598633,4.9188923835754395
0,102705,-6.355749607086182,-28.404102325439453,-17.54606056213379,-27.332216262817383
0,102707,2.5057990550994873,-16.110258102416992,-23.643535614013672,-3.1969311237335205
0,102709,-4.172157287597656,2.5518691539764404,-6.526669025421143,34.983821868896484
0,102711,12.020699501037598,17.979066848754883,15.909916877746582,-11.003131866455078
0,102713,26.779098510742188,33.54812240600586,34.490478515625,5.418795108795166
0,102715,-13.351449966430664,-28.68229103088379,-2.6293492317199707,1.1470050811767578
0,102717,-22.3359432220459,-13.152050018310547,-6.623272895812988,-0.7146549820899963
0,102719,-12.797662734985352,30.16009521484375,-16.585081100463867,13.844047546386719
0,102721,4.65150785446167,-4.706727981567383,-26.449413299560547,-52.98149108886719
0,102723,15.844696044921875,-10.982604026794434,22.737930297851562,-15.057723045349121
0,102725,-8.720648765563965,-10.661003112792969,19.34369468688965,69.2689208984375
0,102727,1.47508704662323,21.552745819091797,3.8312361240386963,21.23679542541504
0,102730,17.89509391784668,27.70436668395996,-18.93663215637207,-24.48787498474121
0,102731,4.547490119934082,-19.77848243713379,-25.125900268554688,-26.366504669189453
0,102732,-11.913436889648438,-3.1946115493774414,26.51059341430664,2.3207900524139404
0,102735,-7.527893543243408,-8.713083267211914,3.6097123622894287,11.342240333557129
1,102739,-6.703929901123047,-30.088537216186523,-26.19613265991211,-7.7332916259765625
1,102739,-6.1174468994140625,-3.0603270530700684,17.447044372558594,18.645204544067383
1,102740,26.43870735168457,29.975557327270508,25.977066040039062,6.670060634613037
1,102743,6.545463562011719,19.288684844970703,-11.803398132324219,-27.034988403320312
1,102744,-31.948863983154297,-18.547971725463867,-21.855649948120117,0.18759725987911224
1,102747,-9.147784233093262,-8.301252365112305,5.4650983810424805,34.83524703979492
1,102748,26.69280242919922,-6.086884021759033,16.720703125,-20.03204917907715
1,102751,12.864140510559082,13.055462837219238,8.164796829223633,-25.276939392089844
1,102752,-9.389336585998535,35.88217544555664,-4.716261386871338,-0.44465410709381104
1,102755,-6.091599464416504,-28.806102752685547,-12.347522735595703,0.18925851583480835
1,102756,-18.709152221679688,-54.4870491027832,-7.474125385284424,20.060102462768555
1,102759,17.877328872680664,16.555896759033203,1.294392704963684,-1.8707683086395264
1,102760,21.363191604614258,39.9355354309082,-1.1650605201721191,-10.412224769592285
1,102763,-24.167997360229492,-9.241514205932617,-2.6362650394439697,-10.892435073852539
1,102764,6.614386558532715,8.962145805358887,11.224849700927734,11.922136306762695
1,102767,-9.745173454284668,9.193879127502441,-4.88537073135376,3.5654592514038086
1,102768,-11.932882308959961,-29.78438377380371,-19.123146057128906,-13.113222122192383
1,102771,42.66742706298828,4.395425319671631,11.640533447265625,16.907894134521484
1,102772,-16.90623664855957,7.977672576904297,14.994758605957031,10.922091484069824
1,102775,-37.00307083129883,-2.1654224395751953,-4.550132751464844,67.69986724853516
1,102776,21.905887603759766,4.193530082702637,6.362911224365234,26.809995651245117
1,102779,12.329171180725098,5.106703281402588,-2.3045737743377686,-227.08123779296875
1,102780,7.251093864440918,8.02132797241211,2.0427358150482178,-25.107698440551758
1,102783,2.066551685333252,-14.246310234069824,-6.266971111297607,202.99330139160156
1,102784,-17.89362335205078,-10.242011070251465,-29.335712432861328,-41.165164947509766
1,102787,0.3252549469470978,-1.981015682220459,35.01933288574219,108.91400146484375
1,102788,2.3687350749969482,5.941246032714844,21.324243545532227,82.81932830810547
1,102791,-18.346412658691406,-3.8106064796447754,-49.10356903076172,-414.2922668457031
1,102792,4.368863582611084,-16.61710548400879,3.812129497528076,-78.81651306152344
1,102795,16.645469665527344,36.86296081542969,32.18266296386719,456.11260986328125
1,102796,0.8951816558837891,15.953636169433594,-13.124153137207031,85.91182708740234
1,102799,2.8148465156555176,-33.061946868896484,-3.6107003688812256,-273.3358459472656
1,102800,3.311134099960327,-5.455772876739502,9.959425926208496,-202.2746124267578
1,102803,-0.8303004503250122,10.075526237487793,-0.5654752850532532,95.432861328125
1,102804,-25.673633575439453,8.202876091003418,6.692230701446533,172.6827850341797
1,102807,6.468559741973877,-13.08569622039795,-7.92646598815918,-187.23910522460938
1,102808,20.432079315185547,-24.382606506347656,-2.647212505340576,-128.94566345214844
1,102811,16.90908432006836,44.677616119384766,23.829933166503906,449.3654479980469
1,102812,43.289058685302734,43.68183517456055,9.456951141357422,431.4482421875
1,102815,-66.83951568603516,-83.52957916259766,-54.628623962402344,-360.57196044921875
1,102816,-73.57000732421875,-36.01693344116211,-22.234149932861328,-447.095947265625
1,102819,55.33234405517578,55.446685791015625,21.377077102661133,-29.162620544433594
1,102820,33.03565216064453,1.0796133279800415,-36.6369743347168,90.22895050048828
1,102823,-39.3217887878418,-29.385290145874023,30.24839210510254,160.7781982421875
1,102824,-16.404932022094727,9.825559616088867,77.96271514892578,-54.578887939453125
1,102827,51.00361633300781,80.05473327636719,-1.4241578578948975,77.80294036865234
1,102828,34.385711669921875,8.362138748168945,-43.76588439941406,201.16818237304688
1,102831,-29.644784927368164,-76.2812728881836,-7.141038417816162,-315.2398681640625
1,102832,-29.790573120117188,-0.16130349040031433,11.260188102722168,-180.4992218017578
1,102835,-6.810149669647217,-2.5369207859039307,-26.881303787231445,270.43182373046875
1,102836,1.095311164855957,-18.068540573120117,-2.144812822341919,79.04774475097656
1,102839,20.542722702026367,61.32804489135742,32.71519088745117,-241.1656951904297
1,102840,18.758407592773438,17.43499183654785,9.408798217773438,-12.532232284545898
1,102843,-19.751174926757812,-35.651180267333984,-11.140190124511719,341.85833740234375
1,102844,-9.717696189880371,-14.00899887084961,-23.569700241088867,65.81654357910156
1,102847,41.37697982788086,10.071882247924805,-15.233741760253906,-269.6845397949219
1,103102,-17.58574104309082,7.789926528930664,20.866443634033203,-133.37924194335938
1,103104,-54.158329010009766,-28.517507553100586,6.692022323608398,38.334327697753906
1,103106,16.1640682220459,16.410140991210938,-15.40835952758789,27.12578010559082
1,103108,20.937597274780273,21.53955078125,12.55912971496582,58.13692855834961
1,103110,30.485363006591797,-30.925661087036133,14.6967134475708,73.62039184570312
1,103111,-12.12753677368164,-33.61849594116211,-15.60756778717041,0.03749578446149826
1,106786,-39.25608825683594,2.0143558979034424,-24.218273162841797,0.07932143658399582
1,106789,33.129638671875,48.01058578491211,16.2181396484375,23.068090438842773
1,106790,2.5110862255096436,14.021905899047852,33.297203063964844,-40.28978729248047
1,106793,-32.87114715576172,-34.25286102294922,-30.83428955078125,-73.86710357666016
1,106794,9.367454528808594,-0.042493052780628204,-16.073440551757812,-13.607818603515625
1,106797,6.9293413162231445,11.749743461608887,23.430828094482422,-11.933023452758789
1,106798,-24.41762924194336,7.855757713317871,7.445779323577881,-28.718708038330078
1,106801,7.3497514724731445,12.256500244140625,4.398351669311523,66.6673355102539
1,106802,50.275821685791016,-1.0033715963363647,1.6881378889083862,71.38541412353516
1,106805,-18.277244567871094,-18.85945701599121,2.872880458831787,-27.752931594848633
1,106806,-25.32217788696289,-16.121910095214844,-9.991584777832031,-4.510496139526367
1,106809,30.4832706451416,4.7906999588012695,-11.25994873046875,37.972618103027344
1,106810,-9.195667266845703,-12.70142650604248,-7.38870096206665,-34.75727462768555
1,106813,-13.565402030944824,5.958052635192871,8.747961044311523,-30.77137565612793
1,106814,2.101128578186035,13.348954200744629,7.827289581298828,26.73325538635254
1,106817,8.350825309753418,0.2251562923192978,-8.5584135055542,-23.06414794921875
1,106818,-15.398321151733398,-2.150906562805176,-18.8070125579834,-30.014863967895508
1,106821,11.024066925048828,0.5202623009681702,14.006144523620605,12.185688018798828
1,106822,44.38433074951172,28.765249252319336,37.65605926513672,12.985065460205078
1,106825,-33.292388916015625,-13.43875503540039,-26.50372314453125,29.709882736206055
1,106826,-6.462912559509277,-15.3567476272583,-12.670987129211426,19.173307418823242
1,106829,-0.0032933028414845467,-23.616622924804688,11.858409881591797,4.589748382568359
1,106830,-34.440269470214844,-8.162556648254395,-16.208921432495117,-27.51886558532715
1,106833,14.4913969039917,89.50035095214844,8.486414909362793,-41.48459243774414
1,106834,2.025419235229492,-7.5176777839660645,10.873138427734375,24.402748107910156
1,106837,-15.328306198120117,-74.53174591064453,-3.9911770820617676,11.631736755371094
1,106838,8.567477226257324,11.005159378051758,-5.861090660095215,-33.68799591064453
1,106841,27.65682601928711,39.718894958496094,8.068253517150879,-9.298492431640625
1,106842,8.257547378540039,-4.151310920715332,1.365755558013916,50.75029754638672
1,106845,1.3306984901428223,-53.56919479370117,-20.511533737182617,33.499267578125
1,106846,-0.24893593788146973,-18.214258193969727,11.639455795288086,-26.327922821044922
1,106849,-18.30646514892578,66.8962173461914,34.2946662902832,-11.965970993041992
1,106850,-1.8196983337402344,13.204362869262695,-21.135602951049805,-14.083162307739258
1,106853,3.53716778755188,-40.107872009277344,-36.23756790161133,-5.011518955230713
1,106854,19.407989501953125,1.9016844034194946,43.563411712646484,9.117195129394531
1,106857,-9.343132019042969,5.388155937194824,7.536294460296631,-18.51915168762207
1,106858,-26.439537048339844,34.6795654296875,-43.188846588134766,-1.792863130569458
1,106861,13.300761222839355,-6.5990166664123535,21.732559204101562,34.643714904785156
1,106862,-5.0617995262146,-45.120635986328125,11.70311450958252,31.720335006713867
1,106865,-16.097583770751953,-2.463454008102417,-33.01157760620117,-32.41353225708008
1,106866,0.6355281472206116,39.25664520263672,15.513888359069824,-47.10518264770508
1,106869,13.960268020629883,28.364259719848633,23.960634231567383,34.78533935546875
1,106870,35.1856575012207,-23.701581954956055,-13.745626449584961,30.540889739990234
1,106873,7.4665422439575195,-12.435687065124512,4.44807767868042,-14.759928703308105
1,106874,-43.97949981689453,4.724698066711426,-0.633607804775238,-2.7755346298217773
1,106877,3.0558106899261475,-7.484841346740723,-23.02617073059082,-13.207000732421875
1,106878,16.12777328491211,-3.5486040115356445,-1.6831413507461548,-46.017330169677734
1,106881,-27.089248657226562,2.2105579376220703,3.9612228870391846,20.821571350097656
1,106883,13.40383243560791,5.1025190353393555,1.0338819026947021,59.450477600097656
1,106885,13.204547882080078,10.913930892944336,12.4088716506958,-12.690205574035645
1,106887,-25.05242347717285,-8.227606773376465,-9.348041534423828,-27.397857666015625
1,106889,15.170598983764648,-30.88953399658203,2.5993216037750244,-15.626315116882324
1,106891,30.832324981689453,9.331926345825195,18.592350006103516,2.3897881507873535
1,106893,0.6939916014671326,26.6093807220459,-20.58667755126953,15.771939277648926
1,106895,-8.4325590133667,-7.283736228942871,-0.5135897994041443,5.098432540893555
1,106897,-36.64842987060547,-17.222002029418945,24.15355110168457,-6.551629066467285
1,106899,-15.4854097366333,-1.2098016738891602,-15.197410583496094,7.689086437225342
1,106901,26.1738338470459,21.184051513671875,-4.284899711608887,6.625424385070801
1,106903,2.96832013130188,-3.5556347370147705,14.704244613647461,-3.696122407913208
1,106905,-0.6090014576911926,-27.01542854309082,-25.53032112121582,2.3103175163269043
1,106907,18.278860092163086,2.0263545513153076,-14.415355682373047,-19.541181564331055
1,106909,-2.949296712875366,30.709110260009766,40.91578674316406,15.50818157196045
1,106911,-31.54686737060547,2.854922294616699,0.09401418268680573,26.66020393371582
1,106913,-7.375476837158203,-34.45939636230469,-30.63121795654297,-41.98094940185547
1,106915,12.72981071472168,2.806353807449341,16.21103286743164,-2.2820839881896973
1,106918,11.862950325012207,16.06890296936035,9.48674201965332,19.775732040405273
1,106919,-4.711604118347168,1.3418055772781372,-18.64604949951172,-26.063114166259766
1,106920,-3.4122977256774902,16.403648376464844,13.85466194152832,23.503751754760742
1,106923,38.016849517822266,-8.362944602966309,19.11587142944336,38.2049674987793
1,106925,2.68406081199646,-6.225815296173096,-20.60338020324707,-21.61598014831543
1,106927,-30.820430755615234,19.124502182006836,-8.097293853759766,-49.79838562011719
1,106929,-16.20070457458496,-49.145484924316406,2.5784521102905273,11.994369506835938
1,106931,-2.548271417617798,-39.74445724487305,1.5566269159317017,37.85796356201172
1,106933,16.92872428894043,69.64994812011719,-8.27748966217041,-17.57847023010254
1,106935,9.283254623413086,21.777467727661133,-5.5357513427734375,-22.709300994873047
1,106937,6.638118743896484,-61.43313980102539,10.510370254516602,7.06091833114624
1,106939,7.715585231781006,25.25225830078125,11.885588645935059,24.794382095336914
1,106941,-26.134435653686523,62.639739990234375,9.048338890075684,-0.6399332880973816
1,106943,-26.92548370361328,-37.69834518432617,-14.293051719665527,-17.987255096435547
1,106945,29.165874481201172,-14.173516273498535,0.4962807595729828,9.482367515563965
1,106947,14.180670738220215,14.304727554321289,-6.507056713104248,11.817505836486816
1,106949,-24.80561637878418,-8.308473587036133,-19.27020263671875,-12.179852485656738
1,106951,-6.534078598022461,13.106230735778809,16.992870330810547,-1.1292439699172974
1,106953,2.8387389183044434,-0.4043058454990387,9.528284072875977,-1.0854259729385376
1,106955,-1.4758853912353516,-13.002354621887207,5.415064334869385,-8.095512390136719
1,106957,18.772233963012695,-10.923184394836426,-3.5699942111968994,-6.243947505950928
1,106959,12.275267601013184,-11.611825942993164,-25.123300552368164,-5.792579174041748
1,106961,-0.3707917034626007,4.046049118041992,27.3294677734375,37.88280487060547
1,106963,8.335426330566406,2.059386968612671,36.89802551269531,8.271383285522461
1,106965,-14.484925270080566,4.092885971069336,-29.07645606994629,-29.670066833496094
1,106967,-5.799506664276123,26.465892791748047,-35.040992736816406,-20.972244262695312
1,106969,0.726988673210144,-14.837508201599121,13.467153549194336,-5.050343990325928
1,106971,6.079277038574219,-27.11427116394043,22.66462516784668,73.07601165771484
1,106973,-4.603731632232666,27.18966293334961,-12.82616138458252,0.24474383890628815
1,106975,-22.99018096923828,38.39128112792969,-8.453083038330078,-75.20870971679688
1,106977,16.310993194580078,-19.662193298339844,3.303687572479248,9.794181823730469
1,106979,12.830011367797852,-18.669057846069336,-7.788774490356445,18.897619247436523
1,106981,-15.549583435058594,-11.610424041748047,-8.608071327209473,26.072792053222656
1,106983,-0.6468324065208435,-15.485241889953613,13.55223274230957,-8.601568222045898
1,106985,20.409748077392578,27.468719482421875,14.365367889404297,-35.35457229614258
1,106987,-2.475222587585449,7.0992560386657715,-12.754656791687012,19.981325149536133
1,106989,-17.580039978027344,3.971074342727661,25.09360122680664,3.2118473052978516
1,106991,-14.299177169799805,7.161778926849365,-0.05661161616444588,10.92306900024414
1,106993,-12.58846664428711,-40.76213455200195,-46.120277404785156,4.699687957763672
1,106995,28.56587791442871,-29.021329879760742,-12.224727630615234,-19.223405838012695
1,106997,23.284027099609375,34.840415954589844,41.387939453125,3.3765954971313477
1,106999,-5.63491153717041,35.20309066772461,27.65799903869629,-0.32962337136268616
1,107001,0.9210363626480103,-16.192668914794922,-41.579227447509766,-2.8899574279785156
1,107003,-24.989280700683594,-17.56511116027832,1.7251508235931396,5.912646770477295
1,107005,-7.276968955993652,10.248858451843262,17.168609619140625,-8.866107940673828
1,107007,34.59015655517578,9.300358772277832,-10.035276412963867,-0.7982734441757202
1,107009,-1.3454816341400146,-1.2638053894042969,5.198117256164551,-5.127264976501465
1,107011,-30.696107864379883,-4.100735664367676,-20.44778823852539,-19.686735153198242
1,107013,11.02143669128418,-9.841139793395996,-12.103184700012207,36.718353271484375
1,107015,15.11094856262207,5.32871675491333,27.76659393310547,16.99531364440918
1,107017,-7.542917251586914,16.503446578979492,18.690961837768555,-20.47461700439453
1,107019,14.318324089050293,-10.078765869140625,0.8475310206413269,12.157317161560059
1,107021,-10.379770278930664,-27.859670639038086,-17.01514434814453,-5.620912075042725
1,107023,-18.310792922973633,-0.8659365177154541,-17.72524642944336,-11.146685600280762
1,107025,5.043673038482666,28.544588088989258,-8.960970878601074,-5.512364864349365
1,107027,-3.1088948249816895,0.9155742526054382,6.85814905166626,-14.86602783203125
1,107029,3.3429384231567383,-32.48619842529297,27.93659210205078,3.114717721939087
1,107031,14.379094123840332,18.790302276611328,9.784987449645996,-0.9128386974334717
1,107033,17.21170997619629,63.73540115356445,-7.937033653259277,-5.898059844970703
1,107035,-0.17091824114322662,-14.259360313415527,5.711307525634766,30.521135330200195
1,107037,-24.39113998413086,-81.29757690429688,-8.94429874420166,13.898494720458984
1,107039,-19.04214096069336,-0.3595940172672272,-21.89386749267578,-30.781795501708984
1,107041,-13.423172950744629,72.26514434814453,3.650007963180542,7.510277271270752
1,107043,19.792076110839844,-3.610590696334839,14.685704231262207,39.449493408203125
1,107045,19.178861618041992,-48.98097610473633,0.09899063408374786,-31.703479766845703
1,107047,-18.57217788696289,-8.44931697845459,-16.54273796081543,-13.060774803161621
1,107049,15.133692741394043,26.841596603393555,12.774800300598145,50.27277374267578
1,107051,14.03577995300293,16.377208709716797,-4.941249370574951,-19.887998580932617
1,107053,-39.37147521972656,-23.75676727294922,-9.997764587402344,-9.442347526550293
1,107055,-16.642005920410156,-12.403963088989258,9.183736801147461,-6.486741542816162
1,107057,53.87514877319336,26.67657470703125,-8.239969253540039,-23.08827018737793
1,107059,27.882530212402344,21.746057510375977,13.373575210571289,21.511812210083008
1,107061,-39.44676971435547,-19.954883575439453,-24.34503936767578,-17.41956901550293
1,107063,-28.483287811279297,-22.677602767944336,-9.368385314941406,13.468828201293945
1,107065,26.10169219970703,51.17915725708008,66.73147583007812,45.294952392578125
1,107067,23.737058639526367,46.61420822143555,24.5216007232666,-48.17182922363281
1,107069,-11.020538330078125,-111.08209991455078,-60.100894927978516,-27.29677963256836
1,107071,-7.141382694244385,-106.0341567993164,-61.5500602722168,42.91847610473633
1,107074,-43.532840728759766,91.29650115966797,22.41897964477539,-37.11995315551758
1,107075,-35.93510437011719,109.75828552246094,65.9095687866211,-0.872648298740387
1,107078,60.044219970703125,-10.527501106262207,20.097219467163086,62.097434997558594
1,107079,21.667678833007812,-75.47321319580078,-27.29908561706543,-44.86528396606445
1,107080,-33.439334869384766,-32.9716682434082,-12.97751522064209,-41.39167785644531
1,107083,48.68804168701172,59.72282028198242,7.09882116317749,66.00798034667969
1,107084,16.816802978515625,22.882551193237305,-32.39202880859375,23.43036460876465
1,107087,-12.88466739654541,-19.69516372680664,-12.213726043701172,-67.29424285888672
1,107088,11.596145629882812,5.384606838226318,34.2418327331543,17.59244155883789
1,107091,-93.60325622558594,2.7764735221862793,12.660017013549805,14.71213436126709
1,107092,-63.14043426513672,-54.66859436035156,-25.806947708129883,-58.881656646728516
1,107095,145.64776611328125,-8.24847412109375,-1.9104663133621216,99.09823608398438
1,107096,90.6546401977539,89.6575927734375,28.018657684326172,75.49921417236328
1,107099,-115.16813659667969,36.79981994628906,-13.82106876373291,-133.7984161376953
1,107100,-65.66063690185547,-40.18789291381836,14.380969047546387,-63.93944549560547
1,107103,35.83271789550781,-123.54305267333984,-9.331886291503906,46.3220329284668
1,107104,44.561702728271484,-46.76117706298828,-41.91850662231445,26.353261947631836
1,107107,1.281195044517517,105.82563781738281,25.56110954284668,39.05077362060547
1,107108,-19.03415298461914,73.38546752929688,36.900123596191406,59.101402282714844
1,107111,2.982928514480591,29.88665199279785,-1.2478911876678467,-81.13677215576172
1,107112,19.091611862182617,-20.56303596496582,-29.460498809814453,-97.13097381591797
1,107115,14.708673477172852,-62.28450012207031,-14.323583602905273,51.003868103027344
1,107116,-42.39630126953125,9.556952476501465,14.40456771850586,3.633134603500366
1,107119,-27.999542236328125,21.840309143066406,3.238513469696045,23.508989334106445
1,107120,11.345770835876465,-11.110026359558105,-3.3301751613616943,61.27065658569336
1,107123,-1.9982115030288696,-0.7361775040626526,19.724760055541992,-51.098060607910156
1,107124,31.318071365356445,10.984325408935547,3.2764275074005127,-26.07193374633789
1,107127,2.0827200412750244,-35.479148864746094,-44.50258255004883,-0.7601111531257629
1,107128,-39.022613525390625,-75.63278198242188,-0.5498921871185303,7.084138870239258
1,107131,9.153397560119629,36.21165466308594,45.990638732910156,82.16715240478516
1,107132,5.704277038574219,21.802520751953125,-36.942665100097656,15.766257286071777
1,107135,-15.994016647338867,6.211762428283691,-13.324945449829102,-69.7183609008789
1,107136,56.92206573486328,110.86347961425781,56.898841857910156,-41.5042724609375
1,107139,33.7932014465332,-35.32534408569336,-10.05761432647705,-2.382370948791504
1,107140,-88.9089584350586,-127.31201934814453,-40.72142028808594,-20.49020004272461
1,107143,-27.55767822265625,-10.159482955932617,10.861183166503906,47.767879486083984
1,107144,63.860008239746094,50.43874740600586,29.51266860961914,94.22932434082031
1,107147,54.98702621459961,43.32573318481445,-0.8742148280143738,-48.528690338134766
1,107148,-49.77308654785156,-0.378190279006958,-14.795291900634766,-100.72549438476562
1,107151,-60.492637634277344,11.384000778198242,-22.86482810974121,17.916954040527344
1,107152,52.53406524658203,29.530393600463867,13.727245330810547,76.68494415283203
1,107155,38.911781311035156,-43.206398010253906,28.84192657470703,-16.860652923583984
1,107156,-22.660152435302734,-8.795339584350586,-9.547706604003906,-63.273590087890625
1,107159,-28.347518920898438,94.91609954833984,-6.229598045349121,36.44902801513672
1,107160,-17.760215759277344,57.68675994873047,-4.1053290367126465,25.557836532592773
1,107163,1.6852118968963623,-102.65878295898438,-1.1993597745895386,-74.84626770019531
1,107164,73.5466537475586,-154.12350463867188,20.73891830444336,37.93445587158203
1,107167,5.017734050750732,-77.74578094482422,12.859627723693848,120.58590698242188
1,107168,-114.93106079101562,10.442978858947754,-43.62963104248047,-36.303855895996094
1,107171,11.964991569519043,156.1007537841797,-47.59683609008789,-83.21531677246094
1,107172,78.32501220703125,64.22740173339844,9.758353233337402,7.979734897613525
1,107175,-38.164772033691406,12.513809204101562,58.42264938354492,-7.40864896774292
1,107176,-23.48961639404297,55.01939392089844,32.833335876464844,2.9545376300811768
1,107179,59.77439498901367,-118.02059936523438,-47.803646087646484,19.2078857421875
1,107180,-25.9157657623291,-92.15807342529297,-22.96671485900879,-53.52189254760742
1,107183,-67.00492858886719,19.398820877075195,30.242189407348633,15.151981353759766
1,107184,44.21672058105469,45.98064422607422,6.834407806396484,79.1981430053711
1,107187,35.99525451660156,32.5971794128418,-37.05204391479492,-24.09490203857422
1,107188,-5.360414981842041,28.12016487121582,-2.371122360229492,-34.75309753417969
1,107191,27.94344139099121,134.9257354736328,81.65691375732422,1.923974633216858
1,107192,-13.636520385742188,5.634034633636475,25.910930633544922,-19.983556747436523
1,107195,-66.471923828125,-220.9502716064453,-73.49121856689453,-11.4559965133667
1,107196,21.64221954345703,-128.0421142578125,-41.91316604614258,25.645870208740234
1,107199,105.9583969116211,70.84741973876953,1.786669135093689,76.0348892211914
1,107200,-8.123641967773438,98.24283599853516,10.513731956481934,15.150959014892578
1,107203,-127.0148696899414,22.92156982421875,34.3394889831543,-124.22872161865234
1,107204,-42.919044494628906,4.600306987762451,13.353509902954102,-47.83710479736328
1,107207,48.58831787109375,24.94143295288086,-14.242761611938477,108.57022857666016
1,107208,43.27284622192383,-11.24052619934082,-6.613260269165039,63.44395065307617
1,107211,12.772520065307617,-78.07115936279297,-19.529455184936523,-15.01442813873291
1,107212,-8.179243087768555,41.358829498291016,-3.231920003890991,-36.48599624633789
1,107215,-22.458457946777344,175.45526123046875,41.03194046020508,-5.416561126708984
1,107216,-39.311100006103516,-78.76335144042969,-0.13784658908843994,-38.15599822998047
1,107219,93.81690979003906,-368.9507751464844,-33.68599319458008,9.112898826599121
1,107220,89.6825942993164,-70.04109191894531,30.85606575012207,138.35171508789062
1,107223,-113.43892669677734,366.21441650390625,9.534309387207031,-37.72865676879883
1,107224,-58.049800872802734,192.1730194091797,-27.004886627197266,-141.50094604492188
1,107227,23.769807815551758,-69.26073455810547,-10.659221649169922,-22.577754974365234
1,107228,29.95402717590332,-19.23211669921875,2.167144298553467,19.277238845825195
1,107231,40.797935485839844,-110.48210906982422,33.63239288330078,-6.205687046051025
1,107233,-13.703024864196777,-157.8184814453125,-21.90041732788086,10.500663757324219
1,107235,-70.2567367553711,95.28339385986328,-38.16454315185547,50.47206497192383
1,107237,-62.30617141723633,100.62614440917969,5.186495780944824,-4.659355640411377
1,107239,32.98125457763672,68.3174057006836,28.611738204956055,31.14027214050293
1,107241,26.830928802490234,96.23731994628906,30.30706214904785,71.79475402832031
1,107243,21.30834197998047,-201.0758819580078,-25.721576690673828,-99.02767181396484
1,107245,57.502838134765625,-205.04945373535156,-26.929271697998047,-64.66326904296875
1,107247,7.304771900177002,-67.08586883544922,14.238667488098145,129.3595428466797
1,107249,-11.413679122924805,-1.8094208240509033,21.49099349975586,54.758872985839844
1,107251,-39.4005241394043,328.7651062011719,19.378679275512695,-91.15181732177734
1,107253,-56.63892364501953,229.2289276123047,-10.451055526733398,-70.27735900878906
1,107255,1.0497158765792847,-334.5554504394531,-46.44147872924805,24.572519302368164
1,107257,91.3150405883789,-297.6324157714844,12.041254997253418,29.69129180908203
1,107259,114.7803955078125,198.8153533935547,40.74518966674805,25.79872703552246
1,107261,-80.33488464355469,245.61508178710938,-23.64512825012207,14.029510498046875
1,107263,-156.31015014648438,72.86395263671875,-13.296283721923828,-87.96411895751953
1,107265,21.134689331054688,15.164627075195312,8.068886756896973,-104.11579895019531
1,107267,74.82766723632812,-58.93973922729492,2.1268362998962402,65.68451690673828
1,107269,-46.146942138671875,-39.28722381591797,22.318588256835938,89.21653747558594
1,107271,19.23093605041504,-114.9062728881836,-4.298939228057861,-8.606919288635254
1,107273,118.3243408203125,-109.93077087402344,-23.694293975830078,10.680545806884766
1,107275,-26.60898780822754,78.76970672607422,7.0926666259765625,-11.196040153503418
1,107277,-71.22571563720703,66.28559112548828,8.217998504638672,11.133305549621582
1,107279,-15.90162467956543,31.034488677978516,-2.4313955307006836,-24.503252029418945
1,107281,46.682376861572266,41.18418884277344,-13.223827362060547,-12.41783332824707
1,107283,-19.243654251098633,-209.50741577148438,-17.071470260620117,88.76891326904297
1,107285,-103.81672668457031,-108.3997802734375,30.713768005371094,-16.41385269165039
1,107287,3.0239498615264893,213.43002319335938,24.184396743774414,-19.014572143554688
1,107289,23.314468383789062,28.606525421142578,-42.61887741088867,-11.730655670166016
1,107291,16.379505157470703,124.92047882080078,-19.758317947387695,-81.38629913330078
1,107293,82.49736022949219,-6.9381103515625,26.414697647094727,27.659013748168945
1,107295,-54.27753448486328,-438.0573425292969,-25.60747528076172,16.12213134765625
1,107297,-78.80362701416016,-19.164196014404297,-42.45838165283203,48.95872497558594
1,107299,134.4726104736328,316.6645812988281,50.038055419921875,90.43524932861328
1,107301,38.42209243774414,56.58972930908203,64.49024963378906,-98.78670501708984
1,107303,-81.92406463623047,70.67301940917969,1.8319928646087646,-129.77230834960938
1,107305,16.635751724243164,114.40026092529297,-24.058704376220703,-13.737079620361328
1,107307,11.30284309387207,-170.9957275390625,-20.428951263427734,92.77068328857422
1,107309,-18.83199691772461,-173.30630493164062,7.727313041687012,78.94010162353516
1,107311,43.012088775634766,42.10439682006836,22.832509994506836,3.051373243331909
1,107313,1.337194561958313,65.36939239501953,3.5514094829559326,-11.586962699890137
1,107315,-71.69933319091797,52.66450119018555,-18.983556747436523,-32.222469329833984
1,107317,-45.07017135620117,15.46843147277832,-40.95192337036133,-1.8422503471374512
1,107319,65.40986633300781,-49.35426712036133,3.1108293533325195,-16.603763580322266
1,107321,80.58928680419922,-71.97520446777344,33.14115905761719,-63.33694076538086
1,107323,-48.05202865600586,104.74476623535156,-24.531635284423828,23.581892013549805
1,107325,-120.21988677978516,190.263916015625,-14.59810733795166,24.069246292114258
1,107327,21.79822540283203,-313.68621826171875,21.342552185058594,43.027130126953125
1,107329,108.02749633789062,-326.57952880859375,-4.909265995025635,79.86839294433594
1,107331,-50.497032165527344,276.7052001953125,-4.377872467041016,-39.02561950683594
1,107333,-3.6749463081359863,235.87457275390625,8.412519454956055,-43.327335357666016
1,107335,74.14484405517578,9.396952629089355,-16.240943908691406,-22.446903228759766
1,107337,-27.42965316772461,-24.499292373657227,7.748911380767822,-43.40238571166992
1,107339,-52.13911056518555,-105.4264907836914,54.71077346801758,-3.481821060180664
1,107341,33.398292541503906,7.064388751983643,15.68895149230957,58.93159866333008
1,107343,3.7079224586486816,152.12107849121094,-39.226505279541016,40.18856430053711
1,107345,-48.36943817138672,-28.32005500793457,-33.79467010498047,-21.910226821899414
1,107347,120.31597137451172,-390.6403503417969,-6.915809631347656,-28.68918228149414
1,107349,29.52626609802246,-109.11637115478516,42.5494270324707,13.907064437866211
1,107351,-175.50022888183594,513.3998413085938,38.85935974121094,-16.175582885742188
1,107353,6.367058277130127,111.12002563476562,9.218174934387207,-25.466487884521484
1,107355,56.23240280151367,-390.46014404296875,-73.33734893798828,93.0448226928711
1,107357,-73.16169738769531,1.23117196559906,-97.44465637207031,-5.072134494781494
1,107359,-33.104190826416016,160.20297241210938,45.88740921020508,-94.67064666748047
1,107361,29.84090805053711,-45.89210891723633,33.60685729980469,13.862483024597168
1,107363,89.29817962646484,-7.2259697914123535,24.532453536987305,-13.507594108581543
1,107365,59.57723617553711,210.04942321777344,57.115455627441406,-23.034208297729492
1,107367,-80.80960083007812,168.3362579345703,-33.65258026123047,55.00030517578125
1,107369,-3.706023693084717,-264.43011474609375,-37.682823181152344,-2.3360838890075684
1,107371,104.998779296875,-302.7342834472656,21.223403930664062,59.762027740478516
1,107373,-56.460060119628906,99.34459686279297,27.90505599975586,101.5354995727539
1,107375,-105.90835571289062,103.407958984375,-2.805098295211792,-137.17701721191406
1,107377,24.93227195739746,-57.65132522583008,-21.230831146240234,-104.66407775878906
1,107379,94.38650512695312,18.830223083496094,-17.455480575561523,46.07778549194336
1,107381,19.760393142700195,98.68028259277344,5.409236431121826,9.756571769714355
1,107383,-88.4600601196289,55.88151550292969,15.838801383972168,47.075965881347656
1,107385,-7.438920021057129,-78.07478332519531,-23.606544494628906,-34.61867904663086
1,107387,22.905855178833008,-172.7648162841797,-21.123363494873047,-22.17523193359375
1,107389,-75.83786010742188,-36.836769104003906,16.340347290039062,85.6679458618164
1,107391,7.694032192230225,195.4349822998047,20.14586639404297,-15.964632034301758
1,107393,107.52204132080078,44.95830535888672,12.257003784179688,21.98960304260254
1,107395,-29.348392486572266,-82.0265121459961,-13.756377220153809,-63.97858810424805
1,107397,-66.46906280517578,70.49760437011719,-3.099050521850586,-114.41944122314453
1,107400,75.15565490722656,158.35397338867188,5.147258281707764,144.79615783691406
1,107401,78.63314056396484,-44.8394775390625,-48.96347427368164,56.52195739746094
1,107402,-17.526613235473633,-231.00479125976562,-24.099063873291016,-54.87869644165039
1,107405,-74.71796417236328,-0.9296429753303528,68.74278259277344,35.086795806884766
1,107406,-58.77788543701172,-11.951568603515625,42.38846206665039,-54.92072296142578
1,107409,22.22572135925293,63.28730010986328,3.5325965881347656,14.697084426879883
1,107410,68.23567962646484,75.9759750366211,-2.5729660987854004,59.879451751708984
1,107413,-44.88431930541992,-75.10983276367188,-51.70967102050781,-124.5795669555664
1,107414,-111.9111557006836,173.886474609375,-26.23816680908203,-48.835872650146484
1,107417,76.82392120361328,-33.82417678833008,52.10759735107422,98.567138671875
1,107418,82.79109954833984,-213.12608337402344,33.23714828491211,26.900304794311523
1,107423,-53.08352279663086,49.0868034362793,-37.19440460205078,7.98005485534668
1,107423,-0.7871150374412537,61.12958526611328,-22.975749969482422,24.001649856567383
1,107424,5.25709342956543,16.885595321655273,-10.894999504089355,-48.35702133178711
1,107427,35.16625213623047,39.09831237792969,10.03565788269043,-26.869735717773438
1,107428,36.67036056518555,-7.398798942565918,12.525694847106934,-5.837190628051758
1,107431,-63.3536491394043,22.469966888427734,-30.550281524658203,-62.4362907409668
1,107432,36.90436935424805,39.07643508911133,18.185152053833008,40.574249267578125
1,107435,13.650918960571289,-256.67205810546875,24.714113235473633,87.25631713867188
1,107436,-73.55382537841797,-209.78472900390625,-6.573047637939453,58.07115173339844
1,107439,5.418100357055664,203.9671630859375,3.628275156021118,30.311002731323242
1,107440,-72.00263214111328,135.70071411132812,-40.4908332824707,-133.18035888671875
1,107443,17.52598762512207,43.58479690551758,17.10218048095703,-33.99887466430664
1,107444,91.01349639892578,35.809478759765625,66.05401611328125,82.44434356689453
1,107447,-20.1165828704834,-35.21113204956055,-30.230342864990234,-31.59290313720703
1,107448,34.27354431152344,42.2010383605957,-50.11591720581055,-19.211971282958984
1,107451,3.321368932723999,6.286478519439697,-18.26106071472168,-43.40288162231445
1,107452,-32.528175354003906,-59.376346588134766,17.371551513671875,-52.06485366821289
1,107455,26.850767135620117,-6.619114875793457,30.37625503540039,79.67049407958984
1,107456,16.67481803894043,17.273773193359375,8.149063110351562,60.787452697753906
1,107459,-33.370208740234375,-15.04802131652832,16.242963790893555,-51.787879943847656
1,107460,-76.95218658447266,-19.62005043029785,5.496095180511475,-37.50684356689453
1,107463,15.146248817443848,-84.0351791381836,-25.877553939819336,80.87449645996094
1,107464,48.86994171142578,-68.30503845214844,-28.613521575927734,41.79312515258789
1,107467,-4.9710283279418945,116.20013427734375,-0.2668730914592743,-47.61526107788086
1,107468,6.83124303817749,74.13998413085938,1.4409323930740356,-50.69073486328125
1,107471,32.98257064819336,-101.06397247314453,15.449462890625,-55.34504318237305
1,107472,45.73104476928711,-12.664145469665527,43.63765335083008,60.50758361816406
1,107475,-101.56884765625,108.43685150146484,-22.486312866210938,67.56381225585938
1,107476,-66.10891723632812,23.35114288330078,-27.716493606567383,-3.4377708435058594
1,107479,97.20989990234375,-46.58565902709961,29.082515716552734,31.643142700195312
1,107480,24.91419219970703,1.006760835647583,6.5185227394104,-5.613997459411621
1,107483,-49.15520095825195,-7.917243480682373,-45.63172912597656,-87.57071685791016
1,107484,-30.22055435180664,-4.52844762802124,-26.571008682250977,-43.7330322265625
1,107487,59.34203338623047,27.778011322021484,18.836626052856445,59.92138671875
1,107488,14.00024700164795,-5.0041022300720215,8.915878295898438,3.8305118083953857
1,107491,-68.65833282470703,8.766185760498047,16.681943893432617,-26.976577758789062
1,107492,14.515290260314941,-27.621780395507812,15.55876350402832,40.62419509887695
1,107495,-3.063389539718628,-26.3923397064209,-11.312596321105957,19.56744956970215
1,107496,5.472405910491943,55.83943557739258,0.15835241973400116,-4.534367561340332
1,107499,68.58377075195312,-15.592793464660645,7.652126312255859,-39.142372131347656
1,107500,-1.2603774070739746,-86.47248840332031,-19.76972770690918,-41.047637939453125
1,107503,-31.399433135986328,28.914724349975586,30.623939514160156,44.50801467895508
1,107504,-4.543184757232666,44.32478713989258,27.790468215942383,42.6629753112793
1,107507,-13.2621431350708,-42.4820442199707,-44.23952102661133,-24.990901947021484
1,107508,-1.0716925859451294,27.40503692626953,-4.934494972229004,-6.7672624588012695
1,107511,38.154624938964844,65.10194396972656,9.769609451293945,5.760102272033691
1,107512,-5.39308500289917,-33.606327056884766,0.7513154149055481,-9.729477882385254
1,107515,-40.716373443603516,-31.014657974243164,0.2567961513996124,21.415910720825195
1,107516,-20.132932662963867,30.361989974975586,-22.54212188720703,-26.92714500427246
1,107519,-8.188437461853027,-27.616735458374023,2.783811569213867,-46.538414001464844
1,107520,32.81130599975586,-35.12485885620117,17.662288665771484,39.50031280517578
1,107523,70.10769653320312,46.39753341674805,-21.58879852294922,21.4031982421875
1,107524,-26.887388229370117,14.790359497070312,-30.484861373901367,-20.117088317871094
1,107527,-76.60575103759766,-25.569305419921875,35.61698913574219,14.617463111877441
1,107528,27.202205657958984,18.356002807617188,23.608196258544922,26.318620681762695
1,107531,-2.928288698196411,-0.8534311056137085,-23.968515396118164,8.269959449768066
1,107532,-3.3486480712890625,3.1463570594787598,17.997360229492188,-2.6843674182891846
1,107535,30.413288116455078,-1.5256638526916504,12.528070449829102,-60.38468551635742
1,107536,-17.4516544342041,-39.67034149169922,-13.718958854675293,-5.676838397979736
1,107539,12.493430137634277,15.30588436126709,9.00021743774414,63.84051513671875
1,107540,-12.275912284851074,20.383880615234375,-31.951553344726562,-39.851104736328125
1,107543,-25.582950592041016,-6.606461524963379,-14.556343078613281,-38.065521240234375
1,107544,36.190032958984375,6.816370487213135,64.17686462402344,50.06694412231445
1,107547,9.806722640991211,-17.000646591186523,-2.5042266845703125,24.221982955932617
1,107548,-15.625325202941895,-13.282602310180664,-26.569875717163086,-41.60814666748047
1,107551,8.512795448303223,28.134178161621094,-4.794581890106201,14.055317878723145
1,107552,3.9199647903442383,25.946428298950195,-6.8164191246032715,30.97768783569336
1,107555,1.4945145845413208,-32.573551177978516,-1.7997716665267944,-67.20320129394531
1,107556,26.909622192382812,3.2234182357788086,-10.104159355163574,-0.1691863089799881
1,107559,-11.860761642456055,12.807411193847656,24.24643898010254,43.03623580932617
1,107560,-51.39417266845703,-53.28874969482422,3.6308326721191406,-8.617988586425781
1,107563,-7.842282295227051,-15.560683250427246,-18.92287254333496,40.70268249511719
1,107564,9.31429386138916,33.21210861206055,7.8226399421691895,-20.231403350830078
1,107567,17.2449893951416,37.968101501464844,3.2019131183624268,-38.137939453125
1,107568,0.06427749246358871,11.804041862487793,8.466975212097168,-7.173922061920166
1,107571,-12.483011245727539,-28.993541717529297,-3.4075303077697754,-13.413250923156738
1,107572,33.973731994628906,-21.11381721496582,-22.187620162963867,69.20039367675781
1,107575,-8.426631927490234,35.921897888183594,3.677767515182495,-1.452692985534668
1,107576,-43.411102294921875,7.249001502990723,4.9203691482543945,-45.00273895263672
1,107579,31.697053909301758,-51.352752685546875,19.253084182739258,26.452722549438477
1,107580,27.51384162902832,-9.47169303894043,11.912464141845703,34.26900100708008
1,107583,0.43550264835357666,39.69652557373047,-19.77039909362793,-1.511510968208313
1,107584,-2.8123295307159424,17.32131004333496,-6.8573431968688965,-85.97148132324219
1,107587,-40.954681396484375,-37.934043884277344,-15.419154167175293,4.6099138259887695
1,107588,9.83774471282959,23.97481346130371,6.749898910522461,64.24929809570312
1,107591,24.942792892456055,79.03524017333984,3.9965457916259766,-42.16252136230469
1,107592,-21.254404067993164,-41.026920318603516,-12.302610397338867,26.196046829223633
1,107595,-9.780122756958008,-87.69779968261719,36.7093505859375,0.6070845127105713
1,107596,-1.006781816482544,-12.066316604614258,14.635024070739746,-56.54563903808594
1,107599,29.831607818603516,74.98858642578125,-28.55260467529297,68.65821075439453
1,107600,16.135358810424805,27.46982765197754,-5.5715179443359375,22.577829360961914
1,107603,-23.601463317871094,-87.57332611083984,-8.754877090454102,-71.937744140625
1,107604,-26.595592498779297,-28.909374237060547,-22.710378646850586,-14.71142578125
1,107607,-0.34077316522598267,56.20166778564453,40.487762451171875,62.7613410949707
1,107608,38.08734893798828,28.547700881958008,24.04790687561035,7.74034309387207
1,107611,-17.643938064575195,-13.698426246643066,-55.00713348388672,-73.7547607421875
1,107612,-28.654359817504883,-38.33888244628906,-0.8836490511894226,20.10430335998535
1,107615,22.975873947143555,14.303585052490234,37.084930419921875,60.26820755004883
1,107616,28.659631729125977,57.488712310791016,-12.19835376739502,-14.603394508361816
1,107619,0.42886966466903687,-37.001060485839844,8.76449966430664,-39.33499526977539
1,107620,-40.05411148071289,-24.36186981201172,21.525819778442383,-7.628075122833252
1,107623,0.006342927925288677,53.02863311767578,-34.023685455322266,20.2744083404541
1,107624,59.1748161315918,5.63958740234375,1.7261391878128052,-8.231290817260742
1,107627,-6.939395904541016,-35.235782623291016,23.713987350463867,4.6369524002075195
1,107628,-50.48622512817383,-8.30061149597168,-15.764846801757812,42.97629165649414
1,107631,24.136409759521484,20.49732780456543,-25.788177490234375,-5.2616448402404785
1,107632,18.968395233154297,22.80137062072754,11.104043960571289,-30.316783905029297
1,107635,-33.205265045166016,-11.660911560058594,18.239116668701172,-3.7642452716827393
1,107636,-9.764445304870605,-8.640386581420898,-50.73779296875,-15.039371490478516
1,107639,21.591094970703125,11.715848922729492,27.66066551208496,16.09662628173828
1,107640,-2.624969959259033,-12.499348640441895,59.00285720825195,12.959060668945312
1,107643,-13.128805160522461,7.796506404876709,-35.696006774902344,7.1188578605651855
1,107644,8.574143409729004,-4.190278053283691,-4.333808422088623,36.96473693847656
1,107647,-0.1913299709558487,-29.90418815612793,15.493420600891113,-38.264286041259766
1,107648,-18.359947204589844,0.8663016557693481,-10.115194320678711,-35.46581268310547
1,107651,-11.718063354492188,-14.669806480407715,-18.6949462890625,-0.5472022294998169
1,107652,29.154848098754883,-4.116569995880127,-8.94570541381836,-5.541590213775635
1,107655,28.075618743896484,21.63888931274414,14.834000587463379,38.24638748168945
1,107656,-21.850122451782227,-5.701973915100098,-6.6591315269470215,-10.12159252166748
1,107659,-13.625276565551758,15.354660034179688,-1.6151372194290161,-17.003353118896484
1,107660,21.948352813720703,32.20757293701172,32.61829376220703,40.02295684814453
1,107663,-3.176368474960327,-19.464818954467773,7.867242336273193,-11.974020004272461
1,107664,-22.99431610107422,-32.829689025878906,-32.47157287597656,-24.12586212158203
1,107667,-1.1794216632843018,-4.604737758636475,-31.837329864501953,8.105264663696289
1,107668,10.01524543762207,21.876949310302734,12.473072052001953,-3.542999267578125
1,107671,27.260597229003906,22.11705207824707,37.89330291748047,9.957024574279785
1,107672,9.934966087341309,6.7873005867004395,36.680049896240234,11.154321670532227
1,107675,-40.95256805419922,-10.045632362365723,-27.637603759765625,-27.152406692504883
1,107676,-18.315418243408203,-22.729537963867188,-64.47900390625,8.292067527770996
1,107679,28.78297233581543,-23.66372299194336,9.255417823791504,23.996036529541016
1,107680,11.014932632446289,3.886892080307007,27.326339721679688,-28.42739486694336
1,107683,-6.489151477813721,39.5348014831543,25.976016998291016,-1.831884741783142
1,107684,-8.61846923828125,10.78564739227295,-0.20854179561138153,42.34746170043945
1,107687,-15.922493934631348,-58.693321228027344,-29.82781410217285,-6.8588786125183105
1,107688,10.508140563964844,-8.68430233001709,5.364147663116455,-25.88247299194336
1,107691,19.64057159423828,82.5902328491211,-0.8455211520195007,0.4629676342010498
1,107692,-0.06871160864830017,-2.580881118774414,-2.0930674076080322,-4.575634956359863
1,107695,2.9106428623199463,-31.518388748168945,13.669421195983887,5.318841457366943
1,107696,-3.59175705909729,2.7466795444488525,-7.854857921600342,-13.980942726135254
1,107699,-5.839518070220947,-0.6577388048171997,-9.967041015625,3.623579263687134
1,107700,-7.941166400909424,0.5431348085403442,-4.925764083862305,11.953445434570312
1,107703,-16.19864273071289,-6.208985328674316,-16.17347526550293,-21.22056770324707
1,107704,25.499359130859375,10.96646785736084,18.547208786010742,20.850610733032227
1,107707,14.34550666809082,-5.39512825012207,35.48466491699219,38.995574951171875
1,107708,-31.990318298339844,-3.5918221473693848,-7.907835006713867,-17.771337509155273
1,107711,6.0502543449401855,-5.321582317352295,-28.054080963134766,-18.171701431274414
1,107712,1.928329348564148,-43.90913772583008,-4.225002765655518,-5.909681797027588
1,107715,-28.206899642944336,7.645379543304443,17.13262939453125,6.574277877807617
1,107716,13.707242965698242,55.613807678222656,-1.744245171546936,23.686758041381836
1,107719,48.44140625,4.753520965576172,8.709879875183105,-45.283809661865234
1,107720,9.399364471435547,-42.2302131652832,16.766998291015625,-18.197765350341797
1,107723,-42.93252182006836,7.430484771728516,-14.673477172851562,38.211368560791016
1,107724,-22.928810119628906,39.29732131958008,-16.643325805664062,4.497926235198975
1,107727,19.121952056884766,-14.944663047790527,10.09000301361084,10.642457962036133
1,107728,25.63773536682129,6.047798156738281,31.90599250793457,-33.406639099121094
1,107731,-12.568864822387695,-2.120899200439453,-21.183134078979492,-1.0512385368347168
1,107732,-18.020610809326172,-24.16570472717285,-35.52388000488281,71.90254211425781
1,107735,6.299698352813721,6.3360981941223145,24.020200729370117,-36.699676513671875
1,107736,-2.42592191696167,5.443843841552734,6.4400811195373535,-19.739582061767578
1,107739,11.31397819519043,20.037612915039062,-26.035207748413086,11.707880020141602
1,107741,9.542476654052734,-7.510293960571289,-0.5449936389923096,-43.12146759033203
1,107743,-22.581270217895508,-26.72097396850586,10.278264999389648,37.186668395996094
1,107745,1.9077447652816772,7.325732707977295,7.104115962982178,40.002593994140625
1,107747,16.49811363220215,7.329028606414795,9.729475021362305,-45.90054702758789
1,107749,-15.896254539489746,3.5835487842559814,-12.995363235473633,-28.785470962524414
1,107751,11.284757614135742,18.952754974365234,1.2340619564056396,11.50978946685791
1,107753,16.717321395874023,-14.59631633758545,23.43366050720215,-8.421480178833008
1,107755,-32.784523010253906,-41.9505729675293,7.132462024688721,16.074525833129883
1,107757,-3.6733815670013428,18.453388214111328,-25.023902893066406,17.93221092224121
1,107759,31.059770584106445,32.293582916259766,-31.374080657958984,-14.856029510498047
1,107761,-10.441699028015137,-18.42023277282715,23.90028190612793,-4.729436874389648
1,107763,5.331846237182617,-7.192996025085449,16.037866592407227,29.72272300720215
1,107765,8.938127517700195,20.368995666503906,-25.411176681518555,18.129352569580078
1,107766,-16.133907318115234,-11.245424270629883,14.267772674560547,-42.304561614990234
1,107769,2.3290672302246094,0.7240036725997925,8.7951078414917,14.895669937133789
1,107770,-16.97245216369629,-19.323156356811523,-13.528234481811523,33.67995834350586
1,107773,-7.451965808868408,-13.525751113891602,-15.764153480529785,-54.44024658203125
1,107774,-5.508819103240967,26.65687370300293,-37.493717193603516,-91.46896362304688
1,107777,-5.212160587310791,-13.930831909179688,48.15906524658203,41.11982727050781
1,107778,30.216121673583984,17.229503631591797,65.42552947998047,145.77505493164062
1,107781,-10.338518142700195,16.13884162902832,-44.43082046508789,-36.60977554321289
1,107782,-10.580923080444336,-12.878850936889648,-17.199647903442383,-88.78543853759766
1,107785,39.352325439453125,-6.0976881980896,15.529194831848145,40.832008361816406
1,107786,-4.24413537979126,-9.636518478393555,-20.62632179260254,42.62644577026367
1,107789,-13.94411563873291,19.741870880126953,-10.171106338500977,-25.82962989807129
1,107790,14.800838470458984,11.652586936950684,8.893610000610352,-23.59520721435547
1,107793,7.420228481292725,2.6884279251098633,45.3487548828125,22.0042781829834
1,107794,1.7579126358032227,-4.990551471710205,0.2207118272781372,-17.157033920288086
1,107797,-18.844642639160156,-24.753297805786133,-24.466623306274414,11.085192680358887
1,107798,-11.356926918029785,19.985265731811523,7.750355243682861,28.214082717895508
1,107801,-2.2354142665863037,-0.6271371245384216,-28.32407569885254,-39.394256591796875
1,107802,-4.644986629486084,-38.05553436279297,-9.006214141845703,-11.74299430847168
1,107805,17.449708938598633,6.685936450958252,4.397580146789551,20.472867965698242
1,107806,5.141664981842041,27.81850242614746,-0.5192609429359436,-10.065119743347168
1,107809,-28.399213790893555,6.201854228973389,20.84882164001465,-24.484458923339844
1,107810,-5.026817321777344,-24.647689819335938,-8.991491317749023,15.059703826904297
1,107813,27.378767013549805,-14.295010566711426,-12.423370361328125,24.288610458374023
1,107814,-1.7442915439605713,15.968249320983887,29.8389892578125,22.256671905517578
1,107817,-3.323094129562378,14.141464233398438,-4.355923175811768,-2.4491755962371826
1,107818,12.36695384979248,20.437641143798828,-14.301982879638672,-51.80747985839844
1,107821,-2.859807014465332,2.0298688411712646,27.221616744995117,13.320591926574707
1,107822,-1.038240909576416,-25.02617073059082,-10.610315322875977,56.72091293334961
1,107825,-18.81434440612793,-19.775060653686523,-32.18776321411133,-36.49623489379883
1,107826,-13.243223190307617,8.675444602966309,-19.068647384643555,-60.98761749267578
1,107829,42.70987319946289,1.4360579252243042,21.090530395507812,20.545907974243164
1,107830,3.588730812072754,-8.913700103759766,34.197601318359375,38.15559387207031
1,107833,-45.56060791015625,37.60758590698242,-9.164722442626953,5.8852386474609375
1,107834,26.499889373779297,-5.209742069244385,16.8172607421875,-6.5044474601745605
1,107837,33.5095100402832,-34.42750930786133,-7.4436540603637695,-8.727682113647461
1,107838,-28.38783073425293,12.993712425231934,-29.33478546142578,6.460247039794922
1,107841,-26.058055877685547,2.7442374229431152,26.33108139038086,16.010757446289062
1,107842,4.864360809326172,-2.145174026489258,3.678104877471924,-21.95572280883789
1,107845,20.706966400146484,11.871964454650879,-17.995229721069336,-49.14036178588867
1,107846,4.385261058807373,-9.898543357849121,15.104008674621582,6.943874359130859
1,107849,-18.183923721313477,2.9737257957458496,6.409060478210449,73.92076873779297
1,107850,11.437361717224121,20.61704444885254,-18.36782455444336,21.1048526763916
1,107853,8.991798400878906,-19.018569946289062,-23.589017868041992,-46.24530792236328
1,107854,-23.291786193847656,-39.195533752441406,-2.2065012454986572,-0.6235436797142029
1,107857,4.150154113769531,26.45631980895996,36.571014404296875,5.831790447235107
1,107858,-16.949560165405273,40.75911331176758,-3.7045300006866455,-50.98911666870117
1,107861,1.6362311840057373,-26.128293991088867,-29.630128860473633,-4.857839584350586
1,107862,50.21851348876953,-31.171165466308594,2.8838226795196533,50.80311965942383
1,107865,-12.266714096069336,20.175071716308594,8.949016571044922,14.134115219116211
1,107866,-43.837005615234375,35.37941360473633,14.014492988586426,-11.999166488647461
1,107869,2.823636531829834,-11.627700805664062,7.406857967376709,-10.844890594482422
1,107870,15.438720703125,-34.61722183227539,-2.6897974014282227,13.256695747375488
1,107873,32.09011459350586,21.034942626953125,10.01429271697998,22.641515731811523
1,107874,31.65782356262207,42.7497673034668,-4.987889289855957,-38.681427001953125
1,107877,-39.433292388916016,-34.1376953125,-17.04315757751465,-29.722803115844727
1,107878,-28.981077194213867,-42.56098937988281,-0.9149778485298157,43.350013732910156
1,107881,25.080326080322266,13.121712684631348,-3.0540809631347656,22.135766983032227
1,107882,2.0458319187164307,29.298614501953125,4.1243181228637695,-9.928502082824707
1,107885,-23.17398452758789,2.401425361633301,5.112050533294678,-16.27207374572754
1,107886,7.127121448516846,-32.432613372802734,-18.560367584228516,-18.03304672241211
1,107889,-1.6462594270706177,-2.1811444759368896,-2.8134615421295166,33.1402473449707
1,107890,-4.556835651397705,31.3503360748291,24.337234497070312,-8.22625732421875
1,107893,1.9848155975341797,-7.200588226318359,0.6888096332550049,-79.52420806884766
1,107894,-21.19243812561035,-39.59758377075195,-23.100759506225586,33.87845230102539
1,107897,21.951248168945312,17.601110458374023,10.853495597839355,84.83050537109375
1,107898,19.76569175720215,58.31678009033203,31.87258529663086,-17.83843231201172
1,107901,-24.26997947692871,-28.152347564697266,-28.938390731811523,-54.78874969482422
1,107902,-4.351311683654785,-31.57440185546875,-16.8217716217041,0.6738281846046448
1,107905,24.984359741210938,47.00740051269531,49.36841583251953,23.118553161621094
1,107906,-4.821457386016846,-5.532196998596191,5.130041122436523,-8.076436042785645
1,107909,-9.963906288146973,-27.6159725189209,-40.5924072265625,-16.785072326660156
1,107910,9.887733459472656,20.544889450073242,-0.833441972732544,16.579975128173828
1,107913,-7.855098247528076,-24.902565002441406,10.805048942565918,31.039579391479492
1,107914,7.143829822540283,-19.937910079956055,-10.368805885314941,-28.82415771484375
1,107917,-9.863937377929688,41.20277786254883,3.9211585521698,-2.2907373905181885
1,107918,-17.583372116088867,14.131521224975586,12.78767204284668,37.096214294433594
1,107921,-0.6489467620849609,-40.70794677734375,-18.079792022705078,-57.31831741333008
1,107922,-19.393413543701172,-22.605899810791016,-14.24225902557373,1.9016857147216797
1,107925,22.372879028320312,44.03596115112305,13.633063316345215,57.19596481323242
1,107926,49.88003158569336,30.97144317626953,17.258586883544922,-23.18463134765625
1,107929,-4.646422863006592,-44.88418197631836,-0.23097281157970428,-6.900633811950684
1,107930,-35.85142135620117,-37.015968322753906,-31.52520179748535,-31.72503089904785
1,107933,12.98908805847168,51.527069091796875,27.887699127197266,25.44752311706543
1,107934,20.52797508239746,17.966703414916992,24.23621940612793,57.939395904541016
1,107937,5.8535027503967285,-57.39924240112305,-36.336483001708984,-63.717079162597656
1,107938,26.873775482177734,26.301008224487305,5.277828693389893,6.277125835418701
1,107941,-41.99220657348633,56.059871673583984,8.168415069580078,40.30347442626953
1,107942,-56.36698913574219,-46.84416961669922,-11.664162635803223,-73.84489440917969
1,107945,41.12397003173828,-55.710472106933594,-3.2300004959106445,2.083440065383911
1,107946,33.54098129272461,22.23457145690918,21.245746612548828,75.94755554199219
1,107949,-42.32001876831055,59.707576751708984,9.490490913391113,-31.701086044311523
1,107950,-9.5120210647583,9.858436584472656,-14.09543514251709,-23.456233978271484
1,107953,24.263914108276367,-51.687862396240234,-3.028144121170044,29.105121612548828
1,107954,-8.064310073852539,-19.536476135253906,-25.564481735229492,-25.041444778442383
1,107957,-7.639955520629883,45.336429595947266,-4.881696701049805,4.3355326652526855
2,107961,20.006086349487305,21.853694915771484,30.065122604370117,45.540428161621094
2,107961,19.847734451293945,-12.583248138427734,4.322170734405518,20.144878387451172
2,107962,-39.3885612487793,-41.66957092285156,-1.6797010898590088,-55.16343307495117
2,107965,-35.308815002441406,-13.827655792236328,4.899235248565674,-57.56111145019531
2,107966,53.733829498291016,63.86842346191406,-1.9255425930023193,47.76255416870117
2,107969,21.909263610839844,-15.115558624267578,-24.18693733215332,14.25429916381836
2,107970,-36.6005973815918,-54.65834426879883,-3.008425235748291,-21.000629425048828
2,107973,-35.687808990478516,29.42682456970215,20.80962371826172,-3.876969814300537
2,107974,-11.16139030456543,20.631929397583008,-5.5476484298706055,3.373387336730957
2,107977,87.05014038085938,-22.358190536499023,22.03197479248047,36.98569107055664
2,107978,23.370153427124023,1.8516229391098022,13.653043746948242,-6.240992069244385
2,107981,-71.62126159667969,3.8801019191741943,-33.996864318847656,-15.371078491210938
2,107982,-16.532575607299805,7.83748197555542,-25.063365936279297,-12.45551872253418
2,107985,28.140085220336914,48.7709846496582,17.292673110961914,-36.82624435424805
2,107986,44.38337326049805,1.6238656044006348,24.751436233520508,61.094970703125
2,107989,-14.455860137939453,-41.67831039428711,-11.684159278869629,65.76665496826172
2,107990,-23.037761688232422,-10.732784271240234,-6.806398391723633,-46.04343032836914
2,107993,5.462913513183594,-1.1972893476486206,-2.2740187644958496,-81.78089141845703
2,107994,-31.780040740966797,-14.517542839050293,-13.440401077270508,-25.99652671813965
2,107997,2.453737735748291,14.205804824829102,20.356290817260742,54.488372802734375
2,107998,24.497806549072266,29.864482879638672,11.898332595825195,16.568370819091797
2,108001,-17.214826583862305,-38.405269622802734,-29.430105209350586,22.7695255279541
2,108002,-7.854167461395264,-32.50418472290039,6.3037872314453125,16.691720962524414
2,108005,5.72069787979126,10.262993812561035,7.328268051147461,-47.820743560791016
2,108006,-9.714380264282227,16.284299850463867,-12.009674072265625,9.85486125946045
2,108009,-19.999202728271484,30.27040672302246,13.880669593811035,21.655941009521484
2,108010,-8.86322021484375,-24.06962776184082,5.913750171661377,-34.244075775146484
2,108013,70.27571105957031,10.972968101501465,-12.34145450592041,-4.887631416320801
2,108014,59.03476333618164,56.5765266418457,-7.108626842498779,19.86225128173828
2,108017,-52.43277359008789,-48.93948745727539,24.55109214782715,14.366994857788086
2,108018,-26.69212532043457,-39.78376388549805,7.256299018859863,-3.7024598121643066
2,108021,17.456802368164062,8.13985824584961,-39.418582916259766,-26.96833038330078
2,108022,23.97195053100586,8.123884201049805,9.30994987487793,19.434680938720703
2,108025,4.682515621185303,21.0063533782959,23.28461456298828,-33.79114532470703
2,108026,-30.502307891845703,-8.958894729614258,-20.950786590576172,-48.49527359008789
2,108029,1.4690299034118652,-31.34004020690918,10.263151168823242,92.54421997070312
2,108030,-3.4600613117218018,27.03977394104004,16.443031311035156,47.90863037109375
2,108033,-28.03732681274414,39.837650299072266,-22.00229263305664,-42.86099624633789
2,108034,-10.66580867767334,-17.03072738647461,-18.886810302734375,-13.309093475341797
2,108037,3.876429319381714,-31.807897567749023,3.303335189819336,-35.696475982666016
2,108038,10.074130058288574,-9.30427360534668,11.159961700439453,-18.552597045898438
2,108041,22.48230743408203,35.70481872558594,30.29561424255371,70.28889465332031
2,108042,-14.4722261428833,2.7461040019989014,15.569047927856445,38.24270248413086
2,108045,3.0427334308624268,1.2063517570495605,-29.719270706176758,-54.856021881103516
2,108046,27.62392234802246,9.684000968933105,-18.722694396972656,-27.10265350341797
2,108049,-29.418241500854492,-36.913814544677734,-3.611638307571411,19.042390823364258
2,108050,4.914053916931152,19.5667724609375,8.841933250427246,-5.662224769592285
2,108053,5.374236106872559,13.418525695800781,8.883094787597656,-7.01780891418457
2,108054,-25.14053726196289,-46.104888916015625,-5.358715057373047,10.776260375976562
2,108057,0.8249328136444092,11.394969940185547,6.5379180908203125,26.55225944519043
2,108058,12.998241424560547,33.2176399230957,1.8835840225219727,21.347131729125977
2,108061,14.138647079467773,0.0855627954006195,-8.27062702178955,-52.95075988769531
2,108062,15.367812156677246,-32.75983428955078,3.35805082321167,-59.8899040222168
2,108065,-2.3869259357452393,-1.6844379901885986,1.323541283607483,53.35391616821289
2,108066,-39.49748229980469,20.87929344177246,-13.806700706481934,57.56489944458008
2,108069,9.599488258361816,-14.268170356750488,11.609214782714844,-6.120273113250732
2,108070,33.3906364440918,-14.88288402557373,14.373974800109863,-19.98424530029297
2,108073,-14.683706283569336,10.57882308959961,-15.54812240600586,-6.297795295715332
2,108074,-6.202042102813721,37.72372817993164,5.441466331481934,-9.573988914489746
2,108077,5.150566577911377,7.7397990226745605,2.1091387271881104,-32.930118560791016
2,108078,-15.26382064819336,-13.180990219116211,-11.768526077270508,41.04339599609375
2,108081,-5.779057502746582,-18.61398696899414,5.43849515914917,30.38614845275879
2,108082,23.192527770996094,-20.140148162841797,-11.310433387756348,-56.44351577758789
2,108085,5.298269748687744,12.491304397583008,8.226175308227539,-10.153213500976562
2,108086,-28.08993148803711,23.68756675720215,15.847472190856934,43.593719482421875
2,108089,-24.29429817199707,-9.412178039550781,-21.62230682373047,-7.216749668121338
2,108090,7.774190425872803,-11.991600036621094,6.793675899505615,-27.36507797241211
2,108093,27.444461822509766,16.731191635131836,22.050031661987305,20.598159790039062
2,108094,15.159162521362305,-6.2370147705078125,-11.053670883178711,-6.130094051361084
2,108097,1.7276560068130493,-5.171931266784668,-14.795947074890137,-16.18818473815918
2,108098,-13.843478202819824,-2.546372890472412,-8.272042274475098,19.074609756469727
2,108101,-22.93173599243164,-0.38809436559677124,6.420468807220459,5.436107635498047
2,108102,-1.1325799226760864,9.179628372192383,12.18448543548584,9.038551330566406
2,108105,23.272541046142578,-23.198570251464844,-23.890771865844727,-18.32689666748047
2,108106,21.367555618286133,10.708029747009277,-3.0041377544403076,-19.234359741210938
2,108109,-19.286060333251953,19.132965087890625,32.10963439941406,43.16584777832031
2,108110,-26.006282806396484,-13.949742317199707,-2.314857244491577,14.366554260253906
2,108113,40.05780792236328,8.611581802368164,2.840036392211914,-20.681379318237305
2,108114,22.55940818786621,-9.125054359436035,27.780410766601562,-5.20064115524292
