Aktueller Finger,timestamp_ms,sensor_0,sensor_1,sensor_2,sensor_3
0,488331,-48.09888458251953,5.393194198608398,8.238816261291504,-46.934810638427734
0,488332,-41.299163818359375,10.928738594055176,121.72518157958984,140.72210693359375
0,488335,12.925395965576172,-3.022838830947876,2.755101442337036,-37.744117736816406
0,488336,-24.310949325561523,-2.908642053604126,-75.56653594970703,-119.83999633789062
0,488339,50.07921600341797,-0.012800735421478748,-58.89988327026367,49.34269714355469
0,488340,126.13634490966797,0.1308540552854538,-41.244510650634766,69.37367248535156
0,488343,-58.73629379272461,-8.385872840881348,92.1036376953125,31.321020126342773
0,488344,-115.00930786132812,-4.900549411773682,36.27985382080078,-23.147985458374023
0,488350,6.637619972229004,26.119298934936523,-54.27356719970703,2.532240629196167
0,488350,28.25075340270996,-0.11630045622587204,3.171520471572876,-24.38257598876953
0,488351,20.954296112060547,-17.3623046875,4.843716621398926,-11.088899612426758
0,488353,14.580678939819336,-17.889110565185547,-26.473257064819336,64.12045288085938
0,488355,10.673578262329102,-11.096744537353516,-25.421951293945312,-166.2747802734375
0,488357,-13.77957534790039,26.70056915283203,74.87495422363281,-124.14320373535156
0,488359,-28.44528579711914,27.384960174560547,62.1523323059082,186.7343292236328
0,488361,-9.680170059204102,-18.5582275390625,-73.29801940917969,111.37371826171875
0,488363,1.100492000579834,-14.849056243896484,-49.17022705078125,-40.30792999267578
0,488365,29.626649856567383,28.505773544311523,23.116823196411133,-28.947254180908203
0,488367,13.225951194763184,-1.8911138772964478,32.1397819519043,-25.63513946533203
0,488369,-28.030380249023438,-23.04026985168457,-0.28681474924087524,-79.20864868164062
0,488371,-1.4158467054367065,-12.929707527160645,-31.37480926513672,86.32466888427734
0,488373,28.86079978942871,1.213568091392517,-13.156829833984375,178.01734924316406
0,488375,-4.431273460388184,23.808748245239258,12.132833480834961,-151.00587463378906
0,488377,-27.311756134033203,-2.091094970703125,7.307119846343994,-159.22024536132812
0,488379,30.673234939575195,-11.675642967224121,-21.009117126464844,62.967926025390625
0,488381,23.371091842651367,16.32349967956543,13.255677223205566,69.1619873046875
0,488383,-66.01293182373047,-3.5409321784973145,36.75436782836914,46.76259231567383
0,488385,-42.81962966918945,-8.625041961669922,-8.045891761779785,-16.97468376159668
0,488387,83.36357116699219,21.633472442626953,1.5075218677520752,-35.819740295410156
0,488389,36.50399398803711,-21.818052291870117,1.0613270998001099,-50.76396179199219
0,488391,-69.73015594482422,-6.208039283752441,-14.235695838928223,95.81781768798828
0,488393,-1.8243130445480347,22.78182029724121,-2.211884021759033,143.75010681152344
0,488395,26.135759353637695,-9.465404510498047,2.086224317550659,-164.6112060546875
0,488397,-4.152297019958496,3.795480251312256,10.240726470947266,-107.96194458007812
0,488399,-17.864910125732422,-6.992249965667725,-15.035842895507812,104.15138244628906
0,488401,-9.130399703979492,-3.172576665878296,-13.660405158996582,39.440208435058594
0,488403,2.490347146987915,11.27643871307373,11.909560203552246,-7.677643299102783
0,488405,7.628592491149902,-8.297773361206055,12.722066879272461,-17.114118576049805
0,488407,12.879112243652344,-23.325151443481445,22.896892547607422,-61.245948791503906
0,488409,35.63188552856445,-13.355035781860352,-14.04343032836914,-97.00833129882812
0,488411,20.471572875976562,36.551788330078125,-31.41867446899414,102.79352569580078
0,488413,-100.10475158691406,26.847414016723633,19.0982666015625,173.44485473632812
0,488415,-19.686134338378906,-36.55073165893555,14.862473487854004,-158.68411254882812
0,488417,128.06881713867188,-19.193954467773438,-15.309382438659668,-91.06241607666016
0,488419,-5.136734962463379,37.77374267578125,6.81624174118042,128.6531982421875
0,488421,-79.13516998291016,11.37317180633545,20.443592071533203,26.70285987854004
0,488423,15.437521934509277,-23.90951156616211,-33.17624282836914,18.392301559448242
0,488425,0.8751459121704102,5.7393479347229,-33.66278076171875,-8.143966674804688
0,488427,-25.00531005859375,-1.4581462144851685,24.331418991088867,-110.66583251953125
0,488429,22.514488220214844,-2.7243850231170654,12.488898277282715,-80.5607681274414
0,488431,24.927947998046875,28.87520980834961,-9.47300910949707,140.70974731445312
0,488433,-41.329593658447266,-12.317399978637695,-9.16667366027832,148.7920684814453
0,488435,2.756795644760132,-34.213905334472656,-15.136717796325684,-192.0087127685547
0,488437,70.3080825805664,8.821950912475586,-7.056235313415527,-110.1629409790039
0,488439,7.199403285980225,16.41641616821289,6.939831256866455,145.75
0,488441,-51.6035041809082,-4.669638633728027,41.860172271728516,46.618263244628906
0,488443,-67.45442962646484,3.441222667694092,54.8851203918457,-14.631254196166992
0,488445,18.449907302856445,8.808575630187988,6.259528636932373,-20.192155838012695
0,488447,39.27515411376953,-19.878253936767578,-31.788877487182617,-36.7347526550293
0,488449,-16.676279067993164,-2.8268842697143555,-51.331607818603516,-50.198604583740234
0,488451,35.66830062866211,17.92296028137207,-19.20457649230957,107.10616302490234
0,488453,31.326993942260742,-13.666738510131836,39.112178802490234,154.0301055908203
0,488455,-18.637680053710938,1.0594016313552856,-9.447054862976074,-205.1173858642578
0,488457,-21.70700454711914,17.269611358642578,-39.45613479614258,-108.42871856689453
0,488459,-19.67742347717285,-5.615997791290283,24.00217628479004,148.31646728515625
0,488461,6.771235466003418,-8.989168167114258,59.802940368652344,3.7049479484558105
0,488463,-11.22005558013916,-7.9346418380737305,20.796314239501953,-1.0189813375473022
0,488465,-25.94194984436035,12.898764610290527,-59.53515625,18.78108787536621
0,488467,39.1938591003418,14.621923446655273,-72.65361785888672,-56.57023620605469
0,488469,47.44990539550781,-14.096394538879395,13.113333702087402,-108.20228576660156
0,488471,-35.51759719848633,-6.589899063110352,82.12039184570312,95.28546142578125
0,488473,-48.610137939453125,-0.2365197241306305,13.235099792480469,194.0745849609375
0,488475,33.717403411865234,-5.960972309112549,-43.425724029541016,-161.97657775878906
0,488477,44.533077239990234,3.3042266368865967,7.327311038970947,-105.25668334960938
0,488479,-24.90578269958496,13.984333992004395,-0.9072400331497192,116.23599243164062
0,488481,-15.529851913452148,5.225853443145752,-8.949342727661133,33.308265686035156
0,488483,34.67963409423828,-17.53220558166504,7.210664749145508,3.3838770389556885
0,488485,-7.163671493530273,-8.854150772094727,-9.07424545288086,-61.493011474609375
0,488487,-18.828319549560547,22.454486846923828,22.251392364501953,-64.18165588378906
0,488742,6.639664173126221,19.33672523498535,1.1888395547866821,68.34241485595703
0,488743,-34.262237548828125,-13.38100814819336,-24.063003540039062,-64.23367309570312
0,488746,-20.451814651489258,-26.751157760620117,13.812540054321289,-260.4999694824219
0,488747,54.615394592285156,-17.757369995117188,-15.740367889404297,24.035385131835938
0,488750,50.349517822265625,27.390460968017578,-6.069037914276123,282.6256103515625
0,488751,-64.08419036865234,23.220592498779297,31.395204544067383,153.897705078125
0,490869,6.4646759033203125,-37.153343200683594,2.4672060012817383,242.11422729492188
0,490869,146.995361328125,-4.401151180267334,10.811795234680176,186.8723602294922
0,490871,-48.74713134765625,20.24521827697754,17.377744674682617,-233.0600128173828
0,490873,-182.63369750976562,4.3418378829956055,-5.2236647605896,-287.7006530761719
0,490875,-14.904648780822754,4.554295539855957,-38.134437561035156,-184.73214721679688
0,490877,57.00975036621094,-20.22461700439453,-31.664121627807617,-111.33731842041016
0,490879,-11.977720260620117,-7.949025630950928,3.5994184017181396,-22.324838638305664
0,490881,-0.7640141844749451,11.639206886291504,-16.161705017089844,61.67639923095703
0,490883,-1.2505292892456055,-5.83681583404541,25.174880981445312,119.14701080322266
0,490885,71.30377197265625,11.050080299377441,56.575599670410156,85.61714935302734
0,490887,15.867420196533203,25.78961944580078,-8.77696704864502,59.51062774658203
0,490889,-85.47352600097656,-3.758847236633301,-38.955230712890625,181.1384735107422
0,490891,85.95744323730469,-21.232942581176758,-9.672524452209473,118.10441589355469
0,490893,29.684293746948242,0.833016037940979,11.63945484161377,-277.07275390625
0,490895,-80.24456787109375,11.458045959472656,21.535980224609375,-227.4881591796875
0,490897,24.269880294799805,-12.979578971862793,8.91942310333252,27.23948860168457
0,490899,6.454160213470459,8.742911338806152,-22.371089935302734,10.367337226867676
0,490901,-28.91805076599121,17.072519302368164,-2.6472105979919434,35.68855667114258
0,490903,14.974608421325684,-42.05706787109375,-13.914323806762695,87.31260681152344
0,490905,-30.642580032348633,-3.0575923919677734,-33.34197235107422,-10.380450248718262
0,490907,-10.153010368347168,43.44941711425781,-3.387922763824463,-44.415008544921875
0,490909,55.47389602661133,-19.092161178588867,49.66298294067383,200.73255920410156
0,490911,31.07317352294922,-19.58113670349121,73.41329193115234,157.48431396484375
0,490913,-20.932924270629883,14.168028831481934,-24.640287399291992,-259.7112731933594
0,490915,-39.150611877441406,13.02944278717041,-64.42134857177734,-190.2918243408203
0,490917,21.67227554321289,-7.6533026695251465,10.14763355255127,78.46649169921875
0,490919,44.22473907470703,6.87736701965332,16.842073440551758,20.10032081604004
0,490921,-54.171180725097656,5.83095645904541,10.782668113708496,-6.190766334533691
0,490923,-82.06945037841797,-30.67263412475586,26.727401733398438,31.91604995727539
0,490925,20.34386444091797,10.377520561218262,-37.381256103515625,5.689507007598877
0,490927,98.9051284790039,9.224874496459961,-56.97303009033203,-69.09069061279297
0,490929,19.033187866210938,-19.914932250976562,21.174835205078125,145.57772827148438
0,490931,-104.87630462646484,18.960569381713867,36.70661544799805,213.0739288330078
0,490933,12.097528457641602,11.486039161682129,23.18358039855957,-246.69017028808594
0,490935,54.623207092285156,-27.62241554260254,-9.203123092651367,-167.75917053222656
0,490937,-5.091610908508301,-5.30190896987915,-60.576839447021484,98.72943115234375
0,490939,21.680559158325195,27.174409866333008,21.495960235595703,-16.00704574584961
0,490941,-8.084351539611816,19.520584106445312,21.420507431030273,23.277067184448242
0,490943,-26.717529296875,-30.832576751708984,-82.88361358642578,53.92405319213867
0,490945,-23.397186279296875,-27.203208923339844,55.718204498291016,-19.736003875732422
0,490947,1.053573727607727,21.225242614746094,151.39186096191406,-52.11224365234375
0,490949,27.6680908203125,10.598016738891602,-46.14619445800781,113.64324951171875
0,490951,-0.7676748037338257,-11.334419250488281,-128.36373901367188,138.11199951171875
0,490953,9.159658432006836,11.423893928527832,-7.8236212730407715,-208.6027069091797
0,490955,15.627471923828125,9.999207496643066,20.99336051940918,-137.43341064453125
0,490957,-30.77838706970215,-20.327362060546875,22.934612274169922,106.90823364257812
0,490959,-13.352054595947266,-3.2256381511688232,27.0896053314209,27.848920822143555
0,490961,82.6874008178711,18.758893966674805,-4.885461330413818,38.73338317871094
0,490963,-1.501690149307251,17.031160354614258,23.17767906188965,29.164222717285156
0,490965,-150.8721160888672,-11.966009140014648,-26.53200340270996,-81.2314682006836
0,490967,54.405494689941406,-11.922842025756836,-81.84754943847656,-71.97737121582031
0,490969,135.09991455078125,-2.579192876815796,12.065646171569824,128.1343536376953
0,490971,-75.6978530883789,-9.17201042175293,75.30989837646484,130.2146759033203
0,490973,-90.7788314819336,8.256925582885742,26.99058723449707,-177.83529663085938
0,490975,24.554121017456055,1.3456023931503296,-25.647768020629883,-98.67449951171875
0,490977,51.76113510131836,10.598217964172363,-17.769840240478516,104.33452606201172
0,490979,-17.650379180908203,-5.422574996948242,6.716289520263672,14.954559326171875
0,490981,-28.199602127075195,-11.581879615783691,4.932325839996338,27.320104598999023
0,490983,4.867714881896973,13.345256805419922,-33.03758239746094,43.16407775878906
0,490985,59.08238220214844,-16.349550247192383,-33.58705520629883,-83.7205810546875
0,490987,22.618907928466797,-2.8064093589782715,56.28184509277344,-95.43656921386719
0,490989,-92.09467315673828,16.290441513061523,81.47239685058594,136.29478454589844
0,490991,-32.425235748291016,-4.055837154388428,-3.0403566360473633,137.95753479003906
0,490993,40.75883483886719,5.739539623260498,-79.40968322753906,-202.88328552246094
0,490995,69.62039947509766,15.454981803894043,-76.68122863769531,-120.6168441772461
0,490997,29.97264862060547,-14.527227401733398,35.15293884277344,155.84182739257812
0,490999,-61.94257354736328,-26.43403434753418,72.28558349609375,42.6436653137207
0,491001,-43.51150894165039,12.444374084472656,2.1159276962280273,-21.96832847595215
0,491003,-2.7281506061553955,15.774474143981934,-13.591280937194824,23.85862922668457
0,491005,24.25247573852539,-10.523185729980469,-39.478450775146484,-91.88104248046875
0,491007,24.25189781188965,10.217747688293457,-18.63074493408203,-81.03418731689453
0,491009,3.911058187484741,-5.110325336456299,19.135974884033203,171.18780517578125
0,491011,28.92917823791504,-9.146651268005371,23.30483627319336,119.99357604980469
0,491013,-27.019329071044922,9.567623138427734,45.85551071166992,-184.86721801757812
0,491015,-41.400665283203125,-7.213524341583252,-2.983278512954712,-67.976318359375
0,491017,41.065162658691406,9.521519660949707,-41.90953826904297,75.92599487304688
0,491019,-0.9560855031013489,1.7374533414840698,-12.538058280944824,-17.226593017578125
0,491020,-27.998615264892578,-20.847843170166016,-2.281290054321289,27.01161766052246
0,491023,12.611278533935547,-2.558138847351074,0.05119764432311058,68.86665344238281
0,491024,-9.606318473815918,22.226133346557617,11.01645565032959,-61.47513198852539
0,491027,-4.4563069343566895,1.0171217918395996,-13.88168716430664,-127.32669830322266
0,491028,35.558509826660156,-13.142011642456055,-20.666645050048828,65.88853454589844
0,491031,-10.662550926208496,0.6231865882873535,-9.605405807495117,177.347412109375
0,491032,-45.53269577026367,3.231919765472412,12.122254371643066,-6.2071404457092285
0,491035,2.8904759883880615,2.3649401664733887,60.58156967163086,-148.11146545410156
0,491036,29.20592498779297,5.738409519195557,49.92238998413086,3.3552119731903076
0,491039,109.18183135986328,7.409466743469238,-25.22398567199707,77.93537902832031
0,491040,27.391687393188477,-8.323341369628906,-64.69719696044922,-21.16092300415039
0,491043,-189.9309539794922,-13.858101844787598,-5.439357757568359,-6.878545761108398
0,491044,-56.60917282104492,1.7825748920440674,26.889148712158203,-30.385238647460938
0,491047,61.81922149658203,26.74403190612793,-5.319220542907715,-90.94419860839844
0,491048,6.751350402832031,2.656702995300293,-15.714239120483398,19.498783111572266
0,491053,87.29756927490234,-35.56956481933594,-47.600181579589844,86.65803527832031
0,491053,57.15427017211914,-4.300971508026123,-39.49224853515625,-22.791746139526367
0,491054,9.049612045288086,17.122018814086914,106.76751708984375,-15.169631004333496
0,491057,-72.52851104736328,-15.225162506103516,92.84239959716797,44.62027359008789
0,491058,-169.2999725341797,-0.8270092606544495,-83.95405578613281,35.47945022583008
0,491061,21.56639862060547,31.933300018310547,-54.746177673339844,-8.977360725402832
0,491062,94.06646728515625,1.9104253053665161,47.507240295410156,-28.70860481262207
0,491065,25.993162155151367,-10.36085033416748,31.10396957397461,-13.130152702331543
0,491066,-0.8274579048156738,-12.933588027954102,-29.844675064086914,-58.615447998046875
0,491069,0.0546523742377758,-3.568903684616089,-13.541409492492676,115.85563659667969
0,491070,17.895923614501953,26.853792190551758,20.080821990966797,136.28807067871094
0,491073,-24.272008895874023,2.453460693359375,-13.60123062133789,-225.9393310546875
0,491074,-32.855525970458984,-13.950875282287598,-21.394935607910156,-101.14447021484375
0,491077,-16.617759704589844,6.596095085144043,-22.502477645874023,153.23838806152344
0,491078,9.612777709960938,-13.13032341003418,-6.288025856018066,1.3596599102020264
0,491081,124.41273498535156,-14.489824295043945,73.99604034423828,-29.814741134643555
0,491082,57.633216857910156,30.88163185119629,45.849613189697266,31.954153060913086
0,491085,-139.68560791015625,2.944068670272827,-64.0107650756836,-25.186826705932617
0,491086,-40.800621032714844,-15.876023292541504,-43.08819580078125,-72.4572982788086
0,491089,38.852630615234375,11.814197540283203,28.46770668029785,102.82296752929688
0,491090,-17.642724990844727,-17.88343048095703,25.540475845336914,136.4337615966797
0,491093,-3.082244396209717,-9.472884178161621,-24.35992431640625,-169.0897674560547
0,491094,15.521238327026367,6.9561448097229,-39.601322174072266,-104.84297180175781
0,491097,-11.296706199645996,-15.454161643981934,17.350051879882812,114.96295928955078
0,491098,-6.356342315673828,15.169757843017578,58.65754699707031,28.747480392456055
0,491101,43.84242248535156,29.929210662841797,28.034290313720703,-20.76742935180664
0,491102,-26.711864471435547,1.5560755729675293,-18.331722259521484,21.9360408782959
0,491105,-34.57490921020508,-37.409767150878906,-60.14225769042969,-45.51366424560547
0,491106,43.03315353393555,-21.697872161865234,-28.33722686767578,-95.423583984375
0,491109,5.107211112976074,35.565574645996094,33.410858154296875,149.47471618652344
0,491110,-8.708273887634277,1.9341899156570435,17.641273498535156,130.0147705078125
0,491113,-5.840628147125244,-17.497940063476562,-14.21204662322998,-225.1404266357422
0,491114,2.733755588531494,25.650571823120117,-2.950366497039795,-83.13262939453125
0,491117,11.839788436889648,-10.410999298095703,17.800724029541016,148.8555908203125
0,491118,-10.349502563476562,-13.866589546203613,-36.27821731567383,22.610355377197266
0,491121,7.2796101570129395,16.901153564453125,-9.624747276306152,2.3957700729370117
0,491122,0.031576819717884064,-25.838489532470703,82.78211975097656,44.18363952636719
0,491125,-30.244909286499023,14.707223892211914,2.863917112350464,-106.91077423095703
0,491126,5.317604064941406,37.395301818847656,-54.76042938232422,-123.80149841308594
0,491129,33.908729553222656,-12.618352890014648,19.0629825592041,168.9438934326172
0,491130,-1.3292579650878906,-5.75752592086792,29.515771865844727,150.79563903808594
0,491133,2.984741449356079,-3.8209927082061768,-13.151093482971191,-208.94512939453125
0,491134,84.3781967163086,-2.702521324157715,-11.887648582458496,-96.33352661132812
0,491137,-35.481529235839844,-11.607919692993164,-100.0971450805664,148.15982055664062
0,491138,-179.2736053466797,-9.160244941711426,-52.83769226074219,9.54994010925293
0,491141,-17.49258804321289,28.714523315429688,231.11471557617188,-22.758991241455078
0,491142,70.18112182617188,2.1465365886688232,107.40534210205078,34.79227066040039
0,491145,150.36888122558594,-21.59432601928711,-215.98887634277344,-42.53507995605469
0,491146,130.5968780517578,-2.584808826446533,-122.91480255126953,-75.68960571289062
0,491149,-188.54685974121094,-7.115169048309326,85.74675750732422,112.24556732177734
0,491150,-179.96282958984375,5.038151264190674,93.39102935791016,149.81541442871094
0,491153,78.88900756835938,21.58377456665039,23.320850372314453,-192.1404266357422
0,491154,65.2464828491211,-0.47195807099342346,-44.88382339477539,-125.6125717163086
0,491157,-4.032450199127197,-14.670157432556152,-52.50946044921875,153.92782592773438
0,491158,19.272235870361328,11.86437702178955,-14.360367774963379,44.464359283447266
0,491161,-0.020004291087388992,-11.34694766998291,-0.8463371396064758,-37.15103530883789
0,491162,-20.700796127319336,-13.738941192626953,17.093442916870117,4.859260082244873
0,491165,-14.910338401794434,32.37204360961914,68.92636108398438,-42.471275329589844
0,491166,-5.246561050415039,-15.973000526428223,54.9431037902832,-81.61832427978516
0,491169,32.7509880065918,-4.6478071212768555,-81.81646728515625,100.95155334472656
0,491170,21.09016227722168,30.843463897705078,-52.905487060546875,134.19454956054688
0,491173,-22.855602264404297,-31.66388511657715,52.583282470703125,-159.91453552246094
0,491174,26.68756866455078,-21.256404876708984,3.448709726333618,-90.2308120727539
0,491177,7.646603584289551,24.732877731323242,-0.2306978851556778,117.36127471923828
0,491178,5.140105724334717,26.27283477783203,14.865153312683105,20.039539337158203
0,491181,4.272168159484863,-12.561759948730469,-30.473487854003906,-10.740758895874023
0,491182,-76.02056121826172,-26.340803146362305,-32.148101806640625,37.08034133911133
0,491185,-16.442190170288086,13.535544395446777,-22.970441818237305,-46.97810745239258
0,491186,24.392086029052734,0.7634184956550598,5.990756988525391,-122.989501953125
0,491189,26.029151916503906,3.4532339572906494,97.07854461669922,116.68778991699219
0,491190,5.871020793914795,24.85091209411621,53.73427963256836,168.72767639160156
0,491193,-48.48102951049805,-9.600130081176758,-70.2679214477539,-178.09312438964844
0,491194,13.040657043457031,-17.48769187927246,-44.2620735168457,-112.73298645019531
0,491197,40.45209503173828,-6.682774543762207,8.104801177978516,129.56358337402344
0,491198,22.36621856689453,-4.023445129394531,-4.626603603363037,47.909358978271484
0,491201,-14.820849418640137,-2.321115016937256,-10.733839988708496,-18.554609298706055
0,491202,-51.958396911621094,0.4150344729423523,6.836969375610352,3.200256824493408
0,491205,42.65262985229492,8.89805793762207,-3.993572950363159,-57.3619270324707
0,491206,18.141828536987305,3.494762420654297,-11.11906623840332,-94.33679962158203
0,491209,-26.163875579833984,-11.987637519836426,71.3559341430664,133.2113037109375
0,491210,11.41445255279541,-5.044485092163086,48.59174728393555,137.8010711669922
0,491213,-39.820438385009766,41.671058654785156,-71.76626586914062,-200.3904571533203
0,491214,-14.43837833404541,8.228647232055664,-43.1317253112793,-88.51139068603516
0,491217,19.341638565063477,-22.748750686645508,-5.555658340454102,135.78269958496094
0,491218,4.830115795135498,3.0709714889526367,-3.8164379596710205,45.678192138671875
0,491221,11.223000526428223,-6.630456447601318,29.84388542175293,-18.065340042114258
0,491222,-18.7023983001709,-5.320997714996338,38.57229232788086,-15.988911628723145
0,491225,-9.666988372802734,-8.59427261352539,21.73151397705078,-42.32938766479492
0,491227,29.445720672607422,2.0704212188720703,-62.42482376098633,-62.12397003173828
0,491229,26.297632217407227,1.206371784210205,-67.03744506835938,124.64114379882812
0,491231,99.76640319824219,0.5731568336486816,56.96078872680664,124.28736114501953
0,491233,-65.11931610107422,12.56092357635498,43.3277587890625,-191.5304718017578
0,491235,-179.04327392578125,-21.25716209411621,-32.15121078491211,-76.13247680664062
0,491237,96.23650360107422,-4.379893779754639,-4.516624450683594,129.8597412109375
0,491239,62.28630447387695,21.767112731933594,-0.26485541462898254,1.0961418151855469
0,491241,-43.372467041015625,11.47156047821045,34.567970275878906,-26.21627426147461
0,491243,3.5501298904418945,5.768575191497803,71.08657836914062,32.13282012939453
0,491245,-3.836540460586548,-32.31622314453125,-112.28681945800781,-28.819643020629883
0,491247,19.409616470336914,-5.777568340301514,-120.87715911865234,-97.15909576416016
0,491248,-7.286474227905273,29.728784561157227,159.2635498046875,57.99742889404297
0,491251,-30.23311996459961,-6.666018486022949,94.38506317138672,130.0789031982422
0,491252,-27.41666603088379,-11.955056190490723,-117.38341522216797,-50.83694839477539
0,491255,0.010317258536815643,4.5891947746276855,-44.24643325805664,-100.18344116210938
0,491256,87.05400085449219,-9.0429105758667,51.19046401977539,20.077909469604492
0,491259,107.85699462890625,-4.357163906097412,-0.5092621445655823,74.67964172363281
0,491260,-49.01974868774414,10.582488059997559,-23.102863311767578,22.623184204101562
0,491263,-157.54920959472656,-3.534250020980835,32.65750503540039,13.600515365600586
0,491264,-27.243242263793945,2.2898545265197754,2.3710134029388428,-89.18592071533203
0,491267,88.87543487548828,11.06273078918457,-19.201169967651367,-103.84376525878906
0,491268,29.118419647216797,4.141972064971924,25.321109771728516,120.31403350830078
0,491271,-45.80054473876953,3.8478121757507324,-12.979525566101074,114.52735900878906
0,491272,-26.837675094604492,-4.150853633880615,-88.92341613769531,-89.57389831542969
0,491275,22.68390464782715,-5.542690277099609,13.645235061645508,-104.8116683959961
0,491276,8.118075370788574,3.642822027206421,128.6522674560547,49.585750579833984
0,491279,16.212419509887695,-7.4407453536987305,20.019668579101562,65.26512908935547
0,491280,12.438491821289062,-3.4302892684936523,-49.85356140136719,-17.224294662475586
0,491283,-7.020304203033447,11.067193984985352,-42.79347229003906,23.1951847076416
0,491284,9.021683692932129,-6.741128921508789,-60.41932678222656,-37.72488784790039
0,491287,10.651865005493164,-17.370256423950195,32.07082748413086,-111.5993423461914
0,491288,7.871621608734131,-2.238055467605591,76.78565979003906,99.93197631835938
0,491291,-42.5110969543457,15.4776029586792,-14.66593074798584,137.33303833007812
0,491292,-6.059247016906738,11.186286926269531,-47.56565856933594,-104.56037902832031
0,491295,44.35820388793945,-8.857980728149414,-11.470695495605469,-96.19538116455078
0,491296,7.5000128746032715,-4.577173233032227,64.08875274658203,58.82950210571289
0,491299,-42.16575241088867,6.534209728240967,50.39312744140625,23.214826583862305
0,491300,-53.58830642700195,11.173829078674316,-53.325523376464844,-0.04838167876005173
0,491303,29.983970642089844,12.667223930358887,-41.288143157958984,65.75103759765625
0,491304,44.246421813964844,-17.835161209106445,-20.133153915405273,-61.62277603149414
0,491307,-12.83228874206543,-27.925411224365234,-7.7910895347595215,-130.76535034179688
0,491308,-29.169593811035156,-3.6326990127563477,59.2726936340332,97.6142807006836
0,491311,-2.0356786251068115,6.8881988525390625,7.5618109703063965,144.70465087890625
0,491312,45.28988265991211,24.581876754760742,-30.999740600585938,-95.50760650634766
0,491315,-15.349447250366211,5.824938774108887,39.18022537231445,-122.16736602783203
0,491316,-86.89844512939453,-34.00547790527344,18.511199951171875,57.97537612915039
0,491319,41.35539245605469,-0.0914200097322464,-48.548614501953125,59.93380355834961
0,491320,118.32660675048828,22.041690826416016,-35.551361083984375,-16.90239715576172
0,491323,16.338542938232422,0.30899015069007874,-31.447072982788086,41.19595718383789
0,491324,-93.6288070678711,-1.7472188472747803,66.75242614746094,-35.84830856323242
0,491327,-108.44127655029297,7.5039448738098145,166.0279998779297,-132.36036682128906
0,491328,3.6192262172698975,6.773777961730957,-28.769447326660156,108.15540313720703
0,491331,183.23699951171875,3.2181622982025146,-210.66099548339844,150.69815063476562
0,491332,106.33037567138672,2.808260679244995,-132.93626403808594,-88.3375473022461
0,491335,-184.2152862548828,-24.641849517822266,100.71114349365234,-106.74691009521484
0,491336,-40.47864532470703,-20.385318756103516,158.82984924316406,-5.489141941070557
0,491339,36.08321762084961,13.835525512695312,-25.393875122070312,39.209678649902344
0,491340,-107.15800476074219,14.880819320678711,-34.45567321777344,56.28712463378906
0,491343,104.6223373413086,6.393149375915527,25.367910385131836,44.14548873901367
0,491344,128.027587890625,-16.36122703552246,-31.606311798095703,-104.08824920654297
0,491347,-86.99466705322266,-4.218179702758789,-12.961207389831543,-99.47636413574219
0,491348,-78.48138427734375,19.3403377532959,28.251455307006836,142.08755493164062
0,491351,16.74167823791504,-12.379891395568848,39.48958969116211,92.68043518066406
0,491352,10.267998695373535,1.5427274703979492,54.35237503051758,-133.13877868652344
0,491355,-7.677886009216309,0.5894867181777954,-30.2634220123291,-74.44882202148438
0,491356,14.615623474121094,-7.842493534088135,-58.86905288696289,93.60233306884766
0,491359,28.841367721557617,22.68895149230957,-70.77951049804688,67.7457275390625
0,491360,37.71815872192383,4.891163349151611,-105.64026641845703,-28.98037338256836
0,491363,9.373641967773438,-2.3022570610046387,124.01900482177734,-3.5987460613250732
0,491364,-40.229549407958984,1.3669880628585815,176.84759521484375,-35.3743782043457
0,491367,-59.91133499145508,-25.998872756958008,-55.948089599609375,-97.22137451171875
0,491368,-32.473045349121094,-8.327006340026855,-93.81050872802734,122.26187133789062
0,491371,97.97381591796875,10.032073974609375,-59.610408782958984,130.7073974609375
0,491372,89.92298126220703,-13.684566497802734,23.530012130737305,-132.1773223876953
0,491375,-114.47737121582031,37.55603790283203,138.26577758789062,-101.29159545898438
0,491376,-95.56783294677734,22.452836990356445,14.825181007385254,17.26239013671875
0,491379,31.08635139465332,-53.10019302368164,-102.60885620117188,42.344966888427734
0,491380,58.917747497558594,-6.027449607849121,-1.7449228763580322,31.978527069091797
0,491383,52.58579635620117,9.72073745727539,14.059612274169922,53.48312759399414
0,491384,-10.39088249206543,-8.658944129943848,-64.76190185546875,-17.823293685913086
0,491387,-23.670822143554688,24.89004135131836,-20.703105926513672,-141.33648681640625
0,491388,-8.772106170654297,13.098634719848633,52.67622756958008,75.59648895263672
0,491391,-89.87590789794922,-18.27137565612793,39.14043426513672,150.57449340820312
0,491392,-46.173648834228516,-12.045008659362793,-16.863922119140625,-111.77662658691406
0,491395,135.9602813720703,-12.95327091217041,-1.123501181602478,-113.58594512939453
0,491396,135.3916473388672,-2.8630027770996094,45.56298065185547,53.78227615356445
0,491399,-56.99099349975586,32.98815155029297,-58.20060729980469,77.85895538330078
0,491400,-146.13552856445312,12.889897346496582,-20.094005584716797,12.783927917480469
0,491403,-3.6256914138793945,-13.362329483032227,81.30438995361328,30.107255935668945
0,491404,28.05794334411621,5.746498107910156,-40.2891731262207,-68.04655456542969
0,491407,-19.673511505126953,-7.039437294006348,-23.933917999267578,-166.1410675048828
0,491408,48.975341796875,-2.3625054359436035,30.47065544128418,103.6330337524414
0,491411,27.319194793701172,13.786161422729492,-10.46410083770752,150.7861785888672
0,491412,-20.526418685913086,-12.203080177307129,6.931424617767334,-144.1885986328125
0,491415,-21.92733383178711,-7.05394983291626,22.13677406311035,-50.42644500732422
0,491416,55.27224349975586,11.387106895446777,-87.52613067626953,166.1138153076172
0,491419,28.94330406188965,-4.807906627655029,-32.412689208984375,-7.043853282928467
0,491420,-124.0397720336914,-4.275254726409912,212.59397888183594,-69.23042297363281
0,491423,28.956663131713867,1.3091686964035034,0.7707071900367737,77.16963195800781
0,491424,78.69605255126953,1.3771177530288696,-189.2190399169922,-73.71399688720703
0,491427,-69.4824447631836,-13.401579856872559,-7.6985087394714355,-113.78976440429688
0,491428,28.28886604309082,-5.69019889831543,46.31220245361328,169.3895263671875
0,491431,46.87576675415039,43.03151321411133,72.61897277832031,86.38996124267578
0,491432,-43.09965896606445,-21.098384857177734,32.809906005859375,-178.86968994140625
0,491435,11.99471664428711,-29.436187744140625,-90.01537322998047,-64.66038513183594
0,491437,-22.190460205078125,45.274139404296875,-31.37175178527832,85.06779479980469
0,491439,-67.8880844116211,-15.453980445861816,51.484474182128906,11.122208595275879
0,491441,43.68488311767578,-36.9046516418457,6.221156597137451,9.619461059570312
0,491443,38.355194091796875,16.86794662475586,-35.11342239379883,86.64966583251953
0,491445,-1.8249670267105103,13.26191234588623,-30.756135940551758,-70.9898910522461
0,491447,6.135869979858398,3.705411434173584,40.8503532409668,-111.84877014160156
0,491449,-32.54872131347656,8.239021301269531,46.34251022338867,123.67929077148438
0,491451,39.32406997680664,4.010656356811523,-42.078704833984375,53.668270111083984
0,491453,66.55364990234375,-1.0815205574035645,-2.8998234272003174,-132.03070068359375
0,491455,-95.29959106445312,-9.109427452087402,101.75602722167969,5.8428754806518555
0,491457,-115.87714385986328,-11.588659286499023,30.692262649536133,82.36861419677734
0,491459,23.056753158569336,-15.919264793395996,-102.60588073730469,-73.3508529663086
0,491461,63.572086334228516,2.8706705570220947,-70.97216033935547,-60.51445388793945
0,491464,133.244384765625,27.414817810058594,-52.6600227355957,141.31886291503906
0,491465,84.55770874023438,4.7716827392578125,-8.15864372253418,47.43490982055664
0,491467,-133.55398559570312,15.882438659667969,57.69136428833008,-83.53173828125
0,491469,-94.75999450683594,11.513035774230957,48.990474700927734,61.4534912109375
0,491471,-6.847061634063721,-56.19310760498047,70.40477752685547,-32.53041076660156
0,491473,41.468406677246094,-18.635852813720703,-12.158574104309082,-117.54541015625
0,491475,26.18193817138672,43.53654098510742,-88.14116668701172,4.859628200531006
0,491477,-87.6474380493164,-4.301186561584473,-24.252546310424805,73.56598663330078
0,491479,-0.2188815325498581,-11.092432975769043,98.29753112792969,-8.681375503540039
0,491481,18.653987884521484,11.722941398620605,101.2498550415039,-53.11577606201172
0,491483,74.82257843017578,-9.4349365234375,-130.01536560058594,95.51541137695312
0,491485,227.60960388183594,16.297006607055664,-134.42691040039062,-16.728967666625977
0,491487,-179.35964965820312,15.02214241027832,122.65705108642578,-62.4445915222168
0,491489,-334.8206787109375,-15.469919204711914,68.48458099365234,120.14585876464844
0,491491,137.1405487060547,-20.116559982299805,-73.16122436523438,-11.731847763061523
0,491493,130.04147338867188,-12.100228309631348,-12.504264831542969,-100.52824401855469
0,491495,-0.787699282169342,4.602277755737305,-9.656522750854492,-6.739735126495361
0,491497,104.38411712646484,-3.2954041957855225,14.895182609558105,44.05964660644531
0,491499,-34.343936920166016,34.331363677978516,37.82219696044922,18.8786678314209
0,491501,-145.69149780273438,18.151147842407227,-14.77428913116455,-36.1253776550293
0,491503,44.42000198364258,-37.793701171875,-41.57740020751953,57.74833679199219
0,491505,51.908966064453125,9.907905578613281,0.29435500502586365,-40.81264114379883
0,491507,-69.5350112915039,-1.6752985715866089,95.69384002685547,-109.93375396728516
0,491509,20.535173416137695,-25.157121658325195,15.434794425964355,127.87850952148438
0,491511,50.81101608276367,12.000492095947266,-83.81230926513672,64.36309814453125
0,491513,-6.502390384674072,2.093893527984619,-32.02969741821289,-117.48981475830078
0,491515,28.587635040283203,20.886150360107422,-12.495502471923828,-24.429094314575195
0,491517,53.73530578613281,15.696779251098633,-29.894033432006836,80.02239227294922
0,491519,-55.1592903137207,-42.622406005859375,-24.49042510986328,47.344913482666016
0,491521,-101.86011505126953,-19.655147552490234,83.53141021728516,-25.781734466552734
0,491523,-32.41136932373047,40.23539352416992,187.28221130371094,-42.1287727355957
0,491525,29.184829711914062,5.881409645080566,19.265140533447266,-89.11786651611328
0,491527,16.514568328857422,-5.430203437805176,-149.7857208251953,12.806341171264648
0,491529,30.617387771606445,16.484840393066406,-104.46410369873047,150.1539306640625
0,491531,114.54108428955078,-18.501340866088867,22.113344192504883,-13.624460220336914
0,491533,-22.57892608642578,-17.77142333984375,66.61148834228516,-90.6230239868164
0,491535,-115.96285247802734,13.366455078125,-44.51858139038086,-3.7445883750915527
0,491537,1.1186777353286743,18.204805374145508,-84.05158996582031,59.30697250366211
0,491539,40.53483963012695,-18.850805282592773,26.044809341430664,43.94763946533203
0,491541,-9.415878295898438,-13.1822509765625,119.67654418945312,-35.18422317504883
0,491543,-49.27763748168945,7.536570072174072,104.89338684082031,-10.230475425720215
0,491545,-10.409310340881348,4.251410961151123,-57.38090133666992,-74.48062133789062
0,491547,3.7734076976776123,-27.90169334411621,-164.48434448242188,-51.24782943725586
0,491549,35.08766174316406,-16.159366607666016,-15.263976097106934,135.6029510498047
0,491551,123.23431396484375,56.31173324584961,97.22290802001953,46.60056686401367
0,491553,148.3783721923828,22.659832000732422,3.4382879734039307,-64.37123107910156
0,491555,-153.62245178222656,-16.829999923706055,-45.5345344543457,-54.43412780761719
0,491557,-300.2767333984375,-9.128840446472168,60.81309509277344,-23.99744987487793
0,491559,120.26390838623047,-20.307931900024414,22.944902420043945,57.650184631347656
0,491561,113.96855163574219,-8.720162391662598,-66.13129425048828,53.14345169067383
0,491563,-9.222026824951172,20.60581398010254,20.749736785888672,-3.522489309310913
0,491565,56.36827850341797,10.571102142333984,17.221675872802734,-114.74015808105469
0,491567,-108.84593963623047,9.657587051391602,-53.92121505737305,-19.012569427490234
0,491569,-75.22742462158203,6.419405460357666,45.90382766723633,179.62449645996094
0,491571,46.76734924316406,-48.66481018066406,43.48100662231445,-6.564707279205322
0,491573,69.10379791259766,-20.3439998626709,-57.042423248291016,-170.38966369628906
0,491575,45.38862991333008,52.94532775878906,-23.678335189819336,31.10381507873535
0,491577,-8.0842866897583,37.53731918334961,-6.668604373931885,127.46031951904297
0,491579,-44.14936447143555,-4.910119533538818,28.52540397644043,-37.98300552368164
0,491581,2.1189682483673096,-21.920259475708008,32.729095458984375,-26.888118743896484
0,491583,55.95946502685547,-30.924989700317383,-6.029057025909424,54.50135803222656
0,491585,10.113689422607422,-11.250689506530762,-24.483226776123047,-90.04070281982422
0,491587,-63.796058654785156,31.847930908203125,-8.754267692565918,-69.03821563720703
0,491589,-48.558414459228516,5.9367804527282715,31.6389102935791,119.9569091796875
0,491591,7.625718116760254,-20.968921661376953,9.377435684204102,45.31162643432617
0,491593,21.652217864990234,2.8775079250335693,-33.44205856323242,-87.80707550048828
0,491595,-3.0773448944091797,-4.814589977264404,-8.262848854064941,-30.588253021240234
0,491597,-25.027029037475586,-1.8350530862808228,34.20547866821289,42.69330978393555
0,491599,17.88149642944336,-11.112699508666992,-16.317508697509766,17.690099716186523
0,491601,42.09407043457031,10.192538261413574,-26.340578079223633,45.78101348876953
0,491603,51.846893310546875,23.507015228271484,2.53751277923584,20.65009880065918
0,491605,-1.3344210386276245,-29.032217025756836,2.434418201446533,-165.410400390625
0,491607,-118.06694793701172,-7.071474075317383,24.52598762512207,-40.68574523925781
0,491609,-26.481599807739258,41.162269592285156,-1.4367890357971191,217.0919647216797
0,491611,109.54871368408203,6.113873481750488,-13.08447551727295,28.26278305053711
0,491613,-13.017356872558594,-31.195598602294922,14.276315689086914,-161.33792114257812
0,491615,-68.26546478271484,-11.447615623474121,-18.58797264099121,-46.29502868652344
0,491617,48.207462310791016,20.843751907348633,-21.10826301574707,73.35425567626953
0,491619,41.889320373535156,24.67361068725586,-61.031715393066406,69.93732452392578
0,491621,-25.242345809936523,-20.343502044677734,6.654735088348389,-9.65768051147461
0,491623,-69.12400817871094,-11.678788185119629,286.8910827636719,-17.001296997070312
0,491625,-14.631305694580078,15.428398132324219,55.17458724975586,-53.87876510620117
0,491627,136.48931884765625,-7.981648921966553,-362.0779724121094,-1.1585828065872192
0,491629,38.15882873535156,-0.08920544385910034,-85.0693130493164,126.38020324707031
0,491631,-124.24207305908203,1.717025637626648,188.87472534179688,-34.12301254272461
0,491633,-31.09855079650879,-19.91252899169922,62.16918182373047,-140.23350524902344
0,491635,30.829330444335938,-3.7677559852600098,12.41000747680664,0.4241819381713867
0,491637,-27.20613670349121,17.529598236083984,-18.593700408935547,69.06104278564453
0,491639,-5.219264507293701,5.4068403244018555,-92.64608764648438,6.467716693878174
0,491641,56.549800872802734,-0.10758183151483536,-9.614034652709961,-12.516027450561523
0,491643,161.2011260986328,10.660947799682617,44.989227294921875,71.11543273925781
0,491645,-1.7104679346084595,2.2230966091156006,-35.25727081298828,-31.32227897644043
0,491646,-272.50006103515625,-5.075475692749023,6.081450462341309,-141.85780334472656
0,491649,-24.996450424194336,-11.27616024017334,65.32936096191406,141.971435546875
0,491650,119.03018951416016,-11.567229270935059,-6.211458683013916,162.55850219726562
0,491653,152.63233947753906,7.6837358474731445,-35.21697998046875,-217.75758361816406
0,491654,37.59412384033203,2.5099294185638428,18.79591178894043,-100.74665832519531
0,491657,-277.6967468261719,-8.010810852050781,9.528403282165527,145.63516235351562
0,491658,-44.72570037841797,0.6325711011886597,-10.986425399780273,26.561050415039062
0,491661,122.39878845214844,2.589838743209839,-2.5438520908355713,-35.278648376464844
0,491662,3.9149434566497803,5.736795425415039,-25.212263107299805,10.525261878967285
0,491665,-0.2653816342353821,-3.5284230709075928,-20.52691650390625,-54.58787155151367
0,491666,-7.059612274169922,-1.3101513385772705,12.681184768676758,-107.28531646728516
0,491669,-5.867252826690674,16.81151580810547,36.706398010253906,150.1477508544922
0,491670,3.1660540103912354,10.361200332641602,22.236724853515625,174.496826171875
0,491673,26.982194900512695,-17.711061477661133,-12.672629356384277,-185.12985229492188
0,491674,60.988189697265625,-14.726128578186035,-11.354348182678223,-83.64434814453125
0,491677,-35.57271957397461,23.662506103515625,-5.923195838928223,152.44659423828125
0,491678,-61.806968688964844,5.260594844818115,3.655900239944458,-4.226041316986084
0,491681,89.14913177490234,-12.170591354370117,46.37628173828125,-54.8344612121582
0,491682,24.64579963684082,-19.434062957763672,-20.192739486694336,42.51402282714844
0,491685,-88.2700424194336,-15.072286605834961,-125.49322509765625,-64.44217681884766
0,491686,7.359416484832764,29.288461685180664,-19.49688720703125,-107.01144409179688
0,491689,25.224323272705078,-8.97427749633789,161.7000274658203,132.3397674560547
0,491691,-20.662002563476562,-10.783126831054688,78.90782928466797,98.96759796142578
0,491692,-0.5035209655761719,25.53821563720703,-112.31565856933594,-149.2498321533203
0,491695,4.142056465148926,-12.249181747436523,-82.9121322631836,-8.379687309265137
0,491696,-19.066041946411133,21.821006774902344,58.47621536254883,109.72887420654297
0,491699,-10.277975082397461,-2.536484956741333,58.398685455322266,-53.58146667480469
0,491700,13.14076042175293,-45.360897064208984,-34.717342376708984,-57.67979431152344
0,491703,7.139213562011719,31.06222915649414,-20.212060928344727,89.64289093017578
0,491704,-7.862776756286621,27.783519744873047,-9.799384117126465,-20.369327545166016
0,491707,-9.85511589050293,-28.04178237915039,-20.165019989013672,-137.27439880371094
0,491708,27.0230770111084,-22.034547805786133,28.14495086669922,120.27558135986328
0,491711,2.692366361618042,34.33300018310547,30.29823875427246,148.06463623046875
0,491712,-25.122224807739258,15.29637622833252,-3.2820487022399902,-144.2042236328125
0,491715,11.397065162658691,-34.25340270996094,-8.051223754882812,-132.54429626464844
0,491716,20.929447174072266,-5.188945293426514,-15.678458213806152,113.46576690673828
0,491719,13.80086612701416,11.654646873474121,-12.223132133483887,79.18199920654297
0,491720,-7.722480297088623,10.086216926574707,-5.206709861755371,-66.2982406616211
0,491723,-17.33721923828125,-18.826417922973633,15.57532024383545,39.40333557128906
0,491724,-9.599346160888672,-11.449692726135254,-2.3480682373046875,6.550568580627441
0,491727,4.6964111328125,31.769559860229492,0.22828195989131927,-154.81483459472656
0,491728,0.9279696941375732,5.389609336853027,96.27434539794922,29.23628044128418
0,491731,-7.567397594451904,-21.163639068603516,18.707807540893555,191.4270477294922
0,491732,-46.170738220214844,11.794013977050781,-101.25970458984375,-32.979644775390625
0,491735,-6.921098232269287,12.85435676574707,-98.53855895996094,-116.02985382080078
0,491736,116.20915985107422,-13.595060348510742,-25.69105339050293,49.27935028076172
0,491739,110.19351959228516,-0.8631070256233215,95.59893035888672,24.300832748413086
0,491740,-53.473052978515625,-4.730737209320068,65.86817932128906,-24.35438346862793
0,491743,-206.6504669189453,-11.870647430419922,9.546731948852539,50.26836395263672
0,491744,-54.53594970703125,18.917861938476562,21.62516212463379,-98.30603790283203
0,491747,201.37916564941406,13.812618255615234,-79.7204360961914,-108.60330200195312
0,491748,85.88985443115234,-28.530742645263672,-78.83953094482422,197.38609313964844
0,491751,-109.59208679199219,-17.98284912109375,62.098331451416016,100.08406829833984
0,491752,-45.82020568847656,14.555639266967773,56.56291961669922,-181.06008911132812
0,491755,-41.5152587890625,18.66619873046875,-11.124902725219727,-72.03302764892578
0,491756,-6.634922981262207,-3.9611291885375977,-48.413536071777344,107.10151672363281
0,491759,56.784507751464844,-6.8135504722595215,-10.617009162902832,42.073062896728516
0,491760,28.587488174438477,9.744747161865234,61.21522903442383,-36.16275405883789
0,491763,-69.6333236694336,-8.253660202026367,21.519193649291992,4.525442600250244
0,491764,-52.39429473876953,-15.421921730041504,-42.27299499511719,-59.03811264038086
0,491767,226.33917236328125,4.439079284667969,-40.3795166015625,-46.47941589355469
0,491768,39.207645416259766,0.2817891538143158,13.495429039001465,129.1990509033203
0,491771,-238.3151092529297,6.463968276977539,37.04396057128906,66.62067413330078
0,491772,10.83856201171875,16.056106567382812,-5.811004638671875,-114.2005615234375
0,491775,63.90962219238281,-16.676998138427734,-42.07466506958008,-62.02052307128906
0,491776,-33.100608825683594,13.396191596984863,16.720613479614258,69.4649887084961
0,491779,50.85886001586914,28.0977840423584,82.49272155761719,14.447463035583496
0,491780,41.890235900878906,-24.9012508392334,18.765180587768555,-7.942386150360107
0,491783,-65.18531799316406,-31.700124740600586,-77.00738525390625,69.74790954589844
0,491784,-60.869266510009766,12.85070514678955,-73.84056091308594,-77.94795227050781
0,491787,25.42902374267578,27.78021812438965,13.522209167480469,-97.40711975097656
0,491788,42.78006362915039,-16.48505401611328,47.043418884277344,142.996826171875
0,491791,21.110593795776367,-17.088050842285156,21.05659294128418,83.611083984375
0,491792,-15.207698822021484,4.115790843963623,4.223805904388428,-138.1195068359375
0,491795,75.9132308959961,12.739809036254883,8.250553131103516,-76.4940414428711
0,491796,19.525285720825195,12.315938949584961,5.516167640686035,55.25568771362305
0,491799,-154.591064453125,-30.829254150390625,-61.8702507019043,9.38729190826416
0,491800,11.161192893981934,-12.465582847595215,-36.929630279541016,28.983680725097656
0,491803,71.0607681274414,46.73348617553711,56.740543365478516,66.82771301269531
0,491804,-58.666202545166016,-10.258953094482422,-4.883902072906494,-90.47160339355469
0,491807,-56.192081451416016,-0.8005505800247192,4.548699378967285,-79.28531646728516
0,491808,60.145328521728516,28.30374526977539,98.33999633789062,131.04969787597656
0,491811,102.94635009765625,-20.08270263671875,76.40254974365234,69.19251251220703
0,491812,-117.8646469116211,7.732914924621582,-32.626766204833984,-111.02437591552734
0,491815,-84.88951110839844,-12.21322250366211,-210.2620391845703,-51.200260162353516
0,491816,179.56942749023438,-36.79595184326172,-80.95429229736328,84.94019317626953
0,491819,20.762102127075195,-5.105193614959717,150.8350372314453,12.371259689331055
0,491820,-101.45386505126953,29.273347854614258,38.14387893676758,-22.022987365722656
0,491823,0.46508967876434326,13.995284080505371,-54.993282318115234,70.965576171875
0,491824,98.24571228027344,-18.53516960144043,-16.968109130859375,-93.87542724609375
0,491827,30.466415405273438,4.487577438354492,0.9550923109054565,-115.82337188720703
0,491828,-134.19503784179688,-7.574215412139893,8.470535278320312,145.0867156982422
0,491831,-11.811199188232422,-12.014909744262695,22.35776710510254,59.2264404296875
0,491832,41.64847183227539,14.569231033325195,8.673057556152344,-129.3678741455078
0,491835,24.06036376953125,8.879413604736328,-11.649356842041016,-13.546100616455078
0,491836,11.695943832397461,9.756780624389648,30.548673629760742,96.59329223632812
0,491839,-67.82600402832031,0.8762440085411072,38.15340805053711,-36.85007858276367
0,491840,4.16657829284668,-38.01719665527344,-18.654232025146484,-44.28605270385742
0,491843,35.37397766113281,15.479537010192871,-8.413753509521484,114.4451675415039
0,491844,-22.595354080200195,33.3948860168457,0.9659032225608826,-69.24960327148438
0,491847,1.456289291381836,-36.69905471801758,-57.66644287109375,-98.71343231201172
0,491848,28.598796844482422,-24.045560836791992,2.43159556388855,168.8047637939453
0,491851,13.448531150817871,27.459562301635742,34.06814193725586,42.95656204223633
0,491852,1.4482626914978027,34.77103805541992,-23.992074966430664,-130.52154541015625
0,491855,-24.901166915893555,-15.231756210327148,25.884666442871094,-51.00850296020508
0,491856,-23.791778564453125,-30.343557357788086,14.550559043884277,46.43056869506836
0,491859,5.140443801879883,30.42873764038086,-4.732851505279541,51.78807067871094
0,491860,-16.124238967895508,7.045291900634766,5.439642906188965,-2.4679322242736816
0,491863,36.058353424072266,-31.161848068237305,-24.61605453491211,5.524231910705566
0,491864,34.782318115234375,22.207307815551758,-28.200849533081055,-35.42341613769531
0,491867,-54.295345306396484,15.160202026367188,-7.509720802307129,-31.750669479370117
0,491868,14.26185131072998,-26.303251266479492,24.019983291625977,95.1085433959961
0,491871,16.476255416870117,12.23054313659668,11.503657341003418,-5.09079647064209
0,491872,-27.94780921936035,12.332179069519043,-10.060861587524414,-125.72025299072266
0,491875,1.554298758506775,-30.926679611206055,6.922128677368164,-6.031635761260986
0,491876,1.0245599746704102,22.21240234375,30.653276443481445,67.72555541992188
0,491879,5.775732040405273,-4.354733943939209,-33.69496536254883,19.477746963500977
0,491880,-9.082104682922363,-37.90932846069336,-41.94176483154297,6.777190208435059
0,491883,55.35931396484375,22.708045959472656,50.083778381347656,47.93852996826172
0,491884,47.137786865234375,11.579482078552246,61.89241027832031,-74.06462097167969
0,491887,-70.41000366210938,-8.211225509643555,-3.364471673965454,-59.74919891357422
0,491888,-48.27206802368164,0.8170955777168274,-71.89610290527344,152.55831909179688
0,491891,-27.790157318115234,11.389842987060547,-37.2005500793457,11.35527515411377
0,491892,7.880781173706055,9.787882804870605,38.75886535644531,-148.6637420654297
0,491895,62.87507247924805,-20.640758514404297,26.00545310974121,-31.86602783203125
0,491896,107.00702667236328,-7.552054405212402,-13.289084434509277,67.6087646484375
0,491899,-51.721988677978516,25.136476516723633,-7.165683269500732,58.05638122558594
0,491900,-193.4813995361328,-8.628083229064941,-1.3524342775344849,-19.926321029663086
0,491903,74.96331024169922,-19.029056549072266,-4.401371479034424,-6.8141303062438965
0,491904,80.72032928466797,2.8885717391967773,9.676231384277344,-53.96673583984375
0,491907,-63.60639953613281,2.4879846572875977,31.025667190551758,-35.88893508911133
0,491908,10.391342163085938,6.825325012207031,11.686680793762207,136.32249450683594
0,491911,26.456546783447266,4.719435214996338,-70.08727264404297,34.31791687011719
0,491912,16.345840454101562,-16.6402530670166,-31.372303009033203,-89.04818725585938
0,491915,-28.155105590820312,-20.69371223449707,67.498291015625,-42.338809967041016
0,491917,-12.497714042663574,26.91297721862793,19.859865188598633,24.897615432739258
0,491919,23.775819778442383,25.98237419128418,-106.25613403320312,18.337081909179688
0,491921,-14.7749605178833,-23.54751205444336,-66.04840850830078,-45.28134536743164
0,491923,17.778465270996094,15.459271430969238,229.04705810546875,47.254356384277344
0,491927,26.768980026245117,25.678295135498047,101.55915832519531,99.52982330322266
0,491927,-24.9173583984375,-28.930259704589844,-213.56739807128906,-42.54783248901367
0,491928,-37.727718353271484,-6.834565162658691,-26.02947235107422,-67.12684631347656
0,491931,25.370792388916016,-15.639233589172363,25.47891616821289,1.7253985404968262
0,491932,102.17469024658203,-28.17729377746582,-24.530078887939453,-68.7891845703125
0,491935,-53.94940948486328,36.81843948364258,89.0039291381836,-27.922786712646484
0,491936,-125.55223846435547,27.534713745117188,59.4591178894043,99.46480560302734
0,491939,61.411415100097656,-9.62370777130127,-38.376319885253906,57.667022705078125
0,491940,43.15760040283203,-8.045602798461914,-68.75526428222656,-30.81275749206543
0,491943,-31.15078353881836,-5.951229572296143,-27.091588973999023,-13.583019256591797
0,491944,17.6367130279541,18.14762306213379,9.853500366210938,-60.90696716308594
0,491947,-7.409001350402832,2.930960178375244,8.891993522644043,-45.450889587402344
0,491948,-27.716508865356445,-27.811304092407227,10.924500465393066,158.37939453125
0,491951,-7.24584436416626,-18.955093383789062,7.404385566711426,21.3970947265625
0,491952,-11.422040939331055,2.6542282104492188,10.241991996765137,-157.48614501953125
0,491955,163.0436248779297,46.71324157714844,34.343849182128906,-0.7617218494415283
0,491956,32.52039337158203,0.7527898550033569,-9.600028991699219,98.36148834228516
0,491959,-270.7836608886719,-28.222732543945312,-40.991451263427734,31.523588180541992
0,491960,18.968067169189453,15.304963111877441,-6.493156909942627,-32.16338348388672
0,491963,130.47059631347656,-19.359764099121094,6.9510345458984375,-3.6793713569641113
0,491964,-30.805625915527344,-13.860088348388672,3.3532869815826416,-89.813232421875
0,491967,12.692885398864746,6.243882179260254,-14.83039665222168,-40.53184509277344
0,491968,21.895706176757812,-4.6705732345581055,4.13900899887085,165.01939392089844
0,491971,-25.584930419921875,33.01533126831055,34.718406677246094,23.807695388793945
0,491972,-33.41204071044922,6.335000991821289,-23.535966873168945,-125.59880828857422
0,491975,-15.354608535766602,-30.45181655883789,-29.993682861328125,-12.778068542480469
0,491976,28.296937942504883,19.308914184570312,30.833127975463867,92.9072036743164
0,491979,20.107738494873047,5.408694744110107,23.2889461517334,31.720684051513672
0,491980,-35.265342712402344,-18.734235763549805,12.617850303649902,-61.62281036376953
0,491983,5.7674736976623535,28.4549560546875,-7.348047256469727,-3.49365496635437
0,491984,23.86734962463379,3.266550064086914,-73.35501861572266,-48.96031188964844
0,491987,107.13834381103516,-32.273475646972656,10.836849212646484,-25.731586456298828
0,491988,131.7522430419922,11.775733947753906,127.28715515136719,171.92999267578125
0,491991,-219.0244903564453,-3.090787887573242,-44.863372802734375,-7.8891282081604
0,491992,-258.20758056640625,-20.00392723083496,-86.94215393066406,-185.3135223388672
0,491995,146.179443359375,-2.710768222808838,19.55158042907715,29.503448486328125
0,491996,134.59518432617188,20.549346923828125,-12.6284761428833,120.78165435791016
0,491999,-56.248626708984375,17.53733253479004,13.803016662597656,-28.002704620361328
0,492000,-4.166015148162842,-35.34461975097656,30.443281173706055,-54.554779052734375
0,492003,12.585684776306152,-16.207719802856445,10.915160179138184,57.583709716796875
0,492004,-24.749074935913086,22.2164306640625,-23.516529083251953,-37.94369125366211
0,492007,-41.567901611328125,27.229270935058594,-27.2723388671875,-71.13597106933594
0,492008,16.56667709350586,2.534132957458496,30.31587791442871,125.2362060546875
0,492011,178.0194091796875,-7.618729114532471,-37.280662536621094,22.14473533630371
0,492012,31.9566707611084,-5.714940547943115,-21.786069869995117,-142.31272888183594
0,492015,-222.21926879882812,-13.064677238464355,187.65890502929688,-1.4400876760482788
0,492016,-37.208126068115234,15.981090545654297,27.166641235351562,98.33873748779297
0,492019,106.76403045654297,0.9345417618751526,-212.25289916992188,27.76978302001953
0,492020,17.24794578552246,-11.985414505004883,-41.02336502075195,-23.8234806060791
0,492023,12.807473182678223,-0.6532889008522034,67.75399017333984,-20.514278411865234
0,492024,-22.237197875976562,-4.608979225158691,24.82525634765625,-88.9908218383789
0,492027,-73.02568817138672,7.652439117431641,3.413923978805542,-4.518176078796387
0,492028,-58.385921478271484,13.429902076721191,7.376805305480957,184.2478790283203
0,492031,60.82530975341797,7.022887229919434,-2.402628183364868,4.423304557800293
0,492032,116.54252624511719,-17.131317138671875,-18.92509651184082,-154.7265167236328
0,492035,-29.854089736938477,-23.479183197021484,-14.223211288452148,-16.89630889892578
0,492036,48.601806640625,14.878743171691895,6.412855625152588,56.660037994384766
0,492039,33.278011322021484,30.381175994873047,48.044307708740234,48.02186965942383
0,492040,-140.33262634277344,-5.671996593475342,10.277665138244629,12.968076705932617
0,492043,-0.9841274619102478,-23.361743927001953,-35.7825813293457,-44.765628814697266
0,492044,36.42366027832031,-12.311880111694336,-12.78880500793457,-81.9037094116211
0,492047,-20.20033073425293,9.496302604675293,19.673492431640625,48.874610900878906
0,492048,22.72172737121582,14.352764129638672,1.2357717752456665,149.42926025390625
0,492051,-0.14259640872478485,-12.79996395111084,-12.051604270935059,-75.95405578613281
0,492052,-13.474183082580566,3.556223154067993,5.887582302093506,-150.61453247070312
0,492055,-12.023547172546387,10.970857620239258,-3.7341580390930176,26.48316764831543
0,492056,4.27807092666626,-6.398311138153076,3.4897408485412598,99.35431671142578
0,492059,38.39830017089844,-1.0363091230392456,12.573434829711914,43.11286163330078
0,492060,6.827974796295166,-3.5989346504211426,1.3043169975280762,-52.052947998046875
0,492063,-22.967361450195312,7.9992995262146,-12.418998718261719,-1.4494013786315918
0,492064,-17.23736000061035,-0.7939849495887756,-7.490798473358154,-38.605140686035156
0,492067,2.446903705596924,-5.7931413650512695,24.26365089416504,-44.461090087890625
0,492068,15.701549530029297,0.910340428352356,-10.086594581604004,121.82728576660156
0,492071,-6.3895769119262695,0.26369738578796387,-38.36040496826172,7.6555094718933105
0,492072,-22.143293380737305,11.377336502075195,24.636451721191406,-88.29019165039062
0,492075,-9.76643180847168,8.765923500061035,12.215556144714355,2.5038042068481445
0,492076,24.096721649169922,-3.5115816593170166,-42.00840377807617,53.382450103759766
0,492079,25.922426223754883,-20.682424545288086,10.726704597473145,28.30296516418457
0,492080,-19.18885612487793,-6.831958293914795,52.16615676879883,-52.29461669921875
0,492083,-29.819080352783203,10.140936851501465,13.036980628967285,-7.978876113891602
0,492084,-30.44223403930664,6.899495601654053,-7.558167457580566,-49.58529281616211
0,492087,26.906709671020508,-4.247158050537109,-45.165645599365234,13.151944160461426
0,492088,100.45378112792969,-16.344545364379883,-44.97090148925781,184.67599487304688
0,492091,53.029632568359375,-4.821554660797119,48.27384567260742,-67.32703399658203
0,492092,-82.71480560302734,7.114701747894287,27.614055633544922,-198.00331115722656
0,492095,-121.62998962402344,6.262661457061768,-22.184823989868164,37.77461624145508
0,492096,23.91482925415039,3.068281650543213,13.155338287353516,146.78431701660156
0,492099,51.82933044433594,13.885961532592773,-10.10223388671875,11.944130897521973
0,492100,-8.41744327545166,-7.892575740814209,-37.51239013671875,-96.37456512451172
0,492103,20.348934173583984,-34.91608810424805,-18.665298461914062,19.637826919555664
0,492104,-9.502004623413086,16.495906829833984,30.631139755249023,-16.36954116821289
0,492107,40.758792877197266,47.8170280456543,111.97018432617188,-19.006153106689453
0,492108,19.444278717041016,-16.28860092163086,9.752053260803223,144.64328002929688
0,492111,-94.02522277832031,-15.031445503234863,-149.5532684326172,-66.77735137939453
0,492112,31.935693740844727,18.553939819335938,-80.02061462402344,-140.4647674560547
0,492115,8.961960792541504,-25.70028305053711,138.13577270507812,41.50876235961914
0,492117,-67.86286926269531,-0.03069147653877735,197.05967712402344,69.01300811767578
0,492119,43.36286163330078,14.881489753723145,-131.01077270507812,53.147708892822266
0,492121,44.01565170288086,-10.966726303100586,-220.1605224609375,-17.343740463256836
0,492123,-11.985404968261719,-1.1132150888442993,72.3674545288086,-67.44141387939453
0,492125,52.716957092285156,12.404654502868652,96.33280181884766,-106.04193878173828
0,492127,47.868309020996094,2.5415380001068115,-14.6537504196167,119.25996398925781
0,492129,-109.2621841430664,-35.40443420410156,-17.36099624633789,225.9556427001953
0,492131,-93.57442474365234,4.8026275634765625,5.148830413818359,-131.6251983642578
0,492133,38.393646240234375,32.790313720703125,-4.675511837005615,-199.10191345214844
0,492135,31.697656631469727,-2.601917266845703,-10.447905540466309,-7.507473945617676
0,492137,9.143977165222168,-12.65145492553711,35.337249755859375,94.36163330078125
0,492139,47.01334762573242,-13.742326736450195,9.611822128295898,73.99659729003906
0,492141,29.737340927124023,-2.496903419494629,-11.913774490356445,-32.16893005371094
0,492142,-24.467432022094727,31.831867218017578,13.572274208068848,-3.0906879901885986
0,492145,-55.092445373535156,23.130191802978516,-8.569367408752441,-37.33818817138672
0,492146,-48.87150955200195,-25.51597785949707,-7.542540550231934,-107.03025817871094
0,492149,22.131147384643555,-21.28723907470703,12.160051345825195,131.4988250732422
0,492150,50.570457458496094,11.709004402160645,-13.63730239868164,192.79629516601562
0,492153,-11.045601844787598,-6.469798564910889,-36.67863464355469,-150.20481872558594
0,492154,-2.479696035385132,-31.71603775024414,-4.075788974761963,-100.25443267822266
0,492157,40.98604202270508,34.68178176879883,19.3330135345459,109.8635025024414
0,492158,-0.9120826125144958,39.00736618041992,4.6327900886535645,-55.48058319091797
0,492161,-45.20570755004883,-39.52043533325195,32.312992095947266,-41.83601379394531
0,492162,-20.581083297729492,2.329594373703003,73.60271453857422,84.32176971435547
0,492165,10.816518783569336,25.619468688964844,-70.82124328613281,-39.21586227416992
0,492166,8.607342720031738,-35.77841567993164,-115.58477020263672,-102.18299102783203
0,492169,1.676482915878296,-19.05809783935547,70.10172271728516,84.516357421875
0,492170,14.597333908081055,37.86402130126953,41.67971420288086,104.3934555053711
0,492175,6.984218597412109,13.115253448486328,-24.818492889404297,-148.8239288330078
0,492175,-14.765045166015625,-24.014568328857422,9.479708671569824,-11.14432430267334
0,492176,8.406108856201172,8.67146110534668,1.5413728952407837,183.8921356201172
0,492179,6.290764331817627,-5.073648929595947,-37.15251541137695,-51.9361457824707
0,492180,5.722515106201172,-25.38016700744629,-13.271295547485352,-87.73629760742188
0,492183,-31.859590530395508,11.296833038330078,54.67009735107422,74.09574127197266
0,492184,-57.666282653808594,15.473715782165527,-6.815439701080322,-48.00851058959961
0,492187,105.23099517822266,-3.788965940475464,-29.55875015258789,-70.9437484741211
0,492188,131.6427001953125,0.9556435346603394,33.53704071044922,121.87538146972656
0,492191,-144.747314453125,22.87232780456543,23.561811447143555,31.904571533203125
0,492192,-153.08682250976562,-3.283674478530884,-5.928719520568848,-83.56536102294922
0,492195,103.02911376953125,-18.385589599609375,-18.63226318359375,-14.942188262939453
0,492196,64.23973083496094,3.0109024047851562,-26.62602424621582,47.35005187988281
0,492199,-23.843713760375977,-13.451375007629395,13.874312400817871,19.481948852539062
0,492200,4.7020583152771,-8.156618118286133,27.408945083618164,-20.61628532409668
0,492203,-20.949796676635742,0.8585310578346252,-11.017127990722656,-7.93935489654541
0,492204,-36.516056060791016,4.150294303894043,-15.649652481079102,-77.68396759033203
0,492207,3.0727639198303223,22.48318862915039,-9.177312850952148,-11.723584175109863
0,492208,30.645048141479492,16.013463973999023,2.8827807903289795,129.4616241455078
0,492211,7.264510154724121,-0.29519888758659363,17.092147827148438,-16.845361709594727
0,492212,-7.742302417755127,-18.718008041381836,10.407877922058105,-120.45198059082031
0,492215,11.493850708007812,-17.106666564941406,-16.16206932067871,10.713750839233398
0,492216,25.56007194519043,1.5809279680252075,-30.57078742980957,88.66707611083984
0,492219,-0.6380859613418579,6.783178806304932,8.414045333862305,21.846988677978516
0,492220,-14.057012557983398,-18.823869705200195,15.878320693969727,-36.871158599853516
0,492223,-11.40231704711914,7.331049919128418,-2.119734287261963,21.109418869018555
0,492224,-6.858409881591797,19.820207595825195,11.161638259887695,-45.79726791381836
0,492227,-1.982027292251587,-21.138446807861328,4.490572452545166,-33.909584045410156
0,492228,-13.708946228027344,23.225643157958984,-0.7605059742927551,133.42730712890625
0,492231,16.755891799926758,4.909170150756836,13.397917747497559,-13.099006652832031
0,492232,17.148618698120117,-25.62588119506836,-9.012212753295898,-141.87371826171875
0,492235,-38.5098991394043,5.481276035308838,-30.81049156188965,1.2678776979446411
0,492236,-2.6643385887145996,-7.121769905090332,-9.403583526611328,107.96460723876953
0,492239,38.74686050415039,12.825726509094238,42.87898635864258,41.51210021972656
0,492240,104.75592803955078,31.69039535522461,49.426185607910156,-55.12892150878906
0,492243,-22.929962158203125,-10.274599075317383,-43.84232711791992,-6.433244705200195
0,492244,-205.5655517578125,-23.00406265258789,-52.61958694458008,-60.963340759277344
0,492247,29.99286460876465,0.6958218216896057,0.09806633740663528,-55.93302536010742
0,492248,120.32030487060547,-13.320926666259766,7.343893051147461,149.03099060058594
0,492251,-20.417009353637695,8.059172630310059,41.52877426147461,54.2524299621582
0,492252,-28.560518264770508,20.31194496154785,10.718353271484375,-115.31549072265625
0,492255,0.9472550749778748,-23.747652053833008,-92.79814147949219,-18.28968620300293
0,492256,7.070971965789795,7.174610137939453,-12.904279708862305,75.69525909423828
0,492259,-22.901477813720703,25.95859718322754,141.8372802734375,7.645595550537109
0,492260,58.992515563964844,-35.32832336425781,26.94670867919922,-68.3824691772461
0,492263,32.42961120605469,-1.4458720684051514,-84.71697998046875,12.203289031982422
0,492264,-123.84735107421875,25.447208404541016,-36.5307502746582,-30.688737869262695
0,492267,7.014608860015869,-24.13985252380371,-75.66879272460938,-21.035778045654297
0,492268,84.04795837402344,1.308644413948059,17.37544822692871,138.1410369873047
0,492271,-10.289154052734375,21.842369079589844,223.54466247558594,-26.29438591003418
0,492272,-18.014850616455078,-12.090351104736328,21.918502807617188,-157.52537536621094
0,492275,-39.7126350402832,-1.7081539630889893,-209.14761352539062,6.882007122039795
0,492276,0.4668450951576233,32.37077331542969,-29.52494239807129,124.17838287353516
0,492279,61.71371078491211,-19.317424774169922,75.49154663085938,33.25556182861328
0,492280,6.213813304901123,-16.35443878173828,8.417972564697266,-43.71525955200195
0,492283,-38.867454528808594,27.52390480041504,-3.436060667037964,10.435891151428223
0,492284,-1.6782493591308594,-25.171016693115234,9.884634017944336,-60.35006332397461
0,492287,13.036081314086914,-24.21116828918457,8.931705474853516,-23.876981735229492
0,492288,-5.492986679077148,13.90592098236084,-3.9202914237976074,137.0471954345703
0,492291,2.121229410171509,10.497396469116211,-10.343131065368652,-5.68374490737915
0,492292,18.911239624023438,8.872145652770996,-2.420684814453125,-113.34391784667969
0,492295,-7.387848377227783,3.922713279724121,6.5792155265808105,-8.23409366607666
0,492296,-10.4654541015625,-8.088855743408203,-2.028806686401367,45.557613372802734
0,492299,5.639182090759277,-8.798429489135742,-21.759597778320312,27.208585739135742
0,492300,-24.094953536987305,-2.0461905002593994,-0.9665052890777588,5.468528747558594
0,492303,-2.244478702545166,8.99067211151123,40.17949295043945,14.347649574279785
0,492304,8.967948913574219,2.7772793769836426,6.691397190093994,-80.31487274169922
0,492307,1.7112839221954346,-2.6757724285125732,-31.9749755859375,-21.017641067504883
0,492308,18.6220760345459,10.92093563079834,3.1652591228485107,136.88059997558594
0,492311,-3.405241012573242,-12.66089916229248,3.5094101428985596,-65.57746124267578
0,492312,-20.515111923217773,-9.941152572631836,-18.39671516418457,-142.7508087158203
0,492315,2.844869613647461,27.839136123657227,6.407912731170654,77.48373413085938
0,492316,17.119367599487305,16.499332427978516,16.073749542236328,106.800537109375
0,492319,-5.434654712677002,-38.67499923706055,-12.176924705505371,-33.831199645996094
0,492320,-0.35891592502593994,-28.272815704345703,-23.97345733642578,-69.01199340820312
0,492323,-5.862818241119385,63.270931243896484,38.176002502441406,29.913127899169922
0,492324,-19.129413604736328,22.883092880249023,23.995878219604492,-23.856891632080078
0,492327,20.284467697143555,-55.84748840332031,-34.30366516113281,41.68070983886719
0,492328,30.517045974731445,-21.4873046875,6.665868759155273,185.0014190673828
0,492331,-11.991144180297852,13.175613403320312,-7.597263813018799,-77.102294921875
0,492332,-13.55766487121582,4.25844144821167,-35.97854232788086,-210.6554718017578
0,492335,9.00755786895752,0.6173474788665771,11.662607192993164,-4.752509117126465
0,492336,-1.8002443313598633,10.138647079467773,30.669830322265625,125.612060546875
0,492339,-20.691707611083984,1.2021087408065796,5.861668109893799,66.04297637939453
0,492340,-4.650523662567139,-8.495291709899902,-8.769128799438477,-61.80724334716797
0,492343,5.297386169433594,8.059944152832031,-11.435914039611816,-45.483829498291016
0,492344,-9.56600570678711,11.90507984161377,-4.183857440948486,-64.80962371826172
0,492347,21.90057945251465,-25.684226989746094,9.824824333190918,-9.95612621307373
0,492348,2.287813425064087,-5.045321941375732,7.975133895874023,187.0492706298828
0,492351,-0.8063270449638367,33.95212936401367,17.545923233032227,-2.3026328086853027
0,492352,42.42427062988281,4.02941370010376,3.5296878814697266,-161.76242065429688
0,492355,-31.026506423950195,-21.929168701171875,-33.250396728515625,39.65382766723633
0,492356,-21.20631980895996,-9.034010887145996,4.657082557678223,94.42975616455078
0,492359,10.449833869934082,-2.74354887008667,24.061567306518555,-24.456214904785156
0,492360,-34.25343322753906,-2.0621001720428467,11.134115219116211,-46.931114196777344
0,492363,-5.307969093322754,10.253813743591309,6.499151706695557,23.936086654663086
0,492364,6.569133281707764,32.356014251708984,-28.645145416259766,-57.67252731323242
0,492367,89.2900161743164,-4.553589344024658,-43.97572326660156,-14.682229995727539
0,492368,132.10800170898438,-43.56060028076172,-7.47689151763916,139.04205322265625
0,492371,-172.6167449951172,2.9232842922210693,40.9213752746582,-33.45843505859375
0,492372,-213.39874267578125,15.358781814575195,9.74950885772705,-121.2090835571289
0,492375,201.5991668701172,2.0779411792755127,-11.98011302947998,16.414461135864258
0,492376,101.79601287841797,-1.0304402112960815,-2.8978254795074463,102.31307220458984
0,492379,-145.942138671875,-0.7705879211425781,-7.576509952545166,44.121803283691406
0,492380,5.323164463043213,-9.881263732910156,9.47865104675293,-64.19940948486328
0,492383,8.122029304504395,-7.650359153747559,-5.669412612915039,-30.09016227722168
0,492384,-16.966291427612305,26.263134002685547,-26.89318084716797,-49.691009521484375
0,492387,12.99721908569336,2.5473132133483887,-25.11986541748047,27.027660369873047
0,492388,0.1456083357334137,-18.108436584472656,12.197611808776855,130.69265747070312
0,492391,28.234956741333008,29.85859489440918,193.81185913085938,-80.23199462890625
0,492392,-14.051508903503418,6.687343120574951,122.06934356689453,-128.65174865722656
0,492395,39.349609375,-21.992462158203125,-252.25015258789062,41.128360748291016
0,492396,81.45425415039062,-0.9714457988739014,-131.4639434814453,97.24412536621094
0,492399,-58.85681915283203,-12.017326354980469,99.61347961425781,16.56138801574707
0,492400,-88.28038787841797,11.60918140411377,-19.450475692749023,-37.450382232666016
0,492403,-1.723679542541504,-3.9586904048919678,0.35076138377189636,14.386298179626465
0,492404,33.23640060424805,-15.689983367919922,39.48323059082031,-70.46685791015625
0,492407,2.4707798957824707,17.387245178222656,-14.562919616699219,33.756282806396484
0,492409,-18.016225814819336,-8.433279037475586,-0.37805289030075073,145.37896728515625
0,492411,6.639545917510986,4.816783428192139,-15.366975784301758,-150.8993377685547
0,492413,3.774301290512085,1.8739510774612427,-6.053590774536133,-103.9440689086914
0,492415,2.5479743480682373,-23.265798568725586,26.695667266845703,72.12728118896484
0,492417,6.230220794677734,20.10401725769043,-6.635565757751465,23.62252426147461
0,492419,10.663021087646484,19.685060501098633,16.31394386291504,43.12785720825195
0,492421,40.30760192871094,1.3109912872314453,41.508140563964844,21.688541412353516
0,492423,-3.623537540435791,-14.715062141418457,-19.524898529052734,31.952239990234375
0,492425,-40.47602462768555,-24.2596378326416,-23.754331588745117,-59.44802474975586
0,492427,-9.320406913757324,6.683287620544434,26.00061798095703,-58.55640411376953
0,492429,-0.668703019618988,16.971311569213867,10.401086807250977,82.09440612792969
0,492432,-0.4323205053806305,9.163101196289062,-54.58732986450195,-53.07767105102539
0,492432,-4.025292873382568,-3.437067747116089,-12.01253604888916,-45.95082473754883
0,492435,-4.977151870727539,-24.41609001159668,24.97431755065918,69.09099578857422
0,492437,0.010059908032417297,-8.669373512268066,-8.412078857421875,14.069110870361328
0,492439,4.327568054199219,10.615913391113281,12.901276588439941,19.328657150268555
0,492441,9.229581832885742,17.957565307617188,10.116371154785156,-7.728041648864746
0,492443,10.90219783782959,32.80970764160156,18.778162002563477,-20.036149978637695
0,492445,5.696087837219238,-22.016294479370117,0.8013683557510376,-59.212528228759766
0,492447,-5.802120208740234,-38.197757720947266,-46.59877395629883,55.43613815307617
0,492449,-8.444785118103027,15.128807067871094,-26.83745574951172,132.2822265625
0,492451,2.056840419769287,4.228801250457764,22.3087158203125,-171.4153594970703
0,492453,-6.529185771942139,5.200252532958984,34.69429016113281,-127.98613739013672
0,492455,0.46450746059417725,18.694475173950195,-7.265256404876709,131.1629638671875
0,492457,18.26996421813965,-14.088846206665039,0.21237236261367798,95.4144058227539
0,492459,-14.8367280960083,-13.687949180603027,12.792694091796875,3.2636804580688477
0,492461,-5.487523555755615,-5.246445655822754,-29.214263916015625,-61.750675201416016
0,492463,8.306796073913574,7.846190929412842,-7.3684468269348145,-32.56317138671875
0,492465,-0.09236813336610794,30.563329696655273,37.5374641418457,-44.94861602783203
0,492467,30.692317962646484,-18.409324645996094,6.519076347351074,69.44698333740234
0,492469,7.686704158782959,-14.09797477722168,-18.849639892578125,171.6979522705078
0,492471,-45.658355712890625,10.995279312133789,-20.32967185974121,-128.08802795410156
0,492473,-26.690345764160156,-22.1563777923584,-40.368831634521484,-154.40286254882812
0,492475,-9.24892520904541,8.575907707214355,5.117687702178955,36.568904876708984
0,492477,-27.302610397338867,12.736163139343262,64.51107025146484,58.30131149291992
0,492479,51.232120513916016,-13.366918563842773,64.24776458740234,53.75897979736328
0,492481,133.79405212402344,10.008532524108887,-9.470720291137695,-6.901224136352539
0,492483,-26.379955291748047,-2.03212571144104,-110.796142578125,-21.501493453979492
0,492485,-166.9835205078125,-17.288162231445312,-32.0323600769043,-103.28598022460938
0,492487,-0.515694797039032,20.807491302490234,88.53850555419922,30.604106903076172
0,492489,91.57835388183594,3.2822208404541016,14.53357219696045,195.26055908203125
0,492491,19.092599868774414,-13.803565979003906,-50.09724426269531,-108.45862579345703
0,492493,-18.873180389404297,17.363534927368164,6.374577522277832,-136.1881866455078
0,492495,-35.786582946777344,-6.367088794708252,-0.3613124191761017,94.10250854492188
0,492497,10.63841724395752,-6.546110153198242,-9.945985794067383,70.93941497802734
0,492499,30.2611083984375,19.152788162231445,17.125890731811523,-21.85639190673828
0,492501,-17.61847686767578,0.07971835136413574,6.573882102966309,-19.24412727355957
0,492503,-19.099531173706055,-7.941028118133545,5.928501605987549,12.946548461914062
0,492505,20.388465881347656,-0.024081116542220116,-9.63768196105957,-74.14989471435547
0,492507,16.14923858642578,-1.8206003904342651,18.232454299926758,43.91381072998047
0,492509,-2.2799930572509766,-6.10046911239624,44.87088394165039,143.71856689453125
0,492511,-5.096529006958008,-4.838562488555908,-31.511375427246094,-119.86614227294922
0,492513,-19.82242202758789,6.6281514167785645,-46.252140045166016,-108.3012466430664
0,492515,-2.9166338443756104,-3.3385283946990967,-4.066690921783447,77.01824188232422
0,492517,25.11756134033203,-6.32551383972168,-3.0055620670318604,41.6503791809082
0,492519,-18.109262466430664,-11.074758529663086,-19.963409423828125,-9.93960952758789
0,492521,65.34088897705078,5.478262424468994,-54.23152542114258,-18.994203567504883
0,492523,26.188549041748047,44.804691314697266,145.47413635253906,-39.46803665161133
0,492525,-180.50686645507812,-5.643715858459473,209.28634643554688,-80.59130096435547
0,492527,-4.3303751945495605,-39.38514709472656,-176.77700805664062,136.66986083984375
0,492529,80.18589782714844,18.312700271606445,-161.15126037597656,179.00865173339844
0,492531,42.183982849121094,14.010741233825684,39.46938705444336,-182.60791015625
0,492533,61.106666564941406,-46.57438278198242,-28.948280334472656,-137.17010498046875
0,492535,-82.98283386230469,11.83680248260498,55.944602966308594,104.59818267822266
0,492537,-60.61589431762695,44.042972564697266,59.36751937866211,82.29109191894531
0,492539,32.47040557861328,-18.57846450805664,-50.2338981628418,4.2414422035217285
0,492541,27.114517211914062,-15.377045631408691,-21.713069915771484,-47.50367736816406
0,492543,-0.548892080783844,-1.2250511646270752,1.3587161302566528,-69.6971664428711
0,492545,1.8992806673049927,-5.199705600738525,-8.31159782409668,-66.76553344726562
0,492547,7.03947639465332,4.586565017700195,18.87883186340332,123.4382553100586
0,492549,0.5537660717964172,25.98159408569336,25.623308181762695,157.64337158203125
0,492551,3.590120553970337,0.08167153596878052,-2.487400531768799,-172.1453857421875
0,492553,-19.033479690551758,-18.802906036376953,12.575918197631836,-107.42108917236328
0,492555,-23.496076583862305,2.5457894802093506,16.799083709716797,104.07711029052734
0,492557,0.7818425297737122,-3.9695887565612793,-17.391571044921875,54.9433479309082
0,492559,57.86467742919922,-4.512733459472656,-6.019191265106201,34.163482666015625
0,492561,9.29004955291748,4.204246520996094,-20.44759178161621,-49.393245697021484
0,492563,-66.68925476074219,12.763225555419922,-15.694931030273438,-101.2143783569336
0,492565,-1.1869821548461914,-0.15106727182865143,11.735387802124023,-47.788536071777344
0,492567,28.482152938842773,-13.432897567749023,-10.603182792663574,128.2320098876953
0,492569,22.451927185058594,9.205487251281738,22.228862762451172,164.601806640625
0,492571,-0.7584097385406494,-0.22162067890167236,-3.654639482498169,-134.14149475097656
0,492573,-31.472063064575195,-32.65694808959961,-10.441070556640625,-137.57643127441406
0,492575,-34.13558578491211,12.950835227966309,51.055179595947266,44.20682144165039
0,492577,-13.42706298828125,34.37960433959961,-4.421201229095459,60.32007598876953
0,492579,62.826908111572266,3.261014938354492,-20.31533432006836,64.04256439208984
0,492581,68.52713012695312,-16.845781326293945,8.643173217773438,-17.823057174682617
0,492583,-7.618537902832031,-35.91902542114258,-47.540218353271484,-48.87104797363281
0,492585,-68.32695007324219,14.105426788330078,-24.82439613342285,-95.77202606201172
0,492587,-57.682289123535156,43.12091827392578,82.96605682373047,56.753578186035156
0,492589,12.618622779846191,-12.490067481994629,35.5241813659668,180.01881408691406
0,492591,39.7486686706543,-22.234657287597656,-73.86455535888672,-146.14581298828125
0,492593,34.63828659057617,10.820667266845703,-37.22301483154297,-109.20368194580078
0,492595,17.71392059326172,7.4870429039001465,24.271507263183594,98.16400146484375
0,492597,-52.59415054321289,1.4649593830108643,32.825233459472656,37.898040771484375
0,492599,-37.254478454589844,-8.124507904052734,17.904977798461914,-8.184664726257324
0,492601,39.506072998046875,-13.275416374206543,-6.207766532897949,-14.561359405517578
0,492603,17.96991539001465,-1.9817687273025513,-31.290916442871094,20.201549530029297
0,492605,-15.311341285705566,-7.798806190490723,-48.32113265991211,-76.46939086914062
0,492607,15.98418140411377,17.3146915435791,-0.3683187961578369,32.695194244384766
0,492609,32.06724548339844,22.244661331176758,31.81511878967285,175.20269775390625
0,492611,-7.793887138366699,-36.648826599121094,49.029266357421875,-155.05575561523438
0,492613,-41.79247283935547,-19.916017532348633,52.32387924194336,-127.02699279785156
0,492615,-65.30123901367188,51.86297607421875,-64.42947387695312,147.77835083007812
0,492617,6.124167442321777,24.020774841308594,-62.1558952331543,36.704654693603516
0,492619,102.31333923339844,-40.10921859741211,77.67750549316406,-18.64841651916504
0,492621,19.176225662231445,-9.689070701599121,41.08113479614258,-25.299543380737305
0,492623,-83.53372955322266,23.68975830078125,-101.85584259033203,-31.278564453125
0,492625,-20.03240203857422,-13.879959106445312,-66.379638671875,-30.300134658813477
0,492627,47.45241165161133,-8.935371398925781,62.286163330078125,26.272743225097656
0,492629,5.479564666748047,16.577457427978516,76.37444305419922,108.91793823242188
0,492631,4.857762336730957,-14.158252716064453,77.42118072509766,-93.67948913574219
0,492633,0.004095405340194702,4.7221293449401855,-45.28397750854492,-91.42646789550781
0,492635,3.6380984783172607,16.898826599121094,-154.23178100585938,79.32820129394531
0,492637,35.46221160888672,-15.445873260498047,-6.1875762939453125,53.148033142089844
0,492639,-55.676971435546875,-11.740248680114746,86.85076141357422,25.0714111328125
0,492641,-50.75880432128906,8.481155395507812,34.421451568603516,-28.48351287841797
0,492643,46.89189529418945,4.487295150756836,-24.931211471557617,-32.104984283447266
0,492645,29.77138328552246,-19.366683959960938,-24.443958282470703,-14.922657012939453
0,492647,-10.513137817382812,-1.435502529144287,0.749765157699585,62.2652702331543
0,492649,-8.297661781311035,4.678394794464111,3.3204541206359863,62.93016052246094
0,492651,-10.65017032623291,12.402853012084961,16.59598731994629,-155.43858337402344
0,492653,9.798026084899902,16.507083892822266,-13.177694320678711,-93.2557601928711
0,492655,18.28699493408203,-8.474152565002441,-11.555763244628906,99.58667755126953
0,492657,-31.05414390563965,-12.824799537658691,31.912935256958008,69.84136962890625
0,492659,-34.360042572021484,7.910281181335449,5.194846153259277,34.19569778442383
0,492661,0.015444065444171429,11.22502326965332,1.2443491220474243,-15.785122871398926
0,492663,131.62840270996094,-17.17138671875,9.996072769165039,-88.15373992919922
0,492665,61.540733337402344,14.700973510742188,-28.88090705871582,-69.0172119140625
0,492666,-195.06793212890625,16.97766876220703,-11.863162994384766,-11.976733207702637
0,492669,-50.043575286865234,-26.215940475463867,23.849306106567383,150.90748596191406
0,492670,85.79703521728516,-8.50422191619873,-15.173595428466797,150.64601135253906
0,492673,-6.045230388641357,-3.8284389972686768,-28.261245727539062,-150.91786193847656
0,492674,6.287782669067383,2.7592689990997314,28.3951358795166,-78.64598846435547
0,492677,8.848306655883789,4.1858673095703125,50.684410095214844,105.35759735107422
0,492678,-29.04986000061035,4.031618595123291,16.961780548095703,-17.830263137817383
0,492681,19.627260208129883,9.41638469696045,-48.583919525146484,-9.771746635437012
0,492682,64.71873474121094,-14.107304573059082,-70.2056655883789,-10.680994033813477
1,492685,-56.79988098144531,1.728922724723816,12.516940116882324,-117.26588439941406
1,492686,-49.519805908203125,6.637576580047607,40.07758331298828,-28.990137100219727
1,492689,67.78446197509766,9.344855308532715,13.2838716506958,186.37025451660156
1,492690,-6.829897403717041,11.62074089050293,9.407939910888672,100.18173217773438
1,492693,-12.03509521484375,-10.77031421661377,-28.0736026763916,-172.7100067138672
1,492694,48.68290328979492,-16.126005172729492,-21.09162139892578,-56.03278732299805
1,492698,-21.870868682861328,-15.58957290649414,13.845879554748535,55.22568130493164
1,492699,-28.893909454345703,3.5040156841278076,17.46709442138672,26.72599983215332
1,492700,1.3589757680892944,13.53364086151123,18.52899742126465,44.38383102416992
1,492703,-16.291431427001953,12.899995803833008,-6.063108921051025,-48.449249267578125
1,492704,-3.1601786613464355,6.455014228820801,-17.281179428100586,-65.74846649169922
1,492707,23.814592361450195,-22.709108352661133,4.220837116241455,98.17327880859375
1,492708,6.709535598754883,-3.910431146621704,2.772507429122925,123.88983154296875
1,492711,-2.1077024936676025,23.24406623840332,-1.9618690013885498,-175.7705535888672
1,492712,1.7344754934310913,3.93223237991333,6.536905288696289,-132.36907958984375
1,492715,-15.164122581481934,-17.736764907836914,-18.905786514282227,130.37510681152344
1,492716,14.481861114501953,-10.71489143371582,-33.36532211303711,92.06778717041016
1,492719,1.9367151260375977,23.589956283569336,11.7176513671875,-28.250057220458984
1,492720,-19.770000457763672,-11.22030258178711,63.222408294677734,-77.3027114868164
1,492723,-14.540445327758789,-19.65911865234375,8.605058670043945,-8.5542631149292
1,492724,-9.559194564819336,19.888200759887695,-59.3219108581543,-22.275236129760742
1,492727,58.49431228637695,-6.784613609313965,-0.5383169054985046,70.55237579345703
1,492728,53.440670013427734,-10.018006324768066,22.89971160888672,121.10234069824219
1,492731,-54.062835693359375,27.055309295654297,20.819664001464844,-150.91514587402344
1,492732,-42.3006477355957,5.820522785186768,36.597999572753906,-78.98846435546875
1,492987,25.411300659179688,-38.69388961791992,-58.82135009765625,80.38544464111328
1,492988,6.698193550109863,2.741062641143799,-71.99434661865234,39.736785888671875
1,492991,-3.508486032485962,19.87022590637207,82.10165405273438,256.0859069824219
1,492992,1.3753479719161987,-7.024406909942627,49.49509048461914,150.1777801513672
1,492995,2.210017681121826,25.7271671295166,-49.98978805541992,-330.575439453125
1,495131,-7.478430271148682,17.61932945251465,-6.672552585601807,-341.8337097167969
1,495132,-34.0037841796875,-25.853534698486328,-38.14262390136719,-65.73246765136719
1,495135,3.2830653190612793,-21.51161003112793,-20.540693283081055,17.660213470458984
1,495136,19.709869384765625,-11.089890480041504,54.3298454284668,27.58963394165039
1,495139,-1.408131718635559,4.1276068687438965,24.462261199951172,153.33810424804688
1,495140,12.385788917541504,20.695751190185547,-8.657304763793945,162.1415557861328
1,495143,-21.203100204467773,16.189207077026367,-32.36132049560547,51.6434326171875
1,495144,-27.930438995361328,-13.180435180664062,-12.992826461791992,113.90403747558594
1,495147,52.784236907958984,-11.04917049407959,41.28471374511719,105.62830352783203
1,495148,67.87306213378906,3.766273260116577,21.57830238342285,-145.37741088867188
1,495151,-20.302717208862305,-27.304105758666992,-48.402164459228516,-287.3096923828125
1,495152,-84.58863067626953,4.156457901000977,-21.989826202392578,-106.30984497070312
1,495155,-43.81177520751953,42.31805419921875,31.72665786743164,64.84949493408203
1,495156,49.26316452026367,-23.369979858398438,4.6610636711120605,55.310916900634766
1,495159,46.001136779785156,-29.887935638427734,0.3960835039615631,69.10971069335938
1,495160,65.98014068603516,38.8335075378418,5.148301124572754,53.705726623535156
1,495163,-14.407442092895508,35.634002685546875,6.000258922576904,20.987550735473633
1,495164,-124.53297424316406,-11.466282844543457,9.816433906555176,99.52047729492188
1,495167,29.054821014404297,-37.71368408203125,11.78051471710205,77.32865905761719
1,495168,35.58126449584961,-0.056950587779283524,3.4584996700286865,-107.1869888305664
1,495171,-50.9033317565918,25.52985191345215,-27.92609977722168,-198.27345275878906
1,495172,11.18932819366455,-23.342912673950195,-18.912506103515625,-65.79812622070312
1,495175,45.74466323852539,-13.757869720458984,-13.85859203338623,40.02005386352539
1,495176,-4.4882097244262695,38.30742263793945,-5.651519775390625,-2.3888185024261475
1,495179,-28.91075897216797,-3.148998498916626,-34.26204299926758,91.22679138183594
1,495180,29.328773498535156,-38.474063873291016,-13.93008041381836,84.1882553100586
1,495183,6.062720775604248,3.547213315963745,159.7346649169922,-74.64616394042969
1,495184,-22.807697296142578,17.03029441833496,70.09873962402344,51.932411193847656
1,495187,-1.6280596256256104,11.563192367553711,-153.3881072998047,138.62399291992188
1,495188,-26.261667251586914,-1.414034366607666,-82.08512878417969,-88.28456115722656
1,495191,36.495174407958984,-10.27054214477539,48.12594223022461,-176.0231170654297
1,495192,32.46163558959961,8.793011665344238,47.025733947753906,-16.208253860473633
1,495195,-54.26738739013672,-8.34605884552002,5.976520538330078,41.220977783203125
1,495197,-1.5756193399429321,-11.652112007141113,-13.299920082092285,27.559368133544922
1,495199,12.82231616973877,10.15027904510498,-14.515640258789062,72.99226379394531
1,495201,-28.622133255004883,6.485032081604004,-12.62456226348877,-32.58528137207031
1,495203,-7.046820163726807,1.7070866823196411,18.071123123168945,-75.16706085205078
1,495205,23.879026412963867,-15.150398254394531,18.528335571289062,83.50135040283203
1,495209,25.930540084838867,-14.126837730407715,-21.559301376342773,34.64907455444336
1,495209,0.10886590927839279,38.45924758911133,14.473348617553711,-58.46841812133789
1,495210,-0.8541148900985718,21.325679779052734,0.8655100464820862,24.68327522277832
1,495213,4.8897624015808105,-27.819246292114258,-26.690414428710938,-9.175840377807617
1,495214,-29.17815589904785,5.128862380981445,17.325563430786133,-31.891010284423828
1,495217,-27.8594970703125,-6.730831146240234,77.62277221679688,40.423336029052734
1,495218,-0.9649440050125122,-19.30524253845215,18.97905158996582,0.10898764431476593
1,495221,71.0692138671875,14.89409351348877,-149.0519256591797,-51.613956451416016
1,495222,77.52886962890625,-4.047149658203125,-47.24686050415039,-40.76626205444336
1,495225,-46.62755584716797,-7.17951774597168,122.69379425048828,143.16964721679688
1,495226,-43.11872863769531,16.883771896362305,54.42768478393555,122.5640640258789
1,495229,-19.10097885131836,-8.255169868469238,-86.51732635498047,-192.2882537841797
1,495230,-31.396230697631836,-16.582794189453125,-51.111331939697266,-112.88138580322266
1,495233,38.30735397338867,10.754586219787598,66.8488540649414,78.263427734375
1,495234,14.416857719421387,10.186290740966797,-5.111565113067627,13.665938377380371
1,495237,-67.86735534667969,3.981485605239868,-11.831756591796875,-10.410767555236816
1,495238,-11.738069534301758,-15.12946891784668,39.93820571899414,30.21366310119629
1,495241,112.59281921386719,12.569808006286621,-40.68851852416992,-7.052013397216797
1,495242,78.80594635009766,23.943843841552734,-32.190574645996094,-57.51572036743164
1,495245,-130.30210876464844,-29.862539291381836,43.570220947265625,126.66820526123047
1,495246,-112.26032257080078,-3.2267138957977295,29.108022689819336,125.1297836303711
1,495249,92.26968383789062,-1.965010404586792,-14.369743347167969,-212.6228485107422
1,495250,43.41660690307617,-10.529193878173828,-15.786059379577637,-104.2178726196289
1,495253,-23.17232322692871,28.039873123168945,3.5052385330200195,130.43267822265625
1,495254,2.9856858253479004,6.355341911315918,22.055389404296875,45.97446823120117
1,495257,-12.312308311462402,-17.19472312927246,1.19599187374115,-15.120952606201172
1,495258,-2.6958348751068115,-4.213913440704346,-28.007057189941406,-16.178613662719727
1,495261,-18.007009506225586,15.343812942504883,-10.759272575378418,-46.748809814453125
1,495262,-4.824463844299316,-0.838120698928833,11.340325355529785,-79.96456146240234
1,495265,49.17206954956055,2.6015565395355225,15.400267601013184,131.1915283203125
1,495266,16.053295135498047,12.734884262084961,2.7084808349609375,175.90283203125
1,495269,-20.02863311767578,-31.98564338684082,-11.73874568939209,-183.95260620117188
1,495270,8.369217872619629,-3.999619722366333,-5.748846530914307,-112.47356414794922
1,495273,-7.910139083862305,13.18541431427002,7.036348819732666,88.33496856689453
1,495274,3.397961139678955,-14.760184288024902,-6.080979347229004,2.053427219390869
1,495277,1.9061311483383179,12.72854232788086,-8.385748863220215,45.3523063659668
1,495278,-31.471134185791016,-7.7659735679626465,5.833849906921387,43.34907150268555
1,495281,-0.2005070596933365,-14.242120742797852,-3.7891602516174316,-90.69538116455078
1,495282,-13.172569274902344,19.104534149169922,3.5404889583587646,-103.34164428710938
1,495285,80.20048522949219,17.99615478515625,10.974966049194336,136.06182861328125
1,495287,54.6921501159668,14.973738670349121,6.540092468261719,143.69300842285156
1,495289,-130.6631622314453,-31.147388458251953,10.96674919128418,-166.49440002441406
1,495291,-32.54695129394531,-19.16972541809082,-3.8548572063446045,-99.90144348144531
1,495293,51.334495544433594,21.960102081298828,-31.890331268310547,90.67150115966797
1,495295,26.96514892578125,3.295828342437744,-90.4684066772461,30.433265686035156
1,495297,-7.747929096221924,-12.595808029174805,66.45256805419922,4.630373001098633
1,495300,-65.408203125,-0.5719035267829895,204.23385620117188,4.163804531097412
1,495300,-15.683424949645996,15.635557174682617,-54.036293029785156,-46.16783142089844
1,495303,100.94412231445312,-4.179253101348877,-180.04747009277344,-42.511817932128906
1,495304,-1.0273816585540771,0.731887936592102,-30.815336227416992,73.95159149169922
1,495307,-115.635498046875,-11.136358261108398,92.55876159667969,89.71833801269531
1,495308,37.31131362915039,-5.172372817993164,73.04595947265625,-74.92174530029297
1,495311,51.490570068359375,10.402145385742188,-60.10164260864258,-112.05622100830078
1,495312,23.621395111083984,-8.40420150756836,-83.9717025756836,28.862791061401367
1,495315,52.54314422607422,5.471188068389893,33.380615234375,55.265865325927734
1,495316,-19.939077377319336,14.083662033081055,73.68806457519531,-5.939794540405273
1,495319,-79.13296508789062,18.719449996948242,10.265649795532227,57.120155334472656
1,495320,-41.84089660644531,-2.014174222946167,-55.98960494995117,-18.24408531188965
1,495323,70.28535461425781,-49.46467590332031,-41.35544204711914,-87.46409606933594
1,495324,18.810243606567383,-25.18140411376953,27.127511978149414,80.90128326416016
1,495327,-72.98957061767578,42.437721252441406,20.534536361694336,62.15239334106445
1,495328,16.72722053527832,21.329280853271484,14.914673805236816,-100.00980377197266
1,495331,31.457534790039062,-16.244617462158203,77.68779754638672,-73.373291015625
1,495332,-7.210206031799316,-2.1263482570648193,22.87517738342285,33.16948699951172
1,495335,67.493896484375,0.10143978893756866,29.522775650024414,49.276641845703125
1,495336,26.942251205444336,13.712067604064941,-5.161781311035156,51.13623809814453
1,495339,-117.86251068115234,6.4162516593933105,-308.68780517578125,48.3135986328125
1,495340,-53.30841827392578,-4.287263870239258,-127.78933715820312,-101.89076232910156
1,495343,74.34520721435547,-5.572263240814209,250.55784606933594,-114.14937591552734
1,495344,33.712074279785156,-29.01002311706543,101.65403747558594,110.79890441894531
1,495347,2.640024185180664,7.766721248626709,-34.624637603759766,128.42364501953125
1,495348,70.16138458251953,52.56380844116211,31.808141708374023,-77.58065032958984
1,495351,-53.996620178222656,-17.914215087890625,-49.24726867675781,-116.44914245605469
1,495352,-140.98233032226562,-38.96366500854492,-78.23574829101562,49.09304428100586
1,495355,22.39852523803711,24.354843139648438,67.66531372070312,52.42243957519531
1,495356,21.86341667175293,-5.099792003631592,66.84305572509766,-7.759843826293945
1,495359,10.636927604675293,-13.820982933044434,16.663944244384766,36.170875549316406
1,495360,59.96779251098633,15.606588363647461,13.543715476989746,-65.10617065429688
1,495363,-8.47396469116211,-6.9805006980896,-54.70695495605469,-116.78817749023438
1,495364,-41.930885314941406,4.959170341491699,-30.26601219177246,100.25997924804688
1,495367,12.820149421691895,15.127359390258789,19.505882263183594,144.51666259765625
1,495368,54.94223403930664,-3.076669454574585,-15.571492195129395,-80.12885284423828
1,495371,-16.29922866821289,-0.6013047695159912,-33.79337692260742,-102.82315826416016
1,495372,-45.955909729003906,-23.32695960998535,-6.69570779800415,46.09138870239258
1,495375,46.57822036743164,-21.195297241210938,21.127962112426758,37.2164421081543
1,495376,22.200315475463867,21.973817825317383,8.618088722229004,-22.802833557128906
1,495379,-44.61629104614258,28.00198745727539,32.35121536254883,46.206031799316406
1,495380,-21.620927810668945,-10.37796401977539,5.930052280426025,-6.1338019371032715
1,495383,6.182284832000732,-15.716557502746582,-30.631208419799805,-115.86468505859375
1,495384,7.055522918701172,-9.000448226928711,18.257518768310547,65.87033081054688
1,495387,-10.46155834197998,-8.478758811950684,-2.9289474487304688,116.25439453125
1,495388,-12.654909133911133,28.849271774291992,-28.117431640625,-112.94485473632812
1,495391,-11.569664001464844,-0.39031532406806946,-3.748642921447754,-64.89802551269531
1,495392,44.23044204711914,-11.310312271118164,-0.4089090824127197,102.85071563720703
1,495395,66.7042236328125,33.907257080078125,21.913442611694336,-4.25376558303833
1,495396,-36.767669677734375,-2.552206039428711,-8.793745994567871,-44.426700592041016
1,495399,-32.1895866394043,-28.374561309814453,-48.71908950805664,57.98017883300781
1,495400,48.372947692871094,-3.8954150676727295,17.863662719726562,-34.208839416503906
1,495403,35.260520935058594,9.335776329040527,58.715606689453125,-57.791099548339844
1,495404,-57.311824798583984,13.152461051940918,35.606895446777344,106.18804168701172
1,495409,-128.2396697998047,0.3409051299095154,116.0841293334961,-30.674726486206055
1,495409,-19.656047821044922,-2.191253900527954,47.30440902709961,-138.6566925048828
1,495410,66.3083724975586,-3.790726661682129,-329.3123474121094,109.84620666503906
1,495413,62.57952117919922,-17.570146560668945,-222.08172607421875,67.7984390258789
1,495414,59.115501403808594,-1.9058469533920288,201.09873962402344,-43.32585144042969
1,495417,0.4319218695163727,13.468775749206543,113.09513854980469,23.01850128173828
1,495418,-17.071443557739258,-6.166639804840088,-12.696317672729492,-19.06924057006836
1,495421,-36.15262985229492,-5.436763286590576,103.2276382446289,-40.39520263671875
1,495422,-42.41040802001953,6.408426284790039,56.543331146240234,-26.646818161010742
1,495425,3.2609283924102783,-7.631689071655273,-93.17618560791016,125.81970977783203
1,495426,5.783412933349609,11.073338508605957,-58.03241729736328,112.0255355834961
1,495429,37.15324020385742,21.429412841796875,30.040369033813477,-211.4239959716797
1,495430,23.73984146118164,-26.460098266601562,9.123320579528809,-124.80174255371094
1,495433,-36.61918258666992,-16.37314224243164,-11.90207290649414,136.93345642089844
1,495434,-21.704072952270508,48.53517150878906,-1.1167458295822144,50.95116424560547
1,495437,-17.838348388671875,14.578802108764648,52.692142486572266,-35.4314079284668
1,495438,-39.83641052246094,-40.529457092285156,25.937223434448242,5.135333061218262
1,495441,24.045696258544922,-16.608417510986328,-115.37049865722656,-45.01838684082031
1,495442,78.25733184814453,2.0993247032165527,-74.68621063232422,-88.57657623291016
1,495445,11.789236068725586,30.05784797668457,60.963130950927734,158.74485778808594
1,495446,-11.225665092468262,-5.315001010894775,21.079273223876953,129.54257202148438
1,495449,1.409967064857483,-30.533071517944336,21.160297393798828,-216.73138427734375
1,495450,-11.619178771972656,17.378751754760742,43.8416748046875,-51.69179916381836
1,495453,-12.535703659057617,-6.736142635345459,-19.60343360900879,144.0148162841797
1,495454,-18.49524688720703,-3.573781967163086,-3.1571240425109863,3.403700351715088
1,495457,10.497745513916016,10.85367488861084,-5.525613784790039,-15.870264053344727
1,495458,7.019814491271973,-4.8270721435546875,-31.751270294189453,17.5771427154541
1,495461,-28.649982452392578,9.166180610656738,22.72246742248535,-75.05597686767578
1,495462,-9.746866226196289,7.701353549957275,22.55086898803711,-100.46124267578125
1,495465,-52.66538619995117,10.614848136901855,384.39215087890625,132.04983520507812
1,495466,-102.25716400146484,1.8667043447494507,-7.167277812957764,183.34014892578125
1,495469,153.58155822753906,-13.02703857421875,-999.2150268554688,-182.4247589111328
1,495470,298.7225341796875,-2.8825974464416504,-107.529052734375,-173.6156768798828
1,495473,86.66617584228516,-20.49810791015625,704.6017456054688,131.5886993408203
1,495474,-79.25857543945312,-14.592414855957031,179.40321350097656,97.00746154785156
1,495477,-314.2384948730469,31.39307975769043,-60.1854362487793,37.226016998291016
1,495478,-189.00819396972656,3.39803409576416,-101.07347106933594,-9.076444625854492
1,495481,102.66619873046875,-18.08677864074707,-57.107666015625,-126.69447326660156
1,495482,-28.001911163330078,11.086440086364746,-1.749193787574768,-89.88996124267578
1,495485,99.91497802734375,-3.438265562057495,9.611236572265625,125.9657211303711
1,495486,192.2803955078125,-4.598957061767578,113.83551788330078,102.74374389648438
1,495489,-74.42705535888672,-1.7290626764297485,38.33723068237305,-155.1163330078125
1,495490,-126.29324340820312,1.7555537223815918,-17.477310180664062,-25.682384490966797
1,495493,-40.77428436279297,17.8687801361084,19.743091583251953,150.9002685546875
1,495494,24.705520629882812,-1.5968478918075562,-116.63047790527344,-7.930505275726318
1,495497,66.84900665283203,-0.8451948761940002,-99.00588989257812,-91.43692779541016
1,495498,45.65117645263672,14.781757354736328,74.36209869384766,-16.576030731201172
1,495501,40.498443603515625,-18.4256649017334,43.22532272338867,14.64897632598877
1,495502,12.22608757019043,-23.962890625,-57.91753005981445,-5.465899467468262
1,495505,-71.99800872802734,15.3455171585083,-48.267601013183594,90.65831756591797
1,495506,-27.51784324645996,22.305694580078125,-5.481505393981934,66.46253204345703
1,495509,55.24494934082031,-25.196002960205078,43.249324798583984,-162.17916870117188
1,495510,-26.307817459106445,-13.346027374267578,74.5617446899414,-46.72638702392578
1,495513,-4.867866516113281,45.14659118652344,43.54791259765625,114.52577209472656
1,495514,-16.270750045776367,-8.207955360412598,-18.194244384765625,3.8066062927246094
1,495517,-216.4468536376953,-13.544411659240723,164.5375213623047,-7.613375663757324
1,495519,6.963826656341553,0.980146050453186,-147.6410675048828,33.20235824584961
1,495521,358.0159606933594,-19.565521240234375,-567.9468383789062,-73.88400268554688
1,495523,159.00628662109375,14.445460319519043,121.68185424804688,-112.427734375
1,495525,-89.5673828125,-7.114017963409424,469.5052490234375,175.43955993652344
1,495527,-101.17021942138672,8.141340255737305,132.57827758789062,161.26841735839844
1,495531,-200.12513732910156,16.140724182128906,-145.17050170898438,-274.3929138183594
1,495531,-125.40672302246094,-20.899425506591797,-184.88279724121094,-131.91485595703125
1,495533,101.34168243408203,15.75658130645752,109.64749145507812,230.64183044433594
1,495534,86.70742797851562,-6.507465839385986,126.15719604492188,60.818485260009766
1,495537,46.615272521972656,-36.88160705566406,-48.77495574951172,-79.68953704833984
1,495538,32.71762466430664,19.519336700439453,-50.13589859008789,3.4143173694610596
1,495541,-112.14849853515625,32.30754089355469,89.62660217285156,-32.15469741821289
1,495542,-112.83323669433594,8.879537582397461,-0.08066357672214508,-91.05437469482422
1,495545,163.16879272460938,-7.172301769256592,-223.57769775390625,131.76632690429688
1,495546,235.5475311279297,-34.43142318725586,46.40517807006836,164.05410766601562
1,495549,-91.48729705810547,-1.6863609552383423,121.29686737060547,-204.4823455810547
1,495550,-179.87501525878906,42.34403610229492,-92.49311065673828,-119.4458236694336
1,495553,88.55281066894531,1.6323093175888062,-35.24089813232422,148.20460510253906
1,495554,63.39488220214844,-37.847869873046875,-64.18356323242188,71.13429260253906
1,495557,-110.9666519165039,-20.229400634765625,58.55210494995117,3.600987434387207
1,495558,-35.25338363647461,6.57749080657959,150.19813537597656,-45.75823974609375
1,495561,47.586856842041016,34.502662658691406,-52.986446380615234,-106.7754135131836
1,495562,-8.229751586914062,20.81110954284668,-126.55674743652344,-63.38797378540039
1,495565,-54.99597930908203,-35.47047805786133,-17.33439826965332,168.03480529785156
1,495566,-16.534269332885742,-17.33908462524414,58.88062286376953,151.18145751953125
1,495569,24.3604679107666,30.195035934448242,162.3000030517578,-249.87930297851562
1,495570,-119.52005004882812,-1.534091591835022,-73.92796325683594,-107.9559326171875
1,495573,24.907276153564453,-29.729074478149414,-193.2531280517578,215.1096649169922
1,495574,279.67376708984375,10.148953437805176,212.08071899414062,26.97562026977539
1,495577,163.08287048339844,9.02227783203125,65.70430755615234,-49.58714294433594
1,495578,13.805947303771973,-2.438616991043091,-83.95073699951172,-2.849646806716919
1,495581,-201.36070251464844,26.15849494934082,-99.78900909423828,-63.79149627685547
1,495582,-198.64541625976562,2.7447969913482666,-144.7833709716797,-30.40648651123047
1,495585,11.405505180358887,-25.137136459350586,132.78492736816406,123.63158416748047
1,495586,-13.049735069274902,-5.9027180671691895,133.26943969726562,75.21464538574219
1,495589,9.83149528503418,-0.3771137595176697,40.1377067565918,-204.7659454345703
1,495590,117.5086441040039,10.428239822387695,76.54930114746094,-68.14620971679688
1,495593,-1.2494640350341797,17.24068260192871,-67.36909484863281,185.87196350097656
1,495594,-173.38345336914062,-1.8354977369308472,-138.5228271484375,38.04688262939453
1,495597,-55.720985412597656,-15.683711051940918,-31.613025665283203,-44.562278747558594
1,495598,189.82861328125,-13.199857711791992,35.5476188659668,1.642503261566162
1,495601,5.160528182983398,-3.9060440063476562,92.66104125976562,-90.5130615234375
1,495602,-114.84041595458984,-1.3853304386138916,77.29441833496094,-78.79698181152344
1,495605,138.0622100830078,16.4014949798584,-159.86151123046875,170.40797424316406
1,495606,125.9194564819336,-1.92988920211792,-194.90565490722656,131.2993927001953
1,495609,-49.90221405029297,-3.5787534713745117,167.4350128173828,-174.26376342773438
1,495610,-75.8934555053711,10.118678092956543,296.7624206542969,-103.03900146484375
1,495613,-28.02103614807129,-7.755983829498291,-186.48040771484375,116.07219696044922
1,495614,3.6999759674072266,12.243328094482422,-422.3843078613281,64.68882751464844
1,495617,-28.205917358398438,-6.692484378814697,155.827392578125,-37.12001037597656
1,495618,-16.735633850097656,-24.339651107788086,328.1944885253906,-30.956777572631836
1,495621,50.18177795410156,27.87320327758789,66.82259368896484,-45.38033676147461
1,495622,119.62300109863281,4.246393203735352,-67.37869262695312,-56.000640869140625
1,495625,-97.82392120361328,-16.25564956665039,-149.52590942382812,147.13107299804688
1,495626,-222.25796508789062,13.432479858398438,-45.53459167480469,146.58551025390625
1,495629,217.9512939453125,-5.30068826675415,-25.193187713623047,-183.2423553466797
1,495630,185.6809539794922,-5.324650287628174,-9.667378425598145,-102.85462951660156
1,495633,-113.85672760009766,16.854909896850586,125.71541595458984,82.82493591308594
1,495634,-77.46726989746094,10.934988021850586,64.59895324707031,-3.8432462215423584
1,495637,-79.57793426513672,-28.6320743560791,-185.48049926757812,38.52972412109375
1,495638,0.9475079774856567,-2.3424832820892334,-151.58782958984375,31.240541458129883
1,495641,28.086219787597656,22.24844741821289,226.66616821289062,-127.91758728027344
1,495642,-32.82810974121094,-24.016216278076172,263.26898193359375,-87.92749786376953
1,495645,-9.196955680847168,-10.219831466674805,-102.64738464355469,190.66050720214844
1,495646,33.584808349609375,22.414445877075195,-219.87002563476562,159.64453125
1,495649,60.19953155517578,4.1840500831604,39.95112228393555,-208.04917907714844
1,495650,-23.813608169555664,-22.260595321655273,204.9488983154297,-130.8059539794922
1,495653,-79.78829956054688,20.314403533935547,-21.03680992126465,133.93829345703125
1,495654,17.026662826538086,31.50960922241211,-143.50399780273438,40.97041320800781
1,495657,86.85335540771484,-28.739423751831055,-7.135041236877441,10.208415985107422
1,495658,48.97833251953125,-27.747068405151367,25.7711124420166,84.82428741455078
1,495661,34.14239501953125,-10.936120986938477,-98.21913146972656,-84.83535766601562
1,495662,9.935689926147461,9.60560131072998,11.418444633483887,-162.94631958007812
1,495665,-60.105186462402344,34.33786392211914,-9.5938138961792,141.5268096923828
1,495667,-101.26852416992188,2.433652639389038,-173.63267517089844,152.7113800048828
1,495669,-52.36980056762695,-28.55514144897461,193.80885314941406,-213.67523193359375
1,495670,19.94432830810547,-17.955841064453125,356.80712890625,-118.15773010253906
1,495673,48.327972412109375,11.112462997436523,-34.325477600097656,171.50376892089844
1,495674,96.176513671875,29.034378051757812,-381.3880615234375,82.20944213867188
1,495677,3.5777978897094727,12.519317626953125,-131.9384765625,-76.69190979003906
1,495678,-24.65554428100586,-1.4962841272354126,208.10061645507812,-67.91329956054688
1,495681,95.56747436523438,-19.923494338989258,71.14529418945312,-8.008255958557129
1,495682,24.59473991394043,-5.009621620178223,-49.68828201293945,-1.3064225912094116
1,495685,-177.23199462890625,12.880847930908203,27.795639038085938,131.5105743408203
1,495686,-151.74282836914062,-17.683197021484375,33.52991485595703,131.085693359375
1,495689,62.164981842041016,-5.946279525756836,-73.91008758544922,-196.92449951171875
1,495690,50.90219497680664,10.130495071411133,-18.148292541503906,-146.47996520996094
1,495693,-22.519187927246094,17.659513473510742,111.10690307617188,130.8865966796875
1,495694,-7.82514762878418,-2.5845682621002197,44.33152770996094,47.56962585449219
1,495697,31.450822830200195,-10.749515533447266,-118.73788452148438,-38.379913330078125
1,495698,39.469566345214844,16.31707000732422,-27.511974334716797,5.976879596710205
1,495701,-22.02625846862793,-14.00586223602295,154.87313842773438,-19.528480529785156
1,495702,-7.316665172576904,-10.873868942260742,144.86328125,-38.47732162475586
1,495705,54.12779235839844,19.959260940551758,26.21320343017578,106.8927001953125
1,495706,102.18775939941406,6.120415210723877,-327.33013916015625,129.0279083251953
1,495709,38.00983428955078,-19.656288146972656,-423.0594482421875,-190.39529418945312
1,495710,-12.384559631347656,-19.963563919067383,71.5321044921875,-120.90962982177734
1,495713,-2.740741014480591,30.240808486938477,365.7598876953125,142.7216033935547
1,495714,-115.10823059082031,20.280479431152344,176.48463439941406,27.88478660583496
1,495717,-156.88340759277344,-68.28449249267578,-64.26331329345703,6.308500289916992
1,495718,-0.1631929874420166,-24.006759643554688,-64.00151062011719,2.7442452907562256
1,495721,121.31153106689453,64.9282455444336,-16.973066329956055,-117.91190338134766
1,495722,86.4101791381836,16.541833877563477,-70.1068344116211,-74.9564208984375
1,495725,20.29639434814453,-5.155279636383057,0.9504150152206421,148.17210388183594
1,495726,-59.664588928222656,1.6017508506774902,77.31179809570312,149.10983276367188
1,495729,-145.0570526123047,-22.50328254699707,172.5597686767578,-168.75640869140625
1,495730,-13.085655212402344,6.941372394561768,97.82550048828125,-91.74874114990234
1,495733,116.7667007446289,18.89625358581543,-205.51025390625,122.89312744140625
1,495734,35.42280197143555,-6.960407257080078,-157.69801330566406,19.215251922607422
1,495737,15.22458553314209,8.502979278564453,-28.46449089050293,26.33433723449707
1,495738,34.22611999511719,5.699697017669678,-83.11491394042969,23.50228500366211
1,495741,-61.27058792114258,-16.903705596923828,105.05332946777344,-109.25115203857422
1,495742,-81.43328094482422,-9.053728103637695,151.06808471679688,-94.22370147705078
1,495745,-99.9367904663086,-8.246941566467285,135.4266357421875,117.1733169555664
1,495746,-128.938720703125,-0.7388691306114197,111.8444595336914,110.50898742675781
1,495749,266.9342041015625,1.786131739616394,-415.9315490722656,-167.7716522216797
1,495750,384.0609130859375,-3.468567132949829,-224.52224731445312,-66.70104217529297
1,495753,-44.9332275390625,5.586366653442383,405.0133972167969,164.4273223876953
1,495754,-135.47671508789062,24.287147521972656,104.71186828613281,33.79541778564453
1,495757,-114.49452209472656,-8.200801849365234,-336.1054382324219,-24.50415802001953
1,495758,-171.0408935546875,-46.2196044921875,-91.73220825195312,-5.369760513305664
1,495761,-56.65079879760742,10.204182624816895,272.7682800292969,-89.12199401855469
1,495762,72.98218536376953,26.60961151123047,81.75960540771484,-41.41320037841797
1,495765,88.82818603515625,-2.4247214794158936,-150.91282653808594,132.7236785888672
1,495766,-10.830427169799805,-3.993778705596924,-49.20159149169922,88.81514739990234
1,495769,-44.81575393676758,7.886540412902832,73.10121154785156,-186.86888122558594
1,495770,-1.9188258647918701,11.862651824951172,80.02992248535156,-88.15164184570312
1,495773,8.9360990524292,-27.050392150878906,-34.267948150634766,165.79359436035156
1,495774,-24.689783096313477,5.274023532867432,-2.16375470161438,50.71913146972656
1,495777,53.97486114501953,30.729808807373047,178.0389862060547,-80.53656005859375
1,495778,138.068603515625,-14.534003257751465,-1.0509191751480103,1.2478169202804565
1,495781,-62.65517807006836,8.535609245300293,-305.3642883300781,44.48295593261719
1,495782,-82.81320190429688,0.9716277122497559,-182.89988708496094,-46.55330276489258
1,495785,149.908447265625,-10.54125690460205,191.98699951171875,34.816654205322266
1,495786,59.624000549316406,-11.422658920288086,194.8890838623047,67.19327545166016
1,495789,-8.575433731079102,-18.60133171081543,-123.82121276855469,-167.23178100585938
1,495791,-166.7279510498047,48.639137268066406,-6.308396816253662,-69.85479736328125
1,495793,-330.5953063964844,-14.865715980529785,129.8871307373047,179.8271484375
1,495795,157.8933563232422,-71.86199188232422,3.3233017921447754,49.100852966308594
1,495797,216.5990447998047,49.24165725708008,-155.03501892089844,-65.09053039550781
1,495799,-87.63471984863281,54.348289489746094,-35.09845733642578,-16.152280807495117
1,495801,114.05584716796875,-16.176212310791016,304.2395935058594,-55.93400573730469
1,495803,124.8934097290039,-13.949653625488281,4.579983711242676,-44.00422668457031
1,495805,-78.80089569091797,-20.410959243774414,-414.0405578613281,146.2282257080078
1,495807,-89.37528991699219,1.6626222133636475,-179.295166015625,104.41729736328125
1,495809,-74.45449829101562,21.215158462524414,238.08909606933594,-195.30661010742188
1,495811,-31.803220748901367,-15.256073951721191,203.62522888183594,-69.1470947265625
1,495813,-2.265136480331421,-32.15447235107422,16.492433547973633,129.3796844482422
1,495815,-14.62928581237793,-13.196065902709961,1.612280011177063,-13.316289901733398
1,495816,15.928009033203125,29.210918426513672,-24.154949188232422,2.8983511924743652
1,495819,16.543651580810547,30.171472549438477,-28.55508804321289,55.50212860107422
1,495820,-1.9606108665466309,-5.377485275268555,14.187029838562012,-100.88088989257812
1,495823,20.60825538635254,3.0724337100982666,-17.504871368408203,-39.30778503417969
1,495825,72.42512512207031,3.8129351139068604,3.886244773864746,159.8478546142578
1,495827,131.653076171875,-21.44380760192871,-17.825685501098633,-4.801163196563721
1,495829,31.20431137084961,10.268427848815918,-13.475236892700195,-141.88584899902344
1,495831,-125.33647918701172,40.29741668701172,56.896209716796875,-12.1007080078125
1,495833,-85.54773712158203,-17.758577346801758,-40.95380783081055,65.8394546508789
1,495835,-8.620018005371094,-46.23464584350586,-62.416656494140625,53.93789291381836
1,495837,31.375713348388672,-5.1286797523498535,-37.131351470947266,6.160553455352783
1,495839,-17.88252067565918,4.939330577850342,-42.25796127319336,-8.286845207214355
1,495841,-44.682525634765625,9.534876823425293,-74.64119720458984,-64.27862548828125
1,495843,22.907045364379883,29.500463485717773,130.6387481689453,-49.089599609375
1,495845,-8.3859281539917,-7.395181655883789,315.1354064941406,85.57500457763672
1,495847,-30.037744522094727,-25.910526275634766,-57.19424057006836,31.414554595947266
1,495849,7.490787029266357,21.241859436035156,-218.55038452148438,-65.42349243164062
1,495851,68.27217102050781,17.299949645996094,14.586092948913574,-49.6462287902832
1,495853,85.87925720214844,-6.591135501861572,97.35631561279297,20.877178192138672
1,495855,89.47549438476562,-19.62898826599121,-130.14443969726562,77.5383529663086
1,495857,-0.4632328450679779,-10.035370826721191,-177.6345672607422,20.828304290771484
1,495859,-209.0821990966797,14.61070442199707,231.79049682617188,-13.40329360961914
1,495861,-74.56182098388672,-10.200485229492188,151.68202209472656,-55.476226806640625
1,495863,100.41487884521484,-1.4446327686309814,-164.1977996826172,-21.54323387145996
1,495865,-15.800535202026367,8.832536697387695,-36.222591400146484,107.57210540771484
1,495867,-50.250648498535156,-20.402006149291992,13.762442588806152,-2.540194511413574
1,495869,29.589454650878906,-5.339643955230713,-77.7659683227539,-132.69058227539062
1,495871,23.968252182006836,15.076715469360352,30.8770751953125,-24.843778610229492
1,495873,38.894081115722656,19.906381607055664,114.80590057373047,85.2874755859375
1,495875,-52.32322692871094,10.89194107055664,88.0241928100586,22.561981201171875
1,495877,-125.20179748535156,-17.48751449584961,79.63079071044922,-20.04049301147461
1,495879,123.7878646850586,-9.580012321472168,-141.67025756835938,54.78375244140625
1,495881,162.01036071777344,24.64642906188965,-259.9967956542969,-36.34480285644531
1,495883,12.178058624267578,16.47071075439453,47.63077163696289,-55.42330551147461
