Aktueller Finger,timestamp_ms,sensor_0,sensor_1,sensor_2,sensor_3
0,487759,-50.45262908935547,-221.02490234375,-19.780441284179688,142.7079620361328
0,487760,-32.583946228027344,-95.884033203125,-18.330163955688477,54.062259674072266
0,487762,43.497989654541016,163.08766174316406,33.01189041137695,-128.00872802734375
0,487764,41.691287994384766,153.1978759765625,17.10624885559082,-107.99075317382812
0,487766,-20.608491897583008,-8.810754776000977,-13.443828582763672,29.818859100341797
0,487768,-40.78105926513672,-134.51953125,-28.340614318847656,96.57447814941406
0,487770,-11.090950012207031,-50.97269821166992,2.547307252883911,50.78635787963867
0,487772,36.905242919921875,83.973388671875,26.932525634765625,-73.8808822631836
0,487774,42.05497741699219,92.4422378540039,1.4817003011703491,-128.0862274169922
0,487776,-34.575836181640625,-53.28951644897461,-3.691049098968506,69.83673858642578
0,487778,-31.890625,-87.59667205810547,-11.158254623413086,131.79579162597656
0,487780,19.11948013305664,-24.369691848754883,-6.766103267669678,-9.961198806762695
0,487782,-5.367750644683838,-8.101161003112793,-2.667665481567383,-29.681983947753906
0,487784,20.78850746154785,120.90796661376953,14.755942344665527,-69.5259017944336
0,487786,18.667850494384766,48.35086441040039,4.760794162750244,-26.054349899291992
0,487788,-48.804901123046875,-123.80428314208984,-25.79378318786621,87.62792205810547
0,487790,-14.315725326538086,-92.06657409667969,-4.25956916809082,50.32477569580078
0,487792,34.562564849853516,64.70780181884766,8.104366302490234,-68.8634033203125
0,487794,32.114078521728516,173.9071044921875,21.514551162719727,-84.55465698242188
0,487796,-17.18523406982422,-36.46717834472656,13.815848350524902,55.43834686279297
0,487798,-41.29072570800781,-136.42042541503906,-36.548431396484375,49.88776397705078
0,487800,2.7818284034729004,-36.471343994140625,-14.656222343444824,8.5919828414917
0,487802,8.846487998962402,-12.2813081741333,13.953351020812988,1.548161506652832
0,487804,35.36295700073242,158.97183227539062,12.910700798034668,-96.77181243896484
0,487806,-0.4476314187049866,74.27909088134766,13.067538261413574,-5.656773090362549
0,487808,-52.67314910888672,-169.77450561523438,-18.161394119262695,115.79720306396484
0,487810,8.114131927490234,-75.95285034179688,4.968592166900635,45.16075897216797
0,487812,28.953460693359375,110.04872131347656,17.632246017456055,-112.109130859375
0,487814,14.805377960205078,116.72919464111328,-8.432901382446289,-85.19145202636719
0,487816,-14.646991729736328,-73.19832611083984,-13.765726089477539,98.72938537597656
0,487818,-32.347843170166016,-85.54461669921875,-3.8681154251098633,38.873146057128906
0,487820,7.653141021728516,-9.618067741394043,13.982351303100586,15.92743968963623
0,487822,28.34548568725586,-20.62152862548828,-7.4891252517700195,24.795949935913086
0,487824,21.27701759338379,135.55308532714844,10.858159065246582,-133.89590454101562
0,487826,-17.495935440063477,58.19481658935547,0.25799766182899475,-32.081661224365234
0,487828,-41.97115707397461,-186.03707885742188,-40.19094467163086,119.248046875
0,487830,-2.4616270065307617,-93.88666534423828,30.782323837280273,57.12185287475586
0,487832,38.99267578125,108.49791717529297,24.342958450317383,-49.25294494628906
0,487834,21.436716079711914,169.2445526123047,-24.54596519470215,-112.72018432617188
0,487836,-36.022884368896484,-34.291282653808594,-8.928390502929688,13.403426170349121
0,487838,-22.53885841369629,-136.47132873535156,1.9822007417678833,90.00547790527344
0,487840,15.178749084472656,-18.871753692626953,9.172755241394043,31.88429069519043
0,487842,15.972677230834961,31.512826919555664,3.3891451358795166,-19.579816818237305
0,487844,20.00288200378418,133.66079711914062,12.758771896362305,-112.26604461669922
0,487846,-16.44728660583496,25.1126766204834,-0.8449723124504089,-31.840856552124023
0,487848,-31.728349685668945,-179.75425720214844,-16.252321243286133,153.58091735839844
0,487850,-7.52189302444458,-78.43511962890625,-24.812244415283203,71.74010467529297
0,487852,20.453582763671875,94.46792602539062,-8.174640655517578,-143.5665740966797
0,488107,29.559762954711914,60.11210632324219,28.599672317504883,-31.877771377563477
0,488108,-9.804681777954102,-43.517852783203125,-8.085498809814453,100.24343872070312
0,488111,1.8995976448059082,19.819292068481445,-44.42829132080078,-89.55957794189453
0,488112,23.479522705078125,64.67090606689453,7.197565078735352,-72.65504455566406
0,488115,-4.466829299926758,62.171592712402344,88.38488006591797,66.39774322509766
0,488116,-33.238033294677734,-3.363048791885376,34.259037017822266,32.56205368041992
0,575467,-13.186071395874023,-86.8721694946289,-47.60111618041992,33.69144058227539
0,575470,14.606467247009277,-68.0217514038086,-12.96435546875,70.18265533447266
0,575471,-10.714031219482422,-72.2484359741211,-10.874160766601562,29.33537483215332
0,575474,-6.840714931488037,-4.70403528213501,-4.869006156921387,-40.93669891357422
0,575475,7.884949207305908,78.96139526367188,9.819300651550293,-73.06295776367188
0,575478,12.98462200164795,46.25343704223633,-25.293447494506836,-26.641515731811523
0,575479,8.854317665100098,-13.180922508239746,-12.705941200256348,13.668097496032715
0,575482,-3.7169084548950195,19.45499038696289,21.39697265625,-15.91970157623291
0,575483,6.327715873718262,72.76042938232422,20.386219024658203,-22.66510009765625
0,575486,-6.281425952911377,-2.939026117324829,2.254282236099243,-17.408103942871094
0,575487,-26.726354598999023,-92.79562377929688,-20.622365951538086,44.217742919921875
0,575490,6.162271976470947,-67.64559936523438,-8.995879173278809,57.539974212646484
0,575491,16.14320945739746,13.675749778747559,1.7440145015716553,7.743765830993652
0,575494,-5.018373966217041,55.043785095214844,20.67633056640625,1.1187124252319336
0,575495,-2.496471405029297,8.30229377746582,25.081483840942383,-21.470876693725586
0,575498,-2.52742075920105,-27.65277862548828,-32.91513442993164,-40.431434631347656
0,575499,15.44797420501709,26.898426055908203,-41.59871292114258,-22.284852981567383
0,575502,22.847867965698242,28.852380752563477,21.639251708984375,9.273844718933105
0,575503,-1.2947031259536743,18.0582275390625,46.25398635864258,13.458478927612305
0,575506,-27.381662368774414,7.922715187072754,13.755958557128906,-5.20711612701416
0,575507,-11.140782356262207,-65.92141723632812,-16.442649841308594,11.407712936401367
0,575510,-4.511722087860107,-64.42326354980469,-39.43484115600586,49.01373291015625
0,575511,-2.488288164138794,6.6755690574646,4.904079437255859,12.849272727966309
0,575514,22.37666893005371,75.09730529785156,42.08637619018555,-32.56422424316406
0,575515,-6.061238765716553,34.98056411743164,-1.570600152015686,-55.615726470947266
0,575518,-8.461277961730957,-52.42391586303711,-44.45130157470703,13.626147270202637
0,575519,6.189208984375,-21.08684730529785,-35.41655349731445,59.35813903808594
0,575522,6.352565765380859,27.35433578491211,39.273136138916016,-46.71186065673828
0,575523,15.31119441986084,38.98204803466797,48.204986572265625,-25.182437896728516
0,575526,-25.476167678833008,7.343038558959961,-24.16448402404785,26.169809341430664
0,575527,-21.53512954711914,-59.312461853027344,-29.772308349609375,3.553572177886963
0,575530,27.401466369628906,-2.1888253688812256,19.349336624145508,22.47271156311035
0,575531,8.776649475097656,15.695594787597656,16.966238021850586,12.132096290588379
0,575534,-5.65536642074585,-23.40509605407715,-5.504778861999512,10.106932640075684
0,575535,-3.563840627670288,45.05995559692383,1.1558706760406494,-13.589418411254883
0,575538,12.740519523620605,-22.681875228881836,-18.812915802001953,-43.89982223510742
0,575539,13.063512802124023,-46.79109573364258,-34.814762115478516,15.515700340270996
0,575542,-20.42416000366211,64.2918930053711,13.779394149780273,14.242938041687012
0,575543,2.3212690353393555,42.078067779541016,61.096435546875,-22.00722885131836
0,575546,14.989603996276855,-34.84043502807617,-3.929640054702759,-3.0932412147521973
0,575547,-22.45612335205078,-30.513612747192383,-46.49005889892578,-17.25177764892578
0,575550,-13.63420581817627,-8.056288719177246,1.7617417573928833,23.207412719726562
0,575551,15.130934715270996,-13.611105918884277,2.274062395095825,70.65779113769531
0,575554,-0.8347031474113464,44.13327407836914,22.06903839111328,-32.7416877746582
0,575555,-2.933424949645996,29.91324806213379,16.893606185913086,-68.82147979736328
0,575558,-10.28980541229248,-60.010372161865234,-32.293704986572266,34.355037689208984
0,575559,-17.290401458740234,-50.61629104614258,-27.73069190979004,27.685379028320312
0,575562,15.036561965942383,24.856233596801758,2.1298649311065674,-1.5339782238006592
0,575563,37.774009704589844,82.31535339355469,62.72532653808594,8.482376098632812
0,575566,-1.9820826053619385,29.29485321044922,35.902793884277344,-43.026912689208984
0,575567,-33.51399612426758,-59.29015350341797,-76.6957778930664,-34.64649963378906
0,575570,4.306497573852539,-56.657073974609375,-53.9228515625,11.082596778869629
0,575572,13.221144676208496,11.74339485168457,36.23655700683594,36.27311325073242
0,575574,6.7194623947143555,73.64705657958984,53.47102737426758,19.975879669189453
0,575576,-1.92731773853302,7.988007545471191,22.066617965698242,-12.607386589050293
0,575579,-12.924880027770996,-68.72262573242188,-55.8802490234375,-5.422568321228027
0,575580,-3.8705692291259766,-16.829448699951172,-50.33964920043945,-16.40518569946289
0,575581,7.939062118530273,25.28363609313965,31.640413284301758,-10.940714836120605
0,575584,34.825191497802734,40.20217514038086,61.25495147705078,21.13806915283203
0,575585,-7.5272064208984375,16.291290283203125,0.8974272608757019,7.825632572174072
0,575588,-45.18708801269531,-35.78668212890625,-57.85538101196289,4.548547267913818
0,575589,12.752466201782227,-38.80534744262695,16.2587947845459,30.46729850769043
0,575592,16.634849548339844,-3.2337453365325928,16.630203247070312,2.6809005737304688
0,575593,-0.020268576219677925,41.256507873535156,-1.218375325202942,-47.76953887939453
0,575596,-3.942002773284912,30.098587036132812,19.268766403198242,-37.96412658691406
0,575597,-12.079645156860352,-5.041008472442627,-23.07282829284668,30.896984100341797
0,575600,-7.331213474273682,-35.624759674072266,-27.531673431396484,36.50569534301758
0,575601,-1.2554638385772705,-33.30655288696289,-17.607213973999023,-3.4684345722198486
0,575604,9.982125282287598,48.89350891113281,53.478336334228516,0.04735768958926201
0,575605,-12.658982276916504,32.82016372680664,42.65961837768555,-7.936373710632324
0,575608,-11.274048805236816,-61.27568817138672,-77.7732925415039,-46.277828216552734
0,575609,22.193408966064453,-25.24680519104004,-37.678009033203125,9.103116989135742
0,575612,29.3907413482666,23.831388473510742,40.3718376159668,75.76553344726562
0,575613,2.7836453914642334,44.809974670410156,36.80893325805664,-13.503594398498535
0,575616,-38.47554397583008,7.9656147956848145,12.04958724975586,-46.8787727355957
0,575617,-12.388051986694336,-49.44159698486328,-32.95528030395508,-2.6669580936431885
0,575620,41.21609115600586,-31.055315017700195,-48.10336685180664,-1.8488895893096924
0,575621,-4.734043121337891,4.4651007652282715,10.386868476867676,15.467733383178711
0,575624,-23.763683319091797,86.73607635498047,82.20344543457031,13.937305450439453
0,575625,8.96108627319336,34.73368453979492,10.372406959533691,-20.951766967773438
0,575628,3.336418867111206,-92.3359375,-74.42062377929688,-9.001952171325684
0,575629,-9.20413875579834,-42.069095611572266,-23.388675689697266,22.241092681884766
0,575632,-0.16637223958969116,43.813018798828125,51.490352630615234,11.568115234375
0,575633,23.285547256469727,41.300601959228516,49.867645263671875,-8.147871017456055
0,575636,-13.518327713012695,-14.845398902893066,-34.61518859863281,-26.057111740112305
0,575637,-13.760061264038086,-19.264707565307617,-32.383731842041016,-10.998653411865234
0,575640,22.7938232421875,-15.746260643005371,-2.115828037261963,31.902326583862305
0,575641,2.890610933303833,-18.1419734954834,-26.53548812866211,17.7161922454834
0,575644,-7.060589790344238,48.77346420288086,36.5048828125,-16.820398330688477
0,575645,1.181714653968811,39.76237487792969,50.29156494140625,-20.42264175415039
0,575648,3.8779289722442627,-41.03803253173828,-44.00816345214844,-21.557140350341797
0,575649,-11.930461883544922,-47.27149963378906,-47.07948684692383,29.547651290893555
0,575652,-7.5435028076171875,23.373525619506836,36.8511848449707,41.023353576660156
0,575653,18.55767822265625,49.2382926940918,44.35694885253906,-7.816256046295166
0,575656,-16.749425888061523,-21.745214462280273,-34.603641510009766,-38.8868293762207
0,575657,-19.0848445892334,-27.683597564697266,-12.833242416381836,-5.019289016723633
0,575660,50.39271926879883,22.860578536987305,30.612823486328125,59.75283432006836
0,575661,5.347725868225098,-8.984301567077637,-41.657894134521484,-40.338966369628906
0,575664,-41.522430419921875,9.260334968566895,12.528948783874512,-32.56052017211914
0,575665,0.17477503418922424,14.52949047088623,43.1753044128418,37.02597427368164
0,575668,-9.049559593200684,-46.82065963745117,-53.97012710571289,-5.114320755004883
0,575669,15.140145301818848,-18.533485412597656,-15.52398681640625,26.34881591796875
0,575672,13.858466148376465,34.10029983520508,19.724367141723633,-20.571439743041992
0,575673,-18.39902687072754,34.852352142333984,35.959983825683594,-9.719677925109863
0,575676,-2.5536317825317383,-15.97001838684082,5.570640563964844,45.4166145324707
0,575678,3.8583905696868896,-32.45652770996094,-53.69287872314453,-27.767230987548828
0,575680,19.145973205566406,-13.178141593933105,-1.544628620147705,-37.33967590332031
0,575682,-2.5136003494262695,12.247171401977539,13.309758186340332,13.03061294555664
0,575684,-10.640403747558594,51.71263122558594,36.49165344238281,23.019969940185547
0,575686,15.669076919555664,8.500779151916504,22.51386070251465,7.08811092376709
0,575688,0.7472519874572754,-34.20803451538086,-43.39366149902344,-27.850543975830078
0,575690,-17.028703689575195,-24.748876571655273,-34.19940185546875,-14.643888473510742
0,575692,-0.08873160183429718,6.131875514984131,11.439727783203125,11.24715805053711
0,575694,4.920618534088135,40.511451721191406,50.99054718017578,11.900245666503906
0,575696,-14.914996147155762,-15.858068466186523,-18.79063606262207,10.758216857910156
0,575698,0.40874427556991577,-31.06418228149414,-35.15114974975586,-17.02153778076172
0,575700,13.779467582702637,6.982728958129883,26.837039947509766,17.037940979003906
0,575702,-11.342596054077148,7.578821182250977,12.074434280395508,13.724255561828613
0,575704,0.42303064465522766,22.142047882080078,17.796993255615234,-31.75530433654785
0,575706,15.613534927368164,7.319451332092285,0.4174588620662689,-4.945277690887451
0,575708,-9.777547836303711,-30.34508514404297,-53.91098403930664,-7.094085693359375
0,575710,1.1347002983093262,-22.903926849365234,-21.942148208618164,-3.1331679821014404
0,575712,20.65089988708496,42.6681022644043,40.20791244506836,16.251527786254883
0,575714,-8.290034294128418,29.841819763183594,30.725053787231445,8.546086311340332
0,575716,-38.84669494628906,-41.99462127685547,-25.62067985534668,-3.8998935222625732
0,575718,8.205010414123535,-5.4890923500061035,-35.25135803222656,-3.009597063064575
0,575720,46.58305358886719,-0.4627304971218109,3.9907925128936768,15.958175659179688
0,575722,-18.163270950317383,-20.809539794921875,16.075117111206055,-2.1776273250579834
0,575724,-30.14073944091797,54.158302307128906,48.311988830566406,-18.619905471801758
0,575726,30.94573211669922,12.12202262878418,21.890222549438477,-9.843330383300781
0,575728,-0.4608427882194519,-67.78449249267578,-67.57426452636719,19.35480499267578
0,575730,-24.534156799316406,-23.78343391418457,-37.865386962890625,29.913076400756836
0,575732,28.64697265625,23.37225341796875,37.58091735839844,-9.789080619812012
0,575734,2.9870784282684326,52.749046325683594,54.9100456237793,-18.202852249145508
0,575736,-27.206510543823242,8.367563247680664,-5.267997741699219,-20.724178314208984
0,575738,21.26064109802246,-40.17532730102539,-51.96867752075195,-4.495896339416504
0,575740,14.729233741760254,-12.877674102783203,-5.082072734832764,43.157169342041016
0,575742,-19.450321197509766,4.263614654541016,19.846881866455078,19.506614685058594
0,575744,7.619019508361816,25.32010269165039,15.303570747375488,-37.69847106933594
0,575746,-17.790273666381836,27.965763092041016,-2.504776954650879,-34.68787384033203
0,575748,-33.950767517089844,-23.862857818603516,-33.95570373535156,21.60748863220215
0,575750,32.935646057128906,-28.495819091796875,-11.282818794250488,22.56932830810547
0,575752,28.95509910583496,-1.0102479457855225,24.616653442382812,-31.23800277709961
0,575754,-19.872520446777344,8.1854829788208,31.28662872314453,9.135130882263184
0,575756,-16.011581420898438,11.992877960205078,-4.727567672729492,22.90592384338379
0,575758,-1.518053412437439,2.4308583736419678,-32.608970642089844,-32.81475830078125
0,575760,7.825630187988281,-33.01860427856445,-20.904565811157227,9.660382270812988
0,575762,10.293672561645508,4.923079967498779,-0.3325783312320709,49.89848327636719
0,575764,3.1089389324188232,63.505088806152344,61.53676223754883,-22.28026008605957
0,575766,5.161279201507568,-31.332807540893555,26.190898895263672,-62.71399688720703
0,575768,-12.24617862701416,-43.28453063964844,-57.83430862426758,24.046424865722656
0,575770,-3.6979613304138184,13.029010772705078,-32.19805145263672,52.78569030761719
0,575772,24.23217010498047,30.120119094848633,44.085994720458984,-5.635590076446533
0,575774,2.189603567123413,34.085933685302734,46.59054183959961,-16.54268455505371
0,575776,-28.335390090942383,-40.65728759765625,-40.11052322387695,-15.207423210144043
0,575778,-25.506290435791016,-31.875385284423828,-40.17063903808594,-13.666194915771484
0,575780,24.2304630279541,18.441349029541016,4.686729907989502,16.119569778442383
0,575782,33.222408294677734,7.1006550788879395,8.94975471496582,17.092350006103516
0,575784,-12.092633247375488,34.01986312866211,36.76737594604492,-9.819402694702148
0,575786,-18.21586036682129,11.05158519744873,3.5840818881988525,-10.400035858154297
0,575788,0.30425330996513367,-59.01654052734375,-69.25849151611328,10.254738807678223
0,575790,6.5282111167907715,-15.250923156738281,-3.7538981437683105,18.67958641052246
0,575791,-3.711306095123291,6.514927864074707,50.06290054321289,6.903967380523682
0,575794,5.579528331756592,14.495841979980469,31.505374908447266,-42.95591735839844
0,575795,-7.049164772033691,54.1893424987793,8.23462200164795,-47.87200164794922
0,575798,-15.875897407531738,-28.562185287475586,-62.148780822753906,61.71586608886719
0,575799,22.59069061279297,-59.80702209472656,-35.07261276245117,37.17732620239258
0,575802,5.495442867279053,29.387008666992188,48.09906005859375,-35.264366149902344
0,575803,-22.67099952697754,46.011627197265625,45.699161529541016,19.612241744995117
0,575806,-2.3374547958374023,-13.486726760864258,-23.206809997558594,-18.698339462280273
0,575807,20.247594833374023,-45.51436996459961,-57.014915466308594,-38.145633697509766
0,575810,-4.750625133514404,-16.519853591918945,0.41711223125457764,35.56737518310547
0,575811,-6.028991222381592,17.452802658081055,24.30514144897461,34.99966812133789
0,575814,27.78683090209961,49.30506896972656,21.535526275634766,-12.74038314819336
0,575815,-21.073726654052734,40.37046813964844,30.928482055664062,-26.55017852783203
0,575818,-20.66781234741211,-42.943023681640625,-25.379682540893555,-4.039567470550537
0,575819,40.02641677856445,-65.82730865478516,-63.7361946105957,-2.6266417503356934
0,575822,14.439666748046875,26.394010543823242,33.6006965637207,18.39975357055664
0,575824,-26.64649772644043,57.59450912475586,73.3753890991211,10.051830291748047
0,575825,-19.236862182617188,-14.643186569213867,-25.348800659179688,-40.82969665527344
0,575828,8.488910675048828,-31.999820709228516,-39.315269470214844,2.174797296524048
0,575829,0.6212868690490723,-7.127912998199463,-9.959611892700195,36.25091552734375
0,575832,-4.879031658172607,13.350983619689941,4.65287971496582,2.793658494949341
0,575833,15.356193542480469,42.60184097290039,54.314613342285156,-3.910334587097168
0,575836,1.411913514137268,-5.636871814727783,-3.152141571044922,-32.79465103149414
0,575837,-16.950408935546875,-56.657196044921875,-58.26416015625,-30.470518112182617
0,575840,-6.720279693603516,-24.130451202392578,-14.612547874450684,40.62919998168945
0,575841,16.929349899291992,12.25788402557373,-7.464005470275879,46.2768440246582
0,575844,4.16706657409668,60.538291931152344,60.23856735229492,-18.37026596069336
0,575845,-11.56769847869873,30.25764274597168,35.319156646728516,-26.559003829956055
0,575848,6.706848621368408,-39.62023162841797,-62.242130279541016,7.475882530212402
0,575849,0.7109218239784241,-33.5719108581543,-21.089004516601562,-5.658568859100342
0,575852,-3.691676139831543,-2.110241413116455,11.40155029296875,23.534698486328125
0,575853,22.827871322631836,31.19027328491211,44.538570404052734,17.048175811767578
0,575856,-15.43026065826416,10.554698944091797,-0.5190480947494507,-43.15083312988281
0,575857,-37.470760345458984,-18.459083557128906,-62.629859924316406,-8.270559310913086
0,575860,30.9153995513916,-17.74552345275879,12.50340747833252,42.669105529785156
0,575861,24.325664520263672,-12.274036407470703,41.73146438598633,10.055413246154785
0,575864,-15.402303695678711,44.20256042480469,20.729150772094727,-68.43385314941406
0,575865,-20.76869010925293,21.258203506469727,-19.960071563720703,-38.249961853027344
0,575868,-17.177852630615234,-65.57205200195312,-64.99809265136719,39.74543380737305
0,575869,17.427278518676758,-28.163105010986328,3.8721156120300293,30.744142532348633
0,575872,37.89668655395508,46.18679428100586,58.107383728027344,42.771278381347656
0,575873,4.514501571655273,41.74101638793945,23.8348388671875,23.715045928955078
0,575876,-46.70431900024414,-18.140155792236328,-17.00275230407715,-65.11344146728516
0,575877,-19.249832153320312,-25.016128540039062,-29.590206146240234,-60.63584899902344
0,575880,36.68867492675781,-10.764254570007324,-16.440702438354492,47.26193618774414
0,575881,8.975467681884766,-23.382434844970703,-3.710165023803711,65.46757507324219
0,575884,-3.248434066772461,44.288673400878906,49.685150146484375,-18.700725555419922
0,575885,-2.1038222312927246,49.89753723144531,32.2266845703125,-55.97779846191406
0,575888,-23.404325485229492,-41.2030029296875,-61.023033142089844,-7.543307304382324
0,575889,4.810115814208984,-44.37101364135742,-54.32762908935547,35.961219787597656
0,575892,38.12091064453125,30.76629638671875,63.18708801269531,-12.840524673461914
0,575893,9.8267183303833,55.06837463378906,80.5478286743164,-8.18897533416748
0,575896,-40.07637405395508,-14.17031192779541,-77.52278137207031,9.353331565856934
0,575897,-23.002140045166016,-31.97418975830078,-40.5498046875,-18.018512725830078
0,575900,35.03807830810547,-19.0535831451416,83.66303253173828,28.950855255126953
0,575901,25.651885986328125,-13.368809700012207,-12.58410930633545,26.103445053100586
0,575904,-34.337059020996094,26.809162139892578,-42.902565002441406,-28.094512939453125
0,575905,-13.050261497497559,14.566140174865723,17.234230041503906,-10.438390731811523
0,575908,13.467287063598633,-34.49944305419922,-29.98479652404785,-26.895034790039062
0,575909,-6.5040602684021,-25.603811264038086,-23.045074462890625,17.433837890625
0,575912,7.362861156463623,33.3157844543457,38.579856872558594,69.8083267211914
0,575913,10.932938575744629,48.36838150024414,25.315771102905273,-27.499820709228516
0,575916,-4.400697708129883,-24.19701385498047,-9.661293029785156,-31.625883102416992
0,575917,-12.378498077392578,-22.773448944091797,-24.4588623046875,-2.0672824382781982
0,575920,-8.06750202178955,-12.132427215576172,-20.862092971801758,30.806018829345703
0,575921,12.844696044921875,-28.267547607421875,-2.375070810317993,38.525291442871094
0,575924,12.420625686645508,74.94459533691406,52.49348831176758,-80.7862777709961
0,575925,-3.4073987007141113,54.70353698730469,30.489042282104492,-29.102577209472656
0,575928,-10.216808319091797,-68.20453643798828,-52.855220794677734,49.18600845336914
0,575929,-0.3400447368621826,-52.316646575927734,-32.9093132019043,-3.877415657043457
0,575932,15.50246524810791,36.65724563598633,38.658775329589844,8.551286697387695
0,575933,3.1142773628234863,32.101131439208984,58.446773529052734,-10.614797592163086
0,575936,-16.676801681518555,-5.598464488983154,-19.123353958129883,-39.907474517822266
0,575937,-2.854097366333008,-12.799774169921875,-59.14697265625,1.1907023191452026
0,575940,14.73129940032959,-38.18219757080078,-4.4903788566589355,39.99062728881836
0,575941,8.645647048950195,15.650076866149902,6.392570495605469,41.437156677246094
0,575944,-11.15658950805664,53.37434768676758,48.81389617919922,-6.643588542938232
0,575945,-11.041668891906738,-7.054107666015625,35.55059051513672,-33.57110595703125
0,575948,-5.429743766784668,-50.599815368652344,-89.95548248291016,1.0111693143844604
0,575949,-12.466948509216309,-18.750343322753906,-43.36849594116211,4.779105186462402
0,575952,18.03782081604004,53.96926498413086,86.90208435058594,-7.9661712646484375
0,575953,23.367027282714844,34.40691375732422,43.151668548583984,17.509244918823242
0,575956,-15.494573593139648,-44.19807052612305,-59.07670593261719,-14.655218124389648
0,575957,-31.276580810546875,-20.161741256713867,-40.45549774169922,-23.66149139404297
0,575960,-0.10389470309019089,-24.53116226196289,-7.055362701416016,55.87986755371094
0,575961,28.374835968017578,-28.678157806396484,-1.8756921291351318,15.085399627685547
0,575964,26.86400604248047,100.13006591796875,86.08975982666016,-86.3349380493164
0,575965,-14.332624435424805,28.3315372467041,31.90711212158203,-15.109772682189941
0,575968,-28.613611221313477,-103.271484375,-88.52912139892578,73.4205551147461
0,575969,13.175836563110352,-1.256947636604309,-25.662128448486328,30.26813316345215
0,575972,8.067492485046387,48.11402130126953,39.28566360473633,-38.978267669677734
0,575973,0.12244512140750885,22.098642349243164,39.619598388671875,-33.85982131958008
0,575976,-9.724772453308105,-23.37650489807129,-22.761962890625,15.106805801391602
0,575977,-1.3126497268676758,-22.258403778076172,-34.024017333984375,12.022281646728516
0,575980,16.884490966796875,23.504667282104492,18.103031158447266,-8.976550102233887
0,575981,-18.29374122619629,-6.168353080749512,-14.86688232421875,10.697012901306152
0,575984,-14.377930641174316,29.78571319580078,21.789405822753906,8.89282512664795
0,575985,21.468751907348633,21.09321403503418,51.741737365722656,-0.696915328502655
0,575988,9.75758171081543,-69.90715789794922,-54.93804168701172,-6.5041584968566895
0,575989,-6.184134483337402,-32.44396209716797,-37.91252517700195,-17.55170249938965
0,575992,-0.06387464702129364,42.792236328125,27.18804931640625,16.575883865356445
0,575993,-1.7354357242584229,43.673133850097656,24.54313850402832,-4.77640962600708
0,575996,-3.6903278827667236,-3.4881157875061035,17.32881736755371,-26.952903747558594
0,575997,-1.1544867753982544,-28.905977249145508,-26.736339569091797,8.990683555603027
0,576000,-1.8917604684829712,-39.417335510253906,-42.8625373840332,39.25094985961914
0,576001,-9.671829223632812,-12.449223518371582,-14.82633113861084,26.259817123413086
0,576004,21.182661056518555,83.34966278076172,77.1335220336914,-23.838253021240234
0,576005,25.584945678710938,18.79679298400879,49.863739013671875,-38.037269592285156
0,576008,-33.357398986816406,-61.307132720947266,-86.41836547851562,1.9280728101730347
0,576009,-28.070842742919922,-6.28449010848999,-46.02363586425781,7.308492183685303
0,576012,14.71779727935791,6.224011421203613,38.96887969970703,-29.33563995361328
0,576013,13.288989067077637,26.2926082611084,44.61838912963867,14.001651763916016
0,576016,1.1016960144042969,15.718314170837402,-5.740529537200928,23.720590591430664
0,576017,2.90226674079895,-19.941442489624023,-26.189050674438477,3.333071708679199
0,576020,1.003202199935913,-38.640499114990234,-6.795095920562744,14.326678276062012
0,576021,1.39470636844635,-13.923750877380371,-1.9214990139007568,-7.771354675292969
0,576024,6.2723388671875,71.79978942871094,55.16189956665039,-6.350522994995117
0,576025,-1.0403668880462646,19.874574661254883,9.047356605529785,8.37775993347168
0,576028,-14.931131362915039,-61.504573822021484,-72.33218383789062,0.17005489766597748
0,576029,-9.358800888061523,-21.35077667236328,-4.826289176940918,2.577331304550171
0,576032,11.695175170898438,21.07151985168457,31.096792221069336,-6.330571174621582
0,576033,9.420089721679688,35.576454162597656,16.46851921081543,-16.667497634887695
0,576036,1.2272578477859497,3.2484688758850098,4.504086017608643,-0.572001039981842
0,576037,-13.675628662109375,-26.556316375732422,-20.390161514282227,5.235905170440674
0,576040,-12.20140552520752,-47.18552017211914,-28.23046875,-2.7673866748809814
0,576041,25.377460479736328,-21.17314910888672,-13.740986824035645,-17.285396575927734
0,576044,-8.909608840942383,66.60150909423828,42.22333526611328,-18.8399715423584
0,576045,-35.10885238647461,47.332332611083984,16.97152328491211,2.16550874710083
0,576048,11.866008758544922,-45.77827453613281,-67.2768325805664,52.033939361572266
0,576049,31.806913375854492,-61.753047943115234,-3.3768978118896484,38.04832077026367
0,576052,15.632918357849121,54.352481842041016,107.14787292480469,-28.441638946533203
0,576053,-8.410643577575684,52.19186782836914,24.9525146484375,-14.053545951843262
0,576056,-30.260162353515625,-46.08469772338867,-77.95148468017578,-29.58463478088379
0,576057,-10.108787536621094,10.730355262756348,-22.5467586517334,-41.24197769165039
0,576060,34.83741760253906,-7.154472827911377,-8.846158027648926,37.567134857177734
0,576061,12.191100120544434,-35.22815704345703,-5.762004375457764,45.63254165649414
0,576064,-7.761023044586182,64.54080200195312,77.43272399902344,1.060165524482727
0,576065,-5.925379753112793,26.571327209472656,13.38309097290039,-20.878358840942383
0,576068,-14.263163566589355,-85.57598876953125,-97.57415771484375,-26.519987106323242
0,576069,-15.069992065429688,-33.33454513549805,-30.885101318359375,38.600852966308594
0,576072,12.721924781799316,39.410831451416016,54.18292236328125,39.03218078613281
0,576073,50.63874053955078,55.69387435913086,76.8380355834961,-21.433944702148438
0,576076,-20.311017990112305,5.973431587219238,-4.042515754699707,-26.525737762451172
0,576077,-59.4891357421875,-56.39858627319336,-90.42385864257812,-45.51446533203125
0,576080,-4.029473304748535,-23.086496353149414,-24.48469352722168,2.8533337116241455
0,576081,36.21198272705078,4.9216837882995605,38.26420974731445,51.61347579956055
0,576084,32.23625946044922,64.9018325805664,50.23561096191406,15.516798973083496
0,576085,-6.317569732666016,27.317859649658203,15.781026840209961,-24.706707000732422
0,576088,-26.762802124023438,-64.90555572509766,-51.61988830566406,-39.0480842590332
0,576089,-24.10641860961914,-28.06529426574707,-26.89592933654785,6.982083320617676
0,576092,24.650249481201172,40.25228500366211,27.913118362426758,25.387468338012695
0,576093,40.568790435791016,55.108612060546875,38.157772064208984,10.038603782653809
0,576096,-19.101778030395508,-48.49797821044922,-15.748517990112305,-16.85295295715332
0,576097,-39.07905960083008,-52.828765869140625,-35.84511184692383,-21.152820587158203
0,576100,9.53170394897461,-2.3662283420562744,-28.759479522705078,31.79599380493164
0,576101,19.907379150390625,-5.956181526184082,-4.833370208740234,12.303731918334961
0,576104,10.051046371459961,90.17401123046875,128.94070434570312,-16.231353759765625
0,576105,-12.109098434448242,38.70562744140625,15.85625171661377,-10.83740520477295
0,576108,-26.12863540649414,-101.34104919433594,-157.09983825683594,-2.6994662284851074
0,576109,10.459126472473145,-58.37404251098633,-2.3831915855407715,24.45673942565918
0,576112,33.109825134277344,49.52693176269531,89.561767578125,35.08156967163086
0,576113,2.4965522289276123,73.70626068115234,4.140028476715088,-11.583808898925781
0,576116,-30.50337791442871,-7.553014755249023,-37.05059814453125,-24.421598434448242
0,576117,-5.589889049530029,-34.235679626464844,8.71749210357666,4.111310958862305
0,576120,3.174624443054199,-10.25440788269043,36.392417907714844,-6.168657302856445
0,576121,7.813073635101318,2.892305850982666,-11.330770492553711,26.099145889282227
0,576124,-7.577484607696533,32.853721618652344,-20.322837829589844,-58.09736251831055
0,576125,-36.895774841308594,-22.467422485351562,-28.183452606201172,-89.31497192382812
0,576129,27.708707809448242,-36.9014778137207,-30.230255126953125,104.68659973144531
0,576130,35.06253433227539,2.6714394092559814,10.873129844665527,75.82987976074219
0,576132,-18.678192138671875,-10.955540657043457,25.712543487548828,-57.558902740478516
0,576134,22.18058967590332,50.59959030151367,63.84663772583008,-22.69341278076172
0,576136,10.475993156433105,16.51232147216797,15.206122398376465,-6.741080284118652
0,576138,-48.832244873046875,-75.23040008544922,-64.52439880371094,22.538639068603516
0,576140,-13.260171890258789,16.796985626220703,-23.80727195739746,67.41966247558594
0,576142,51.28048324584961,61.3491325378418,39.63397979736328,18.258529663085938
0,576144,18.449302673339844,19.10495948791504,22.972490310668945,-50.38181686401367
0,576146,-43.49992370605469,-7.060104846954346,-20.994070053100586,-54.97062683105469
0,576148,-21.32576560974121,-66.56596374511719,-29.056493759155273,-74.62894439697266
0,576150,19.637683868408203,-35.79841232299805,-12.194029808044434,-23.35738754272461
0,576152,16.14531898498535,50.41130447387695,29.2131290435791,126.22236633300781
0,576154,-2.3403892517089844,57.75046920776367,29.10235023498535,29.292875289916992
0,576156,-8.642930030822754,-11.370706558227539,-36.34817886352539,-150.1427459716797
0,576158,-14.858183860778809,-86.35002899169922,-79.10787963867188,56.77885055541992
0,576160,30.329898834228516,-3.281881809234619,48.804141998291016,181.7720489501953
0,576162,71.83718872070312,84.02954864501953,154.345703125,-61.64873123168945
0,576164,-24.408525466918945,27.762903213500977,-16.568452835083008,-62.8466682434082
0,576166,-135.27728271484375,-21.513010025024414,-130.48748779296875,-41.00562286376953
0,576168,-47.267425537109375,-53.85768127441406,-17.503061294555664,-47.41582107543945
0,576170,62.312278747558594,-24.011070251464844,-0.9191150665283203,151.26043701171875
0,576172,34.708431243896484,32.08473587036133,3.478640079498291,63.78889846801758
0,576174,72.6112060546875,31.013097763061523,53.34099578857422,-90.965576171875
0,576176,37.06452941894531,19.705780029296875,23.0134220123291,-45.775657653808594
0,576178,-112.41534423828125,-62.04890060424805,-34.44393539428711,-32.07516098022461
0,576180,-35.150962829589844,-67.96263122558594,-79.37799835205078,-3.845475435256958
0,576182,87.41031646728516,89.10176086425781,63.78376007080078,39.33132553100586
0,576184,18.552045822143555,69.11245727539062,89.3913803100586,-4.357515335083008
0,576186,-19.221664428710938,-68.73454284667969,-57.40801239013672,4.584048748016357
0,576188,-0.8451587557792664,-48.464569091796875,0.0030819294042885303,54.7750244140625
0,576190,-21.16956329345703,11.655949592590332,19.175373077392578,-32.21474075317383
0,576192,-11.705612182617188,25.12057113647461,-5.863433361053467,-57.78260040283203
0,576194,7.169759273529053,38.124778747558594,-6.804088115692139,16.13768768310547
0,576196,-2.545137882232666,28.074378967285156,-58.644344329833984,17.998952865600586
0,576198,-25.605539321899414,-50.12934494018555,-68.31227111816406,2.797067165374756
0,576200,-13.122706413269043,-47.57685470581055,1.8193861246109009,-0.754846453666687
0,576202,40.513790130615234,71.39395141601562,193.39852905273438,28.858959197998047
0,576204,46.950782775878906,44.727821350097656,91.66910552978516,17.319272994995117
0,576206,-22.708242416381836,-73.60501861572266,-195.76544189453125,-65.50709533691406
0,576208,-33.24519348144531,-54.80283737182617,-96.8975601196289,17.462230682373047
0,576210,2.590116262435913,-0.34309276938438416,68.31192016601562,60.0164794921875
0,576212,-11.472372055053711,34.036075592041016,61.462493896484375,-99.3839340209961
0,576214,16.40616226196289,53.73873519897461,38.13349151611328,-49.86684036254883
0,576216,24.270183563232422,18.607236862182617,-7.837253093719482,71.57167053222656
0,576218,-40.19512939453125,-59.38629150390625,-92.14634704589844,23.45585823059082
0,576220,-40.90409851074219,-70.62373352050781,-48.298828125,5.296019077301025
0,576222,70.83172607421875,41.391788482666016,114.45565795898438,25.438966751098633
0,576224,78.39374542236328,68.85677337646484,105.17786407470703,5.1766743659973145
0,576226,-76.33911895751953,10.86950397491455,-77.35787200927734,-57.497867584228516
0,576228,-86.28253936767578,-34.382320404052734,-152.51280212402344,-14.379773139953613
0,576230,68.22822570800781,-37.27207946777344,48.74995040893555,60.449134826660156
0,576232,81.18391418457031,27.387550354003906,122.49309539794922,4.113539218902588
0,576234,-43.20703125,49.47989273071289,-50.098609924316406,-15.123908996582031
0,576236,-87.76587677001953,-16.6401424407959,-51.28286361694336,-8.027932167053223
0,576238,7.477936744689941,-86.02256774902344,-11.86167049407959,14.301397323608398
0,576240,55.17497253417969,-26.161012649536133,-1.061872959136963,-28.047842025756836
0,576242,10.0181303024292,110.28823852539062,95.82402801513672,-46.368560791015625
0,576244,29.43572998046875,78.48564910888672,73.51665496826172,93.06891632080078
0,576246,-29.549503326416016,-82.25849151611328,-134.7177734375,32.6160888671875
0,576248,-61.34320068359375,-109.59609985351562,-136.9864959716797,-80.56219482421875
0,576250,26.93668556213379,-8.96725082397461,134.2181854248047,32.70085525512695
0,576252,25.364700317382812,71.45263671875,108.15929412841797,-22.08124351501465
0,576254,-8.828259468078613,89.42819213867188,-129.039306640625,-100.370361328125
0,576256,9.366026878356934,10.416186332702637,-27.747175216674805,41.16301727294922
0,576258,5.716874122619629,-102.00640869140625,73.58231353759766,52.95615768432617
0,576260,1.9674580097198486,-51.63653564453125,-44.485694885253906,9.399335861206055
0,576262,-3.449106454849243,81.56925964355469,40.104209899902344,22.56173324584961
0,576264,-45.294639587402344,78.64085388183594,126.88862609863281,17.574012756347656
0,576266,-38.51115417480469,-41.721458435058594,-75.87291717529297,-79.27689361572266
0,576268,-19.947595596313477,-76.3199234008789,-151.95330810546875,-64.91756439208984
0,576270,88.43534851074219,-11.422200202941895,52.656429290771484,74.1398696899414
0,576272,132.26272583007812,50.91514587402344,108.06061553955078,92.75135040283203
0,576274,-67.83456420898438,51.282962799072266,-11.291434288024902,75.17769622802734
0,576276,-113.87251281738281,-83.30533599853516,-87.84232330322266,15.953174591064453
0,576278,25.084115982055664,-77.04698944091797,-89.69126892089844,-123.58821868896484
0,576280,41.17174530029297,45.80052947998047,61.79676818847656,-122.6999282836914
0,576282,3.655449151992798,57.50953674316406,115.9072494506836,23.056373596191406
0,576284,-8.667118072509766,38.15038299560547,-41.68810272216797,42.770301818847656
0,576286,-3.5183234214782715,16.604694366455078,1.7563127279281616,-13.343361854553223
0,576288,20.2514705657959,-15.485152244567871,17.64023780822754,-11.341423034667969
0,576289,-21.030534744262695,-59.077598571777344,-60.373870849609375,54.84426498413086
0,576292,-42.08843994140625,-0.9420270919799805,39.463035583496094,-10.075151443481445
0,576293,26.857173919677734,64.23516082763672,60.328712463378906,-67.17489624023438
0,576296,72.67784881591797,7.649326324462891,72.82279968261719,46.883453369140625
0,576297,-30.745685577392578,-36.93474578857422,-45.040409088134766,-1.2721110582351685
0,576300,-113.19343566894531,-50.171566009521484,-220.55609130859375,-92.67687225341797
0,576303,16.69850730895996,0.7870675921440125,-52.09623718261719,110.2412338256836
0,576303,62.349178314208984,34.57349395751953,67.66250610351562,155.89756774902344
0,576306,-39.963584899902344,-41.38003158569336,80.33330535888672,-80.05227661132812
0,576307,5.327611923217773,-68.04012298583984,32.90799331665039,-17.382526397705078
0,576310,73.91326904296875,37.681453704833984,-70.84205627441406,34.31581497192383
0,576311,15.210896492004395,126.23440551757812,91.6020278930664,-56.17622756958008
0,576314,-49.6873779296875,9.153691291809082,74.43142700195312,-73.81744384765625
0,576315,-13.09288215637207,-60.10640335083008,-92.3242416381836,-41.4593391418457
0,576318,44.568397521972656,9.372766494750977,12.21561336517334,78.90365600585938
0,576319,-47.34274673461914,-31.771711349487305,18.717302322387695,8.961901664733887
0,576322,-6.406688690185547,17.880868911743164,-10.29311752319336,25.7856502532959
0,576323,100.21770477294922,79.5805892944336,30.62979507446289,78.89984893798828
0,576326,-51.50670623779297,-47.0998420715332,-91.33330535888672,-161.33853149414062
0,576327,-95.4037094116211,-60.924949645996094,-70.5759048461914,-154.02920532226562
0,576330,39.838626861572266,1.878502368927002,71.60806274414062,87.30574035644531
0,576331,36.11244583129883,11.069108963012695,29.871273040771484,162.84552001953125
0,576334,-27.053119659423828,47.51035690307617,-2.6904587745666504,57.177879333496094
0,576335,-10.829300880432129,-8.625378608703613,61.881717681884766,-81.57295989990234
0,576338,20.552732467651367,-80.00777435302734,-8.17638111114502,-7.702285289764404
0,576339,25.585752487182617,14.415252685546875,-159.60025024414062,71.20267486572266
0,576342,19.486480712890625,76.116943359375,33.28834533691406,-22.502565383911133
0,576343,-0.8156925439834595,-15.308889389038086,156.2974853515625,-26.228595733642578
0,576346,-31.502676010131836,-42.98661422729492,-22.624000549316406,-76.120361328125
0,576347,-25.725391387939453,6.417166709899902,-23.809009552001953,-67.07597351074219
0,576350,-18.224130630493164,-26.326419830322266,-106.38587188720703,118.72206115722656
0,576351,20.953203201293945,15.313036918640137,-60.66297149658203,75.66030883789062
0,576354,57.4774169921875,86.94357299804688,176.48501586914062,-69.31224822998047
0,576355,-35.692012786865234,-31.471240997314453,116.875,-54.945682525634766
0,576358,-53.43435287475586,-84.02690124511719,-116.9584732055664,2.487548351287842
0,576359,26.10671615600586,16.310487747192383,-217.70697021484375,-5.925609588623047
0,576362,16.54781723022461,43.52206039428711,45.5825080871582,15.126660346984863
0,576363,18.869571685791016,47.335838317871094,210.9797821044922,38.789127349853516
0,576366,39.922203063964844,20.581615447998047,-9.48687744140625,-34.48801803588867
0,576367,-21.326324462890625,-44.66452407836914,-82.91191864013672,-44.53205871582031
0,576370,-48.69127655029297,-21.422866821289062,16.14459228515625,108.62561798095703
0,576371,-6.824223518371582,13.825984001159668,12.937874794006348,94.74353790283203
0,576374,43.287445068359375,26.461511611938477,-12.101323127746582,18.194774627685547
0,576375,18.225013732910156,-18.04289436340332,-63.77080154418945,-4.000782489776611
0,576378,-80.12847900390625,-118.75424194335938,-52.99506378173828,-440.31793212890625
0,576379,-17.331424713134766,-60.305233001708984,57.855201721191406,-145.19610595703125
0,576382,104.08781433105469,143.5504913330078,127.42012023925781,616.0054321289062
0,576383,15.24401569366455,128.96087646484375,41.27579116821289,81.72614288330078
0,576386,-77.350341796875,-67.97483825683594,-55.044715881347656,-322.4364318847656
0,576387,2.3434722423553467,-66.79656982421875,0.42043235898017883,37.014766693115234
0,576390,17.59059715270996,-28.725276947021484,-158.09632873535156,66.27094268798828
0,576391,-16.332231521606445,6.835977554321289,-155.12684631347656,-25.14732551574707
0,576394,30.49954605102539,127.09951782226562,328.8685302734375,-15.066258430480957
0,576395,53.439151763916016,-9.929096221923828,200.5690460205078,-43.038639068603516
0,576398,-52.347450256347656,-147.94732666015625,-304.9143981933594,18.719987869262695
0,576399,-101.02867889404297,6.5496673583984375,-78.84510803222656,48.09531021118164
0,576402,20.725936889648438,71.618408203125,173.28282165527344,38.6386604309082
0,576403,-5.45809268951416,5.977200508117676,-74.29058837890625,-7.752483367919922
0,576406,25.40768051147461,-25.831653594970703,-150.5059814453125,-189.64768981933594
0,576407,156.37454223632812,-27.49398422241211,11.030092239379883,6.5527262687683105
0,576410,-15.260241508483887,-1.2886626720428467,86.23413848876953,247.45770263671875
0,576411,-143.40379333496094,12.60495376586914,94.82634735107422,-17.086214065551758
0,576414,1.1937254667282104,46.937103271484375,44.7922477722168,-138.21328735351562
0,576415,52.986629486083984,35.14628601074219,-4.753000736236572,19.090547561645508
0,576418,8.545162200927734,-35.80002975463867,-66.27314758300781,16.501604080200195
0,576419,2.2132158279418945,-41.442359924316406,-55.16543960571289,-27.452316284179688
0,576422,14.110804557800293,33.540191650390625,88.42447662353516,4.087747573852539
0,576423,-12.986854553222656,53.332679748535156,53.76176834106445,17.347036361694336
0,576426,-43.63527297973633,-51.6207160949707,-82.30206298828125,59.27394104003906
0,576427,8.55012321472168,-59.21515655517578,-53.24948501586914,51.55589294433594
0,576430,23.42313003540039,-7.478233814239502,47.5465087890625,-75.87139129638672
0,576431,3.649717092514038,25.020395278930664,24.43183135986328,-211.6028289794922
0,576434,-40.023826599121094,71.61981201171875,-71.03141784667969,-21.68790626525879
0,576435,3.53275465965271,8.350049018859863,-14.233051300048828,268.8526611328125
0,576438,46.182682037353516,-83.02079010009766,9.33210563659668,80.25357055664062
0,576439,-11.26623821258545,-41.31060028076172,-16.922327041625977,-83.57537841796875
0,576442,-0.07065965980291367,60.19610595703125,68.3214340209961,-27.13389015197754
0,576443,-3.1056227684020996,56.77116012573242,26.845314025878906,-47.65312957763672
0,576446,-9.649206161499023,-11.327093124389648,-13.057602882385254,-33.88612365722656
0,576447,2.355738401412964,-20.49834442138672,28.521102905273438,45.08716583251953
0,576450,-6.7774553298950195,-31.80438232421875,-66.88995361328125,19.618722915649414
0,576451,12.198418617248535,-28.308778762817383,-34.853668212890625,-0.7316704988479614
0,576454,7.247805595397949,54.12004852294922,81.75564575195312,-11.695793151855469
0,576455,-29.799283981323242,43.9063606262207,5.341254234313965,-53.353179931640625
0,576458,13.799843788146973,-41.92008590698242,-60.91670608520508,35.652435302734375
0,576459,23.24454689025879,-45.154109954833984,-23.64413070678711,11.500795364379883
0,576462,-16.362585067749023,40.516658782958984,48.726715087890625,-45.46179962158203
0,576463,-1.5887572765350342,56.138545989990234,35.49522399902344,26.193248748779297
0,576466,-13.083209991455078,-59.7589111328125,-14.962987899780273,22.41111946105957
0,576467,-3.8818488121032715,-53.08979797363281,48.411190032958984,0.1384274661540985
0,576470,11.009175300598145,6.636260509490967,-92.62832641601562,54.825927734375
0,576471,-18.366939544677734,3.4375646114349365,-214.55514526367188,-9.79765796661377
0,576474,22.94450569152832,87.55974578857422,182.9856414794922,-65.38909149169922
0,576476,33.78301239013672,31.83525276184082,222.64285278320312,7.143332481384277
0,576478,-33.19890213012695,-91.1059341430664,-152.78297424316406,39.895660400390625
0,576480,-21.36164665222168,-27.930879592895508,-86.3227310180664,-34.26049041748047
0,576482,21.73784828186035,35.293697357177734,50.30256652832031,-48.87729263305664
0,576484,10.04314136505127,25.808937072753906,43.33320999145508,57.51774215698242
0,576486,-7.575392723083496,-6.07121467590332,15.504252433776855,5.281844139099121
0,576488,2.2951114177703857,-25.096790313720703,2.813621997833252,-62.4259033203125
0,576491,-21.57517433166504,-21.92523956298828,-41.727508544921875,2.5066261291503906
0,576492,3.825450897216797,58.12704086303711,-32.08411407470703,45.80504608154297
0,576494,19.557222366333008,51.52809143066406,109.03540802001953,20.460582733154297
0,576496,-17.740665435791016,-79.5553970336914,-27.77265739440918,-13.34316635131836
0,576498,-6.127635955810547,-62.608524322509766,-133.06227111816406,14.24297046661377
0,576500,1.0450550317764282,8.005439758300781,22.361988067626953,28.174806594848633
0,576502,45.569087982177734,31.6954345703125,62.5810546875,-7.4442057609558105
0,576504,8.720865249633789,68.2376937866211,34.36801528930664,-11.453068733215332
0,576506,-54.74440383911133,14.500861167907715,-10.734823226928711,4.564115047454834
0,576508,-0.7553960084915161,-87.26404571533203,-47.025970458984375,-38.53080368041992
0,576510,-0.3056837022304535,-28.000329971313477,-2.380734443664551,-55.92471694946289
0,576512,0.3214528560638428,71.04472351074219,48.93195343017578,42.17675018310547
0,576514,33.35542297363281,37.27497863769531,10.270049095153809,55.956233978271484
0,576516,-1.5744909048080444,-38.10542297363281,-40.55483627319336,-13.061507225036621
0,576518,-36.90460968017578,-45.98167037963867,-36.37974166870117,-64.20851135253906
0,576520,-14.64122486114502,-7.593019962310791,-14.836523056030273,-10.426681518554688
0,576522,42.86023712158203,19.028671264648438,47.72054672241211,107.19998168945312
0,576524,37.56340026855469,63.161277770996094,63.85179901123047,-21.71458625793457
0,576526,-30.001684188842773,16.75011444091797,-21.031238555908203,-88.9773941040039
0,576528,-31.302526473999023,-61.23638153076172,-56.043479919433594,28.440719604492188
0,576530,12.759195327758789,-27.56352424621582,-16.78952980041504,69.17798614501953
0,576532,8.429903984069824,39.00452423095703,45.345848083496094,17.514728546142578
0,576534,-3.038747787475586,61.02227783203125,61.76276397705078,-45.29887008666992
0,576536,-7.115785598754883,-46.50255584716797,-54.32771682739258,-28.62515640258789
0,576538,-7.649526596069336,-80.33972930908203,-70.9541015625,-11.481958389282227
0,576540,26.126346588134766,18.064048767089844,28.368240356445312,23.150897979736328
0,576542,5.124147891998291,37.874229431152344,28.583860397338867,35.579063415527344
0,576544,-25.50446128845215,40.47190856933594,25.228710174560547,-65.86209869384766
0,576546,-2.7416861057281494,-10.87880802154541,2.282439708709717,-44.5235595703125
0,576548,22.280029296875,-63.64636993408203,-49.14781951904297,98.63285064697266
0,576550,11.611672401428223,-24.062496185302734,-8.245550155639648,49.113956451416016
0,576552,-21.30066680908203,48.29765319824219,52.5419921875,-58.088096618652344
0,576554,-6.166285991668701,82.28845977783203,37.26377868652344,-40.87403106689453
0,576556,9.901223182678223,-23.171051025390625,-43.57831954956055,34.447933197021484
0,576558,-18.64283561706543,-71.90969848632812,-46.360992431640625,40.542335510253906
0,576560,1.0855215787887573,-19.694835662841797,-5.096114635467529,-30.37413787841797
0,576562,35.82260513305664,20.657392501831055,13.244648933410645,-22.14596939086914
0,576564,-27.9779052734375,62.55902099609375,43.91288375854492,8.509947776794434
0,576566,-33.01126480102539,7.109908580780029,3.3029799461364746,-20.90321159362793
0,576568,35.93592834472656,-55.593509674072266,-48.48841857910156,26.171276092529297
0,576570,24.16345977783203,-34.14628219604492,-18.35171127319336,50.455387115478516
0,576572,-10.327840805053711,21.630218505859375,46.87766647338867,-69.41181182861328
0,576574,-26.907188415527344,49.29294204711914,47.29301071166992,-46.473384857177734
0,576576,-10.399863243103027,-25.20871925354004,-35.68195724487305,51.03923416137695
0,576578,17.087627410888672,-42.83298110961914,-47.72017288208008,1.532323956489563
0,576580,2.37825608253479,15.526491165161133,12.237776756286621,15.545415878295898
0,576582,0.9117937684059143,40.55634689331055,30.999374389648438,39.593692779541016
0,576584,16.572246551513672,26.40736961364746,26.897729873657227,-13.8683500289917
0,576586,-1.0042469501495361,-23.54202651977539,-24.573556900024414,-38.93464660644531
0,576588,-18.84959602355957,-37.27688980102539,-40.95735549926758,-96.8918228149414
0,576590,-2.0544397830963135,-15.847346305847168,8.829025268554688,13.73066520690918
0,576592,25.04734230041504,40.92536544799805,21.88210678100586,150.69773864746094
0,576594,4.514558792114258,57.59031295776367,21.411100387573242,-6.177722930908203
0,576596,-26.749759674072266,-32.56612014770508,-20.930858612060547,-77.98628997802734
0,576598,-13.676050186157227,-62.3739013671875,-45.03651809692383,-4.042726039886475
0,576600,14.902944564819336,-6.966402053833008,0.28691187500953674,14.468836784362793
0,576602,27.35416030883789,38.1651496887207,30.068321228027344,26.965599060058594
0,576604,-19.669883728027344,56.978572845458984,52.139251708984375,17.325458526611328
0,576606,-32.30928421020508,-3.95815110206604,-9.067445755004883,0.011216312646865845
0,576608,19.41008186340332,-65.3725357055664,-62.5712890625,1.6666666269302368
0,576610,16.076025009155273,-59.98165512084961,3.7515690326690674,22.937213897705078
0,576612,-1.1698824167251587,44.17953109741211,49.400611877441406,-31.986745834350586
0,576614,-14.544454574584961,74.65968322753906,14.66108512878418,-80.97842407226562
0,576616,5.672875881195068,-44.79857635498047,-38.35828399658203,12.142448425292969
0,576618,39.34625244140625,-38.00813293457031,-23.44499397277832,-5.770187854766846
0,576620,-24.35490608215332,-10.070305824279785,-11.150447845458984,-31.1285400390625
0,576622,-43.0040168762207,15.584192276000977,20.397476196289062,37.87936782836914
0,576624,38.707496643066406,87.90740203857422,45.740753173828125,77.54583740234375
0,576626,34.20060348510742,25.34745216369629,-17.965635299682617,61.322513580322266
0,576628,-52.83019256591797,-100.11723327636719,-24.616453170776367,-127.62970733642578
0,576630,-19.588605880737305,-40.18059158325195,3.002788782119751,-41.703643798828125
0,576632,55.044979095458984,87.03585815429688,13.927593231201172,135.18942260742188
0,576634,-3.7372076511383057,14.788139343261719,6.321300983428955,-9.62893295288086
0,576636,-36.55946731567383,-37.9592170715332,-15.600261688232422,-28.145652770996094
0,576638,10.712467193603516,6.884379863739014,8.467538833618164,16.294437408447266
0,576640,22.415271759033203,-26.692007064819336,5.571578025817871,-19.371965408325195
0,576642,-13.004777908325195,-19.900835037231445,-3.6961262226104736,3.2665305137634277
0,576644,-28.138578414916992,42.48784637451172,16.804065704345703,-22.940303802490234
0,576646,9.886068344116211,14.463902473449707,-11.427886962890625,-59.361793518066406
0,576648,20.93221664428711,-31.506879806518555,-39.2487907409668,-8.952619552612305
0,576650,-12.466081619262695,-53.88800048828125,-37.000518798828125,4.638634204864502
0,576652,-10.506193161010742,37.55345916748047,47.130531311035156,54.28365707397461
0,576654,24.02602195739746,107.97949981689453,84.55699920654297,100.00387573242188
0,576656,-6.219508171081543,-59.631866455078125,-51.76167297363281,-71.01034545898438
0,576658,-14.963857650756836,-79.96406555175781,-56.362640380859375,-73.5886001586914
0,576660,33.96466064453125,30.848173141479492,18.32740020751953,77.378662109375
0,576662,5.157712936401367,26.30223274230957,17.20602798461914,-48.74385070800781
0,576664,-30.932600021362305,44.08926773071289,44.065547943115234,-13.746245384216309
0,576666,-4.136256694793701,-12.408991813659668,-14.229292869567871,85.9722671508789
0,576668,11.10912036895752,-68.53389739990234,-57.865257263183594,-13.813475608825684
0,576670,1.6301548480987549,-5.757608413696289,-1.9112883806228638,-11.992350578308105
0,576671,7.197113990783691,31.458993911743164,22.202213287353516,-16.667648315429688
0,576674,10.099207878112793,44.56847381591797,49.82793045043945,31.63463592529297
0,576675,-26.40218734741211,-1.811190128326416,-1.5411819219589233,-64.43954467773438
0,576678,-19.80946922302246,-44.57673645019531,-57.352439880371094,-151.37872314453125
0,576679,33.30556869506836,-5.450531959533691,-4.289948463439941,132.5543975830078
0,576682,18.012943267822266,38.03482437133789,44.990535736083984,167.3561248779297
0,576683,-26.322681427001953,33.123748779296875,24.445384979248047,-62.94004821777344
0,576686,-1.8502036333084106,-40.91550064086914,-31.3338565826416,-87.94511413574219
0,576687,14.180103302001953,-57.19469451904297,-22.41050910949707,2.4221835136413574
0,576690,-23.254941940307617,2.0741031169891357,-20.51618194580078,-12.793289184570312
0,576693,-3.687703847885132,49.4670524597168,19.407005310058594,-2.138345718383789
0,576693,25.516267776489258,59.60387420654297,71.74502563476562,91.02980041503906
0,576696,-6.111947059631348,-32.79274368286133,-30.37960433959961,17.969879150390625
0,576697,-23.957698822021484,-74.2256851196289,-67.76409912109375,-32.427371978759766
0,576700,6.609476566314697,-18.8279972076416,-2.8131444454193115,-40.13181686401367
0,576701,5.5231218338012695,11.782573699951172,10.39863395690918,-78.45828247070312
0,576704,1.0490269660949707,78.25161743164062,41.451416015625,51.96434783935547
0,576705,28.077980041503906,29.58097267150879,8.636590003967285,54.87504959106445
0,576708,-22.93603515625,-84.52743530273438,-45.96194839477539,-56.44643783569336
0,576709,-14.857399940490723,-31.762508392333984,0.20167432725429535,15.60218620300293
0,576712,53.35127258300781,67.48860931396484,45.09645080566406,66.1620864868164
0,576713,1.752042293548584,54.316368103027344,31.560810089111328,-0.783843457698822
0,576716,-41.66424560546875,-46.34858322143555,-43.71186828613281,-37.236454010009766
0,576717,-32.024959564208984,-68.30314636230469,-57.11988830566406,-38.97093963623047
0,576720,15.92033863067627,-7.935662269592285,11.004393577575684,21.769411087036133
0,576721,48.13673782348633,46.480438232421875,39.57996368408203,79.8016586303711
0,576724,-30.598817825317383,67.69855499267578,44.66695785522461,-33.70210266113281
0,576725,-32.253517150878906,-2.655590295791626,-6.282805442810059,-72.69414520263672
0,576728,34.81184768676758,-69.94567108154297,-58.07343292236328,9.45152759552002
0,576729,3.1067605018615723,-42.829410552978516,-23.043214797973633,14.333547592163086
0,576732,-3.9538893699645996,54.067169189453125,41.22599792480469,-2.8119194507598877
0,576733,15.004654884338379,93.2513427734375,55.97826385498047,13.651185035705566
0,576736,-21.050525665283203,-37.16104507446289,-26.12955093383789,5.398815631866455
0,576737,-12.506282806396484,-85.7378158569336,-56.422996520996094,-22.279298782348633
0,576740,32.18412780761719,3.327282667160034,3.701939105987549,52.63179397583008
0,576741,25.88825035095215,28.813386917114258,38.06011962890625,67.3708267211914
0,576744,-8.701935768127441,22.964527130126953,29.313852310180664,-73.5931167602539
0,576745,-26.910167694091797,-16.72001075744629,-31.389921188354492,-79.57456970214844
0,576748,-34.390132904052734,-51.46934509277344,-50.5682487487793,-38.945777893066406
0,576749,0.4749620854854584,0.6269837617874146,0.2628879249095917,5.541708469390869
0,576752,34.40129852294922,54.74708557128906,44.65699005126953,105.20369720458984
0,576753,-3.179827928543091,26.66607093811035,22.295269012451172,31.76120948791504
0,576756,-8.0911865234375,-33.76593017578125,-36.3145866394043,-48.66544723510742
0,576757,8.137608528137207,-12.503400802612305,-3.8280322551727295,-19.732421875
0,576760,-1.9222838878631592,7.0193071365356445,21.94659996032715,10.096832275390625
0,576761,5.315998077392578,9.672280311584473,-0.3974090814590454,-11.953582763671875
0,576764,13.342345237731934,40.34820556640625,-0.30755433440208435,2.6125328540802
0,576765,-11.210740089416504,-30.63953399658203,-0.5372102856636047,29.898595809936523
0,576768,-27.62126350402832,-78.94295501708984,-18.5169620513916,-35.892967224121094
0,576769,11.876426696777344,2.9458324909210205,-37.343868255615234,-0.4917564392089844
0,576772,27.07632827758789,77.73200225830078,39.3424072265625,61.09280776977539
0,576773,2.00578236579895,61.40953063964844,53.75614547729492,15.733233451843262
0,576776,-19.968482971191406,-63.117698669433594,-50.11827087402344,-33.26194763183594
0,576777,-30.666301727294922,-58.47001266479492,-41.6044921875,-81.42138671875
0,576780,6.647749900817871,21.643835067749023,13.968587875366211,-6.645718097686768
0,576781,34.59237289428711,8.151644706726074,20.743932723999023,59.75785446166992
0,576784,7.020685195922852,51.418304443359375,33.280033111572266,31.118961334228516
0,576785,-1.459633708000183,-6.2420654296875,8.319788932800293,30.435136795043945
0,576788,-11.533846855163574,-49.82536697387695,-34.003746032714844,-39.082489013671875
0,576789,1.349729061126709,12.881119728088379,-20.767066955566406,-10.143532752990723
0,576792,21.35263442993164,15.556273460388184,24.082698822021484,16.89607048034668
0,576793,-21.35175895690918,19.427738189697266,40.90394592285156,-104.3409652709961
0,576796,-28.076608657836914,-13.109963417053223,-27.71478843688965,-8.769238471984863
0,576797,11.037038803100586,-23.58840560913086,-34.992095947265625,128.84678649902344
0,576800,22.534439086914062,-21.97447395324707,12.223069190979004,0.40981489419937134
0,576801,2.590944766998291,13.011995315551758,2.913412094116211,-47.473777770996094
0,576804,-4.24577522277832,54.462406158447266,32.86056137084961,-2.6773252487182617
0,576805,-25.113311767578125,-15.105777740478516,3.871264934539795,0.6859164834022522
0,576808,-16.80398941040039,-48.762718200683594,-54.00225067138672,24.17298698425293
0,576809,36.469478607177734,-23.98974609375,-13.126747131347656,-12.776009559631348
0,576812,20.146827697753906,51.200042724609375,40.64490509033203,-14.155327796936035
0,576813,-19.49853515625,42.9819221496582,22.024473190307617,36.21529769897461
0,576816,-20.778501510620117,-54.07352828979492,-27.529296875,10.04888916015625
0,576817,8.767207145690918,-15.949408531188965,-6.010995388031006,-47.87190246582031
0,576820,7.748063087463379,2.7002811431884766,6.693153381347656,-52.66596603393555
0,576821,-3.448256015777588,4.765342712402344,0.10754887014627457,-11.022794723510742
0,576824,18.10659408569336,67.00108337402344,30.937789916992188,91.73249053955078
0,576825,-10.533919334411621,-4.764677047729492,-4.361546516418457,88.30778503417969
0,576828,-31.713722229003906,-83.76997375488281,-56.97383499145508,-102.58992767333984
0,576829,9.242999076843262,-18.052400588989258,-27.546510696411133,-80.91925048828125
0,576832,20.861541748046875,62.644676208496094,53.868080139160156,76.21247863769531
0,576833,6.230990886688232,43.014915466308594,64.67401123046875,34.038818359375
0,576836,-8.846052169799805,-47.238075256347656,-56.451351165771484,-4.848574638366699
0,576837,-19.263547897338867,-36.89289093017578,-64.24192810058594,-6.574531555175781
0,576840,15.956239700317383,2.508943557739258,40.799407958984375,-18.92340087890625
0,576841,19.015296936035156,35.65753173828125,53.094627380371094,-0.7600569725036621
0,576844,-16.9907283782959,61.354190826416016,21.72918128967285,-4.216879367828369
0,576845,-6.593804836273193,-46.000614166259766,-46.6789436340332,2.5095374584198
0,576848,19.68971824645996,-58.629798889160156,-46.660850524902344,11.501948356628418
0,576849,4.749399185180664,5.75830602645874,21.446502685546875,27.60865592956543
0,576852,0.74485182762146,41.79975509643555,36.19820785522461,13.911942481994629
0,576853,-3.326540470123291,46.88469314575195,25.658872604370117,-48.51668167114258
0,576856,-30.675827026367188,-39.963539123535156,-43.85203552246094,-61.039146423339844
0,576857,-7.849331855773926,-43.04286193847656,-45.114200592041016,1.1367170810699463
0,576860,20.672143936157227,12.997627258300781,17.56611442565918,87.3647232055664
0,576862,19.928974151611328,32.76566696166992,35.44900894165039,70.71272277832031
0,576864,-5.330385684967041,22.36285972595215,27.969697952270508,-83.74020385742188
0,576866,-14.21409797668457,-19.990489959716797,-41.044132232666016,-85.31507110595703
0,576868,-21.31727409362793,-65.11381530761719,-40.97410583496094,-41.615234375
0,576870,-2.005235433578491,-22.752065658569336,17.522380828857422,-10.726078987121582
0,576872,25.78314971923828,84.7467041015625,30.939300537109375,149.3389129638672
0,576874,8.395358085632324,54.343788146972656,39.22134780883789,69.42591857910156
0,576876,6.015509605407715,-70.08306884765625,-22.02682876586914,-48.41635513305664
0,576878,-12.262758255004883,-50.87135696411133,-53.058013916015625,-26.64287567138672
0,576880,-13.394169807434082,27.174747467041016,29.90461540222168,-44.63789749145508
0,576882,27.73369598388672,35.580326080322266,45.85422897338867,32.19053268432617
0,576884,0.848820149898529,22.01215171813965,5.239828109741211,13.792683601379395
0,576886,-40.160770416259766,-10.811777114868164,-42.3873291015625,-90.08924865722656
0,576887,11.139941215515137,-22.08157730102539,-44.99824905395508,20.340211868286133
0,576890,42.0175895690918,-21.9473934173584,15.595924377441406,92.05419921875
0,576891,6.915589332580566,15.107935905456543,26.496231079101562,-2.7823970317840576
0,576894,-42.109161376953125,44.20741653442383,32.356346130371094,-38.81401824951172
0,576895,-6.85392951965332,-16.2149658203125,-5.482194423675537,-27.237422943115234
0,576898,30.127843856811523,-34.61420822143555,-66.55699920654297,7.974555015563965
0,576899,-30.654136657714844,-5.922515869140625,-34.38580322265625,36.02130126953125
0,576902,0.8208735585212708,22.78839111328125,62.37374496459961,-8.110770225524902
0,576903,26.222078323364258,31.939115524291992,59.45219421386719,-5.996317386627197
0,576906,-14.09714126586914,-29.384929656982422,-41.01586151123047,20.65550994873047
0,576909,9.247367858886719,-53.0883674621582,-48.922950744628906,-34.2774543762207
0,576910,-12.841830253601074,-13.556029319763184,8.044795036315918,-18.497543334960938
0,576912,-21.35165786743164,44.119598388671875,51.5744514465332,28.9189510345459
0,576914,2.377767324447632,61.92855453491211,19.18863868713379,-14.464282989501953
0,576916,7.768115520477295,-29.437984466552734,-37.272090911865234,-32.24916076660156
0,576918,25.653701782226562,-47.445945739746094,-42.56380844116211,33.679176330566406
0,576920,-3.3250069618225098,13.114641189575195,-13.297335624694824,64.63652038574219
0,576922,-3.0920846462249756,21.554832458496094,76.18449401855469,-20.02349281311035
0,576924,13.539777755737305,36.278804779052734,50.36396026611328,-55.38178253173828
0,576926,-23.718900680541992,-12.200364112854004,-67.93782806396484,24.696659088134766
0,576928,-14.82518482208252,-51.51189422607422,-32.7363166809082,40.54491424560547
0,576930,14.748430252075195,-11.832098960876465,10.256817817687988,-32.415653228759766
0,576932,8.413869857788086,27.722517013549805,10.262625694274902,-35.58232116699219
0,576934,-1.3766274452209473,41.565853118896484,30.722286224365234,14.498523712158203
0,576936,-5.216824054718018,-6.711999416351318,-2.745354652404785,-15.63659954071045
0,576938,9.187437057495117,-56.25334167480469,-36.353248596191406,-22.04798126220703
0,576940,2.0112555027008057,-36.82651138305664,-27.125526428222656,34.06806564331055
0,576942,2.3078935146331787,57.10566329956055,44.0582275390625,21.303796768188477
0,576944,-9.490252494812012,71.7336196899414,49.457637786865234,-20.403396606445312
0,576946,-12.67791748046875,-24.658323287963867,-46.72791290283203,-6.475039482116699
0,576948,17.781005859375,-49.15229034423828,-35.5044059753418,5.0745320320129395
0,576950,1.2930676937103271,-22.799856185913086,10.440954208374023,32.071990966796875
0,576952,3.4344637393951416,26.643091201782227,38.064754486083984,42.270477294921875
0,576954,-2.8008079528808594,44.63595962524414,19.36052131652832,-63.468448638916016
0,576956,-11.17801570892334,-18.679838180541992,-39.167564392089844,-26.194610595703125
0,576958,-1.7289592027664185,-48.57343292236328,-17.28091049194336,62.44107437133789
0,576960,0.9704211354255676,-14.399386405944824,-5.111368179321289,-26.2681827545166
0,576962,13.33243179321289,64.71430206298828,45.1794548034668,-46.08240509033203
0,576964,-14.321695327758789,38.46923828125,35.73796081542969,29.570920944213867
0,576966,-8.024551391601562,-62.393798828125,-60.75774002075195,28.55461883544922
0,576968,22.490215301513672,-45.956947326660156,-36.867706298828125,-20.091022491455078
0,576970,5.87528133392334,11.004650115966797,20.729389190673828,-3.3606417179107666
0,576972,-5.750263690948486,40.22186279296875,44.04045867919922,25.69548988342285
0,576974,-7.732021808624268,25.692201614379883,-1.0664392709732056,-17.84897804260254
0,576976,-3.5637054443359375,-14.374730110168457,-24.516523361206055,-32.859554290771484
0,576978,4.024246692657471,-36.46570587158203,-7.502669811248779,10.437386512756348
0,576980,-14.577991485595703,-10.066024780273438,-21.446643829345703,23.592792510986328
0,576982,3.1018786430358887,71.63311004638672,51.35604476928711,25.51307487487793
0,576984,21.446624755859375,24.621261596679688,30.28374671936035,18.823991775512695
0,576986,-17.634611129760742,-72.73851013183594,-56.265010833740234,-89.49982452392578
0,576988,-3.208858013153076,-26.011743545532227,-16.51327896118164,-31.142776489257812
0,576990,11.073099136352539,4.3211517333984375,-5.814547061920166,106.14469146728516
0,576992,3.6757407188415527,31.381893157958984,20.760387420654297,23.01043128967285
0,576994,13.157797813415527,55.70328903198242,49.97597885131836,-46.103759765625
0,576996,-17.829444885253906,-28.4005126953125,-17.738304138183594,-79.48780822753906
0,576998,-14.507152557373047,-54.267173767089844,-49.106143951416016,5.029062747955322
0,577000,16.977100372314453,6.572839736938477,-7.780210494995117,110.932373046875
0,577002,7.137937068939209,33.83159255981445,45.76451873779297,4.231994152069092
0,577004,-5.418284893035889,-2.178093194961548,20.585594177246094,-95.7195816040039
0,577006,-5.811853885650635,-19.45025634765625,-43.635467529296875,0.03959190472960472
0,577008,-20.875635147094727,-0.47147679328918457,-35.147865295410156,64.10386657714844
0,577010,3.736417531967163,-10.532694816589355,17.95751190185547,-4.479005813598633
0,577012,43.58250427246094,26.344396591186523,62.236419677734375,-2.5400631427764893
0,577014,-6.586658000946045,23.61859893798828,12.615161895751953,-19.202028274536133
0,577016,-37.972469329833984,-30.77072525024414,-48.806304931640625,-23.604782104492188
0,577018,24.997501373291016,-10.365781784057617,-28.274860382080078,54.789825439453125
0,577020,7.683003902435303,-17.648454666137695,-8.411941528320312,3.503488063812256
0,577022,-24.761686325073242,15.57236099243164,37.018394470214844,-45.75411605834961
0,577024,27.43204116821289,51.744197845458984,39.63499069213867,25.564403533935547
0,577026,-25.882787704467773,-19.035213470458984,-26.581525802612305,20.51621437072754
0,577028,-35.36730194091797,-39.92798614501953,-23.23202133178711,-39.175437927246094
0,577030,43.023902893066406,-1.2542285919189453,-12.436549186706543,-31.180564880371094
0,577032,29.656850814819336,37.25288772583008,18.365861892700195,25.724266052246094
0,577034,-25.46354866027832,7.880013465881348,20.206052780151367,7.312173843383789
0,577036,-25.589658737182617,-23.47074317932129,-15.555535316467285,-11.700501441955566
0,577038,24.099510192871094,-10.21622085571289,-7.834614276885986,32.390342712402344
0,577040,10.87697982788086,-16.777265548706055,-15.984322547912598,6.268843173980713
0,577042,-2.9867780208587646,28.836259841918945,34.6344108581543,-23.40648078918457
0,577044,3.485844612121582,38.080997467041016,39.72352600097656,3.5860249996185303
0,577046,-22.167436599731445,-20.526119232177734,-47.73627853393555,-10.876102447509766
0,577048,0.650209367275238,-24.645315170288086,-35.959896087646484,8.59487533569336
0,577050,25.71918296813965,-29.715272903442383,19.197378158569336,44.72066116333008
0,577052,-5.634370803833008,14.909049987792969,26.220333099365234,-34.79084777832031
0,577054,-22.251750946044922,61.09904861450195,19.00592803955078,-32.230384826660156
0,577056,-5.5375471115112305,-44.14142608642578,-21.668792724609375,29.144529342651367
0,577058,2.1055026054382324,-70.91329193115234,-42.25231170654297,5.312055587768555
0,577060,4.576831817626953,54.099124908447266,-22.117589950561523,1.4490705728530884
0,577062,23.51434326171875,69.6474380493164,60.87077713012695,-23.168354034423828
0,577064,7.712520599365234,-34.34368896484375,58.69483947753906,-50.30272674560547
0,577066,-17.788341522216797,-44.83653259277344,-61.23309326171875,42.39872741699219
0,577068,-8.626080513000488,27.256322860717773,-27.596967697143555,78.34825134277344
0,577070,17.771242141723633,19.225873947143555,25.28266143798828,-31.783763885498047
0,577072,9.696807861328125,-0.11145678907632828,17.543140411376953,-54.98725891113281
0,577074,-24.95700454711914,15.838083267211914,-3.439073324203491,10.772809028625488
0,577076,-1.048946738243103,-26.993316650390625,-19.52091407775879,21.667261123657227
0,577078,12.934635162353516,-37.41376876831055,-2.878492832183838,5.376599311828613
0,577080,-11.371163368225098,1.2723444700241089,-25.171907424926758,6.097463607788086
0,577082,-1.5142700672149658,29.42177963256836,29.28668785095215,4.267140865325928
0,577084,2.278927803039551,37.966102600097656,56.8427734375,-15.785612106323242
0,577086,-7.928176403045654,-9.128021240234375,-34.831024169921875,-22.438983917236328
0,577088,-4.344426155090332,-51.690467834472656,-50.196815490722656,14.871414184570312
0,577090,5.423543930053711,-33.20024108886719,3.0111231803894043,24.148361206054688
0,577092,21.253673553466797,60.14480209350586,46.54769515991211,12.410330772399902
0,577094,2.712862968444824,54.57579803466797,11.589667320251465,-25.807933807373047
0,577096,-19.507705688476562,-46.49047088623047,-31.665271759033203,-52.076011657714844
0,577097,-6.812092304229736,-26.747528076171875,1.529062271118164,23.719440460205078
0,577100,1.6209434270858765,-8.768296241760254,-14.528146743774414,38.35883331298828
0,577101,14.574921607971191,-5.908120155334473,1.2349838018417358,-3.3174400329589844
0,577104,1.823791742324829,50.70817565917969,44.9195442199707,-17.878101348876953
0,577105,-19.74310302734375,21.77704620361328,-19.340862274169922,-0.2627967894077301
0,577108,5.743950843811035,-62.6656494140625,-43.33519744873047,16.016338348388672
0,577109,11.05346393585205,-33.66335678100586,-3.3260762691497803,-5.289066791534424
0,577112,-12.188326835632324,56.85969924926758,38.144935607910156,-29.386850357055664
0,577113,12.11392879486084,39.42691421508789,40.988502502441406,-20.046056747436523
0,577116,7.723642826080322,-46.85972213745117,-36.5023307800293,45.100467681884766
0,577117,-15.653142929077148,-31.013376235961914,-42.41746139526367,12.681180953979492
0,577120,12.811471939086914,24.754758834838867,16.31352996826172,-12.324909210205078
0,577121,2.446371555328369,21.010297775268555,27.150188446044922,21.891887664794922
0,577124,1.3184477090835571,11.137807846069336,18.83514404296875,-36.469261169433594
0,577125,6.913451194763184,-4.609381675720215,-7.862305641174316,-22.506189346313477
0,577128,-32.4045524597168,-19.176246643066406,-51.73527145385742,33.553829193115234
0,577129,-13.960493087768555,-23.98601722717285,-5.165595054626465,29.683122634887695
0,577132,35.76012420654297,19.77678108215332,65.5926513671875,7.6396379470825195
0,577133,7.176872730255127,49.38314437866211,15.138848304748535,-45.818809509277344
1,577138,-32.875343322753906,-57.062950134277344,-71.62659454345703,-21.735260009765625
1,577138,-3.1631667613983154,-53.66410827636719,-40.09720993041992,9.623210906982422
1,577139,22.444698333740234,61.39870834350586,56.03938674926758,-7.26491117477417
1,577142,13.055588722229004,38.88020324707031,52.72666549682617,52.27126693725586
1,577143,-2.323347568511963,17.516225814819336,0.4146239161491394,55.46645736694336
1,577146,-26.776025772094727,-33.55658721923828,-44.52476119995117,-88.1812973022461
1,577147,-6.746479511260986,-68.32515716552734,-47.60698318481445,-65.74469757080078
1,577150,27.29930305480957,0.6297839879989624,30.82283592224121,80.93636322021484
1,577151,-3.9583802223205566,58.583927154541016,65.71176147460938,14.937783241271973
1,577154,-7.324505805969238,67.73295593261719,4.1205596923828125,-25.37421417236328
1,577155,14.558159828186035,-27.18463706970215,-39.07097244262695,24.162879943847656
1,577158,-17.39470100402832,-90.78215026855469,-41.59684753417969,7.580239295959473
1,577159,-8.640456199645996,-17.660846710205078,-8.710480690002441,0.30844441056251526
1,577162,19.747600555419922,68.7850341796875,64.33195495605469,-26.285058975219727
1,577163,7.911721229553223,32.709720611572266,31.520238876342773,-36.32902526855469
1,577166,-1.918468713760376,-35.1467399597168,-59.661521911621094,-16.291913986206055
1,577167,-5.518882751464844,-20.833391189575195,-35.301883697509766,29.219396591186523
1,577170,-6.1560869216918945,-13.091764450073242,1.9994138479232788,39.18634796142578
1,577171,5.981683731079102,11.737271308898926,40.614498138427734,-1.1021313667297363
1,577174,3.217574119567871,42.57884979248047,35.68583679199219,8.235068321228027
1,577175,-22.777921676635742,13.629331588745117,-10.966992378234863,-17.974870681762695
1,577178,-4.136051654815674,-63.32179260253906,-38.845977783203125,-17.69742202758789
1,577179,13.00879192352295,-30.607589721679688,-48.27985382080078,2.695247173309326
1,577182,11.629171371459961,83.92699432373047,67.62480163574219,9.820104598999023
1,577183,15.56752872467041,11.313432693481445,50.7776985168457,22.909706115722656
1,577186,-10.471240997314453,-51.697872161865234,-62.79979705810547,-16.860509872436523
1,577187,-30.007341384887695,-5.956449508666992,-23.399633407592773,2.2412173748016357
1,577190,12.58001708984375,-14.800189971923828,11.266764640808105,19.282350540161133
1,577191,39.521446228027344,23.159513473510742,25.419002532958984,-20.280391693115234
1,577194,-16.542692184448242,48.37635040283203,7.8763203620910645,-58.36690902709961
1,577195,-25.254026412963867,-5.288609027862549,-24.458900451660156,-11.097441673278809
1,577198,4.726480960845947,-49.220916748046875,-21.94440460205078,72.67205810546875
1,577199,9.737719535827637,-45.09385299682617,-11.608174324035645,21.748855590820312
1,577202,2.4521920680999756,59.20333480834961,48.981510162353516,-31.9461669921875
1,577203,-28.037073135375977,48.93693923950195,27.76243782043457,-21.996315002441406
1,577206,-8.851398468017578,-44.07494354248047,-34.606201171875,11.27574634552002
1,577207,22.785110473632812,-26.635343551635742,-29.738109588623047,39.71231460571289
1,577210,7.310173034667969,-11.844263076782227,-2.748246431350708,-22.2706241607666
1,577211,-4.333230495452881,23.739559173583984,58.0272216796875,-31.63186264038086
1,577214,-2.6237547397613525,35.75625228881836,25.048946380615234,44.167076110839844
1,577215,4.7335429191589355,-7.819294452667236,-46.30870819091797,7.784919738769531
1,577218,3.6343789100646973,-43.98394775390625,-37.60199737548828,-31.714603424072266
1,577219,2.213580369949341,-20.120962142944336,-3.6562492847442627,-26.887130737304688
1,577222,15.284722328186035,65.22330474853516,58.728519439697266,6.04207181930542
1,577223,-9.671609878540039,37.52700424194336,34.54604721069336,50.43815231323242
1,577226,-25.935625076293945,-35.319820404052734,-54.06928634643555,-15.69117546081543
1,577227,17.983400344848633,-36.216697692871094,-41.46342468261719,-29.68536949157715
1,577230,22.001060485839844,-12.292031288146973,-0.9550445675849915,21.68079376220703
1,577231,-14.898076057434082,39.168724060058594,56.48311996459961,17.44508934020996
1,577234,-14.32776927947998,14.833937644958496,33.96401596069336,-9.874884605407715
1,577235,-1.9188995361328125,-28.742244720458984,-46.48844528198242,-21.55144500732422
1,577238,3.4067890644073486,-29.250051498413086,-23.899417877197266,6.6275954246521
1,577239,6.3558430671691895,-18.521955490112305,-20.24468421936035,16.841312408447266
1,577242,-3.540773630142212,50.86668395996094,42.77742385864258,-7.6327900886535645
1,577243,3.2943379878997803,53.99066162109375,49.546478271484375,-14.189667701721191
1,577246,-7.6659417152404785,-15.971416473388672,-61.00077819824219,0.13624216616153717
1,577247,-23.070215225219727,-68.69397735595703,-44.47435760498047,23.42887306213379
1,577250,10.371557235717773,-37.828895568847656,11.170470237731934,3.292886972427368
1,577251,25.63286018371582,63.4656867980957,47.809654235839844,-30.022367477416992
1,577254,-14.322669982910156,59.276084899902344,24.888904571533203,-18.364009857177734
1,577255,-17.051532745361328,-21.675140380859375,-27.694337844848633,31.89083480834961
1,577258,32.57199478149414,-42.27093505859375,-23.50316619873047,47.79674530029297
1,577259,13.546854019165039,-20.57754135131836,0.513249397277832,-20.34999656677246
1,577262,-14.91245174407959,40.7488899230957,49.97515869140625,-29.33573341369629
1,577263,9.776114463806152,40.69090270996094,20.417068481445312,-1.1228657960891724
1,577266,-11.641157150268555,-63.03691864013672,-50.4496955871582,-16.1473331451416
1,577267,-23.43549919128418,-41.15960693359375,-34.49103927612305,0.6396893262863159
1,577270,23.24431037902832,32.13197326660156,8.009312629699707,23.206892013549805
1,577271,18.756986618041992,31.04271125793457,43.06131362915039,-2.673574447631836
1,577274,-13.579030990600586,34.61349868774414,22.928312301635742,-1.9693363904953003
1,577275,-27.469640731811523,-16.080169677734375,-40.650421142578125,-3.9817497730255127
1,577278,-7.283487319946289,-76.17961120605469,-33.743186950683594,-26.4888858795166
1,577279,22.875253677368164,-16.41341781616211,10.554691314697266,12.994004249572754
1,577282,15.413008689880371,75.74468994140625,45.48213195800781,30.05559730529785
1,577283,-6.584652423858643,28.98535919189453,10.1403226852417,-7.883940696716309
1,577286,-15.371843338012695,-36.27266311645508,-48.300880432128906,-6.811956882476807
1,577287,9.736469268798828,-15.931022644042969,-8.43946647644043,23.034744262695312
1,577290,1.7080717086791992,-12.290518760681152,1.4448304176330566,-5.916651725769043
1,577291,10.645040512084961,29.272281646728516,25.139118194580078,-12.038841247558594
1,577546,13.408708572387695,-8.687342643737793,34.40645980834961,38.531558990478516
1,577547,-7.199972152709961,-37.05024719238281,-11.898313522338867,8.678293228149414
1,577550,-10.379170417785645,59.27334976196289,24.553117752075195,-46.84374237060547
1,577551,-21.078073501586914,26.47970962524414,2.346989393234253,-32.28688049316406
1,577554,-8.810163497924805,4.347800254821777,-24.05742835998535,-18.95384979248047
1,577555,-6.369354724884033,25.962480545043945,-10.758753776550293,-23.45085906982422
1,577558,-7.625251293182373,-50.46040344238281,-71.9811019897461,15.830744743347168
1,577559,9.879903793334961,-83.06658935546875,-60.63648223876953,48.5304069519043
1,578420,37.554203033447266,-36.1853141784668,33.81098937988281,46.10173034667969
1,578421,16.08415985107422,0.78263920545578,78.38826751708984,16.71756935119629
1,578422,-26.92458152770996,55.087276458740234,40.08447265625,-30.655622482299805
1,578423,1.6454063653945923,57.48869705200195,-7.772700786590576,-12.746430397033691
1,578426,10.4169921875,-3.6930618286132812,4.9402899742126465,-7.946878910064697
1,578427,-14.117165565490723,-7.868586540222168,-13.482126235961914,-18.647092819213867
1,578430,12.008835792541504,35.343406677246094,1.450189232826233,9.042196273803711
1,578431,-11.231415748596191,48.34226608276367,27.43836212158203,-2.660064220428467
1,578434,-28.316713333129883,-37.338226318359375,-60.70969009399414,-22.438199996948242
1,578435,0.15568837523460388,-103.27888488769531,-72.343017578125,-21.860496520996094
1,578438,0.9401295781135559,-60.30293273925781,-3.6559464931488037,49.43441390991211
1,578439,33.6757926940918,43.16257095336914,35.99937057495117,83.02155303955078
1,578442,19.73502540588379,82.76264953613281,68.71163177490234,-67.19378662109375
1,578443,-27.163419723510742,19.177061080932617,43.03996276855469,-72.34809112548828
1,578446,7.759685516357422,-4.598946571350098,-30.994733810424805,73.30428314208984
1,578447,-3.4636893272399902,-22.511316299438477,-40.14453887939453,28.40028190612793
1,578450,-21.421998977661133,-3.6154444217681885,22.144140243530273,-57.25495147705078
1,578451,22.74196434020996,40.944271087646484,41.08713150024414,-25.663280487060547
1,578454,-2.3100931644439697,-25.422435760498047,-36.7638053894043,17.418947219848633
1,578455,-19.316133499145508,-57.21965408325195,-63.901878356933594,22.967050552368164
1,578458,12.33914852142334,-23.279544830322266,-23.368316650390625,26.258544921875
1,578459,-2.012406587600708,2.749612808227539,16.429126739501953,5.694048881530762
1,578462,8.390946388244629,38.11640548706055,87.55597686767578,-19.873897552490234
1,578463,13.149666786193848,40.07125473022461,42.697322845458984,-8.690338134765625
1,578466,-15.965959548950195,9.079288482666016,-55.64252471923828,-9.154824256896973
1,578467,2.4054787158966064,-32.91254806518555,-43.91575241088867,2.098554849624634
1,578470,-3.714844226837158,-1.1693562269210815,31.67000961303711,13.605308532714844
1,578471,-7.602333068847656,46.194297790527344,40.60811233520508,-17.123310089111328
1,578474,4.5102314949035645,-21.22334861755371,-39.078216552734375,-16.839399337768555
1,578475,-8.819774627685547,-27.1956729888916,-34.97489929199219,10.606200218200684
1,578478,-2.7199788093566895,-19.700178146362305,-10.618071556091309,24.830821990966797
1,578479,25.431114196777344,-19.988515853881836,-5.4399542808532715,2.596958637237549
1,578482,13.228659629821777,55.800846099853516,58.87347412109375,-23.98044204711914
1,578483,-10.832015037536621,26.515077590942383,32.56068420410156,4.3626708984375
1,578486,-3.177234172821045,-30.74275016784668,-40.8019905090332,-2.2563140392303467
1,578487,-4.758366584777832,-34.23153305053711,-25.73690414428711,6.338635444641113
1,578490,0.1771312803030014,25.01228141784668,16.17125701904297,20.342355728149414
1,578491,4.565829753875732,56.45753479003906,21.084529876708984,-33.265079498291016
1,578494,-12.406322479248047,-28.54585838317871,-17.38078498840332,0.8439892530441284
1,578495,-17.415386199951172,-59.97929000854492,-26.23756980895996,26.370079040527344
1,578498,-3.192838430404663,-9.593908309936523,-8.203821182250977,16.101272583007812
1,578499,21.37175941467285,15.5971097946167,11.4364595413208,6.306246757507324
1,578502,14.929640769958496,25.6123046875,51.830013275146484,-50.351253509521484
1,578503,-6.941865921020508,34.570892333984375,4.249464511871338,-5.868431091308594
1,578506,2.017641305923462,-17.11796760559082,-43.18008041381836,48.84841537475586
1,578507,-6.443729877471924,-26.452213287353516,2.2219932079315186,10.027599334716797
1,578510,-3.722519636154175,14.631632804870605,0.4963206350803375,-36.62503433227539
1,578511,5.130344867706299,14.613054275512695,38.113311767578125,-27.405750274658203
1,578514,-6.475107192993164,-17.599613189697266,-1.7044870853424072,-8.270893096923828
1,578515,4.6142425537109375,-11.418725967407227,-78.51388549804688,11.50217342376709
1,578518,5.908016681671143,2.40790057182312,10.967863082885742,29.43477439880371
1,578519,-5.890403747558594,-33.932247161865234,28.674272537231445,-3.5192105770111084
1,578522,3.0246124267578125,37.83039855957031,27.4228572845459,1.9181761741638184
1,578523,-3.3069229125976562,73.02743530273438,29.039222717285156,-3.1956212520599365
1,578526,-10.91163158416748,-46.70182418823242,-50.74772262573242,-26.966825485229492
1,578527,-2.266409158706665,-63.133243560791016,-45.80717468261719,12.636885643005371
1,578530,8.659308433532715,19.85930824279785,31.485254287719727,29.43091583251953
1,578531,13.372520446777344,51.634674072265625,44.06047821044922,4.913453578948975
1,578534,-7.922664642333984,-0.3795011639595032,-9.901992797851562,0.720775306224823
1,578535,-3.1474204063415527,-37.94552230834961,-30.4349422454834,-20.26183319091797
1,578538,-1.3892654180526733,-27.044172286987305,-14.689867973327637,-10.054537773132324
1,578539,-4.32056188583374,2.5576930046081543,7.912876129150391,20.858598709106445
1,578542,23.309438705444336,54.07172393798828,37.14335632324219,-10.515562057495117
1,578543,-11.14055347442627,19.517831802368164,20.505456924438477,-13.899892807006836
1,578546,-24.504697799682617,-46.206817626953125,-24.920719146728516,4.546682834625244
1,578547,16.703266143798828,-24.025447845458984,-34.50562286376953,11.61330509185791
1,578550,16.690454483032227,24.35279083251953,-1.3652677536010742,5.586266994476318
1,578551,-3.4304614067077637,38.24043655395508,55.75310516357422,-10.568558692932129
1,578554,-11.26923942565918,10.70754623413086,8.283294677734375,-23.080921173095703
1,578555,1.6198781728744507,-43.44184494018555,-50.96023941040039,-9.198485374450684
1,578558,6.897253513336182,-37.909427642822266,-31.28011703491211,40.43635177612305
1,578559,-8.096725463867188,2.9244234561920166,-10.127816200256348,31.243152618408203
1,578562,-1.219012975692749,40.65003204345703,73.12882995605469,-33.93511199951172
1,578563,13.672724723815918,34.77031326293945,37.02479934692383,-13.338544845581055
1,578566,-19.59662437438965,-23.917537689208984,-74.16197967529297,14.45002269744873
1,578567,-24.409751892089844,-44.08353805541992,-38.515018463134766,-31.585613250732422
1,578570,39.570945739746094,-5.998276233673096,36.05066680908203,25.374731063842773
1,578571,16.849681854248047,49.99767303466797,57.745609283447266,42.94260025024414
1,578574,-40.5673828125,12.56510066986084,-17.331003189086914,-34.86870193481445
1,578575,0.578035831451416,-23.36970329284668,-44.486175537109375,-10.387852668762207
1,578578,16.39426612854004,-25.27889633178711,2.512106418609619,25.281782150268555
1,578579,5.647827625274658,-19.2935733795166,-2.072129011154175,-9.726871490478516
1,578582,-4.231381893157959,59.763545989990234,51.836856842041016,-35.25883102416992
1,578583,21.878042221069336,36.50875473022461,35.593929290771484,3.502495288848877
1,578586,55.94646072387695,-67.78717803955078,-80.21930694580078,9.186188697814941
1,578587,-44.261348724365234,-47.939666748046875,-40.80794906616211,14.018430709838867
1,578590,-134.80075073242188,46.269004821777344,49.117923736572266,-6.803163528442383
1,578591,-52.90974807739258,49.961177825927734,25.080217361450195,-62.76744079589844
1,578594,79.18507385253906,-41.47064971923828,-27.670570373535156,38.58855438232422
1,578595,98.21385955810547,-35.62200164794922,-31.188892364501953,55.44822311401367
1,578598,50.289066314697266,16.360353469848633,16.727672576904297,-25.632917404174805
1,578599,-26.96722984313965,17.990528106689453,43.62628173828125,29.87183952331543
1,578602,-46.78418731689453,49.94089889526367,27.4647274017334,-14.436848640441895
1,578603,-7.058742523193359,-9.314566612243652,-0.3050623834133148,-44.76072311401367
1,578608,-5.112824440002441,-57.768978118896484,-61.26963806152344,23.625320434570312
1,578608,17.865787506103516,0.03141265735030174,-39.61466979980469,-8.699841499328613
1,578610,25.150821685791016,8.074788093566895,53.79682159423828,17.574113845825195
1,578612,17.271617889404297,34.76609802246094,35.973567962646484,18.652484893798828
1,578614,-5.973899841308594,4.645100116729736,-25.465538024902344,-48.20246505737305
1,578616,-37.148860931396484,-56.024696350097656,-41.231563568115234,13.774700164794922
1,578618,-30.39676284790039,-8.25090217590332,-12.95267391204834,37.47700119018555
1,578620,19.65090560913086,44.534793853759766,74.22464752197266,-7.205033302307129
1,578622,37.13618087768555,34.03043746948242,24.918222427368164,-26.815629959106445
1,578624,-18.287675857543945,-16.0202693939209,-61.45087814331055,-36.72331619262695
1,578626,-60.11214065551758,-46.69812774658203,-26.162460327148438,35.48593521118164
1,578628,-44.45036315917969,-15.187980651855469,-22.832204818725586,41.95325469970703
1,578630,37.46696853637695,39.18088912963867,24.54388999938965,1.3910943269729614
1,578632,54.61625289916992,19.149059295654297,48.97299575805664,-18.223527908325195
1,578634,-8.407661437988281,1.5500447750091553,-3.8372459411621094,-53.800018310546875
1,578636,9.814020156860352,-21.105384826660156,21.309032440185547,25.703086853027344
1,578638,18.289865493774414,-33.24114227294922,7.799356937408447,57.16216278076172
1,578640,-27.10500717163086,28.937307357788086,-53.95787811279297,-24.613882064819336
1,578642,-6.712501525878906,35.3831787109375,-13.75864028930664,-48.03296661376953
1,578644,41.59027099609375,4.783961772918701,-14.913053512573242,-41.310394287109375
1,578646,53.35258483886719,-38.30252456665039,-53.44416809082031,35.0711784362793
1,578648,-33.14977264404297,-41.44870376586914,33.906978607177734,93.57006072998047
1,578650,-41.25434494018555,31.24237632751465,104.14409637451172,-9.778315544128418
1,578652,-0.2663809061050415,30.728063583374023,40.55818557739258,-82.53559875488281
1,578654,-50.76026916503906,-3.0107343196868896,-25.720577239990234,-23.24705696105957
1,578656,-19.04913330078125,-17.600360870361328,-69.11698913574219,34.03367614746094
1,578658,18.027185440063477,-24.600021362304688,-51.05443572998047,36.31133270263672
1,578660,5.719770431518555,38.9365234375,75.46581268310547,18.794193267822266
1,578662,42.754547119140625,33.906803131103516,75.04390716552734,-34.49789810180664
1,578664,12.724080085754395,-32.14253234863281,-23.11101531982422,-8.699102401733398
1,578666,-29.743722915649414,-20.126047134399414,-55.12668991088867,53.65602493286133
1,578668,42.30438995361328,-20.2930965423584,-83.62185668945312,9.415018081665039
1,578670,3.423905611038208,-18.845460891723633,-32.315452575683594,-107.90994262695312
1,578672,-66.3405990600586,32.61177062988281,68.594482421875,-37.974945068359375
1,578674,-22.333179473876953,36.088043212890625,41.2525520324707,132.30892944335938
1,578676,55.32836151123047,-34.216514587402344,-36.16598892211914,5.468298435211182
1,578678,56.3308219909668,-31.64335823059082,-13.965163230895996,-65.55290222167969
1,578680,-37.15929412841797,51.425411224365234,57.26333999633789,3.7641265392303467
1,578682,-36.660099029541016,30.09333038330078,50.670860290527344,-5.102355003356934
1,578684,5.092470169067383,-37.380069732666016,-36.53229522705078,-2.077089786529541
1,578686,13.672431945800781,-17.744911193847656,-54.93730545043945,29.057514190673828
1,578688,3.5083813667297363,4.177285671234131,15.363240242004395,41.24296569824219
1,578690,15.472747802734375,-9.571507453918457,57.29563522338867,-5.910745143890381
1,578692,33.403587341308594,39.990814208984375,39.9488410949707,-50.113441467285156
1,578694,-34.08210754394531,48.69789505004883,-16.578460693359375,-21.43634796142578
1,578696,0.023744529113173485,-34.806026458740234,-61.274818420410156,6.149336338043213
1,578698,28.936689376831055,-54.52994918823242,-87.89896392822266,-0.7105804681777954
1,578700,-95.82034301757812,3.8906197547912598,-41.362979888916016,46.776153564453125
1,578702,-33.00721740722656,36.662010192871094,44.36487579345703,20.95107078552246
1,578704,50.97793197631836,-20.169532775878906,-27.619279861450195,-62.15330505371094
1,578706,-18.927303314208984,-23.421558380126953,-7.809581756591797,-36.83074951171875
1,578708,24.938356399536133,-12.278828620910645,187.64097595214844,47.14081573486328
1,578710,137.24520874023438,16.655317306518555,88.25459289550781,51.68605041503906
1,578712,127.62750244140625,73.42239379882812,-60.35435485839844,-7.861966133117676
1,578714,-176.3671112060547,13.002861976623535,-34.601844787597656,-13.842803955078125
1,578716,-381.2821960449219,-47.808292388916016,-105.93894958496094,-24.621736526489258
1,578718,-20.57571792602539,-80.88793182373047,-83.83379364013672,-59.57675552368164
1,578720,225.093994140625,-12.717845916748047,112.35162353515625,-8.02036190032959
1,578722,137.10049438476562,90.73214721679688,148.58119201660156,87.3261947631836
1,578724,138.61920166015625,-6.623291969299316,-79.01720428466797,26.084230422973633
1,578726,-30.60959815979004,-30.87661361694336,-139.87657165527344,-30.113128662109375
1,578728,-124.67218017578125,24.06242561340332,-35.03323745727539,19.740612030029297
1,578730,15.231681823730469,-10.769304275512695,-15.924460411071777,-43.34114456176758
1,578732,-54.65119552612305,35.30345916748047,76.21432495117188,-24.365997314453125
1,578734,-67.00817108154297,15.47962474822998,118.74090576171875,31.097206115722656
1,578736,160.45843505859375,-50.962215423583984,25.64753532409668,-5.005153656005859
1,578738,207.3740234375,-28.437097549438477,21.77578353881836,44.05973434448242
1,578740,-7.813896656036377,34.32289505004883,51.073944091796875,16.28143882751465
1,578742,-232.14601135253906,69.6517105102539,-72.35234832763672,-56.51787185668945
1,578744,-324.64801025390625,-14.354785919189453,-192.3585662841797,-32.65540313720703
1,578746,-76.71369934082031,-87.45964813232422,-92.56488037109375,20.513113021850586
1,578748,278.9517517089844,-29.02591323852539,84.28771209716797,45.536773681640625
1,578750,213.67446899414062,58.28511047363281,92.36587524414062,27.14376449584961
1,578752,-19.00318145751953,55.1146125793457,68.09087371826172,-41.59971237182617
1,578754,-27.526657104492188,-10.258460998535156,70.14765167236328,-72.21408081054688
1,578756,-6.491760730743408,-70.38500213623047,-97.79061889648438,25.71319007873535
1,578758,-77.90689849853516,-47.72046661376953,-122.3105697631836,70.37619018554688
1,578760,-21.48665428161621,72.87556457519531,109.43451690673828,-55.58161163330078
1,578762,48.407737731933594,72.76761627197266,77.71907806396484,-100.33394622802734
1,578764,30.0203914642334,-45.44682312011719,-102.66866302490234,104.14324951171875
1,578766,-26.01258087158203,-62.51319122314453,5.202956676483154,110.869140625
1,578768,-45.459129333496094,7.286088943481445,55.67654800415039,-90.61541748046875
1,578770,58.763893127441406,52.877323150634766,-95.2515869140625,-29.073450088500977
1,578772,46.334938049316406,27.014684677124023,-61.9404411315918,82.99596405029297
1,578774,-73.67872619628906,-24.410316467285156,10.18265151977539,-44.25149154663086
1,578775,-128.18896484375,-42.126678466796875,-0.021974937990307808,-67.3470458984375
1,578778,63.5662841796875,-19.588788986206055,117.04153442382812,23.529481887817383
1,578779,179.3072052001953,22.04828453063965,148.17654418945312,-1.864997148513794
1,578782,-75.53675842285156,56.374549865722656,-24.29039764404297,71.01449584960938
1,578783,-140.1061248779297,-3.5137717723846436,-75.12542724609375,10.262861251831055
1,578786,-13.58944034576416,-60.1996955871582,-100.4475326538086,-103.80614471435547
1,578787,-24.86480712890625,-2.608294725418091,-77.99637603759766,56.97959899902344
1,578790,20.24350357055664,28.41974449157715,70.58043670654297,37.3968505859375
1,578791,68.8252182006836,18.30388641357422,61.95226287841797,-55.52490997314453
1,578794,-0.06984172016382217,13.584301948547363,-4.006933212280273,-0.19639909267425537
1,578795,76.6122055053711,-20.170761108398438,-9.031288146972656,-11.220786094665527
1,578798,75.97688293457031,-39.79975891113281,28.555707931518555,36.72185516357422
1,578799,-76.7645492553711,12.738618850708008,45.833335876464844,27.106164932250977
1,578802,4.415650367736816,44.60230255126953,-54.76462936401367,-76.343017578125
1,578803,102.4698257446289,-17.762014389038086,-99.16694641113281,29.15755844116211
1,578806,61.95452880859375,-65.70850372314453,-106.56782531738281,54.625125885009766
1,578807,-83.09529113769531,5.601498126983643,12.748968124389648,-65.43954467773438
1,578810,-102.54048919677734,101.37413787841797,378.0359191894531,2.1471519470214844
1,578811,31.163204193115234,26.516706466674805,196.8405303955078,15.675531387329102
1,578814,-72.1623764038086,-75.33769226074219,-346.2690734863281,-15.813469886779785
1,578815,-112.46736145019531,-39.76044464111328,-304.7642822265625,20.50957489013672
1,578818,-123.05097961425781,-12.800673484802246,-78.04759979248047,46.574100494384766
1,578819,-64.33924102783203,22.911174774169922,69.2103271484375,39.623138427734375
1,578822,283.77423095703125,58.00764465332031,198.79576110839844,-40.28559494018555
1,578823,132.0166015625,13.65235710144043,184.71800231933594,-33.481727600097656
1,578826,-146.19520568847656,-62.44142532348633,98.96685791015625,-59.55999755859375
1,578827,54.379730224609375,-56.95570755004883,-66.11962127685547,-59.30588912963867
1,578830,176.0038604736328,68.28582000732422,-23.4476375579834,71.34343719482422
1,578831,66.71463775634766,78.59122467041016,23.04090690612793,47.52992630004883
1,578834,-220.54466247558594,-49.18071746826172,-169.66883850097656,-6.0019755363464355
1,578835,-204.87567138671875,-61.87945556640625,-91.3676986694336,-31.6815242767334
1,578838,215.7913360595703,-14.370784759521484,-0.33621135354042053,8.558995246887207
1,578839,193.48243713378906,33.00300216674805,-28.610069274902344,58.43671798706055
1,578842,-114.51708221435547,61.31602478027344,70.45650482177734,-21.308046340942383
1,578843,-139.63916015625,-12.79063606262207,16.325641632080078,-10.883157730102539
1,578846,-95.77114868164062,-41.583152770996094,37.59105682373047,-39.6817741394043
1,578847,-26.661027908325195,-30.682567596435547,66.45840454101562,-69.1299819946289
1,578850,83.14738464355469,26.684223175048828,-64.26129913330078,99.36368560791016
1,578851,113.22320556640625,63.37031173706055,-17.6406307220459,92.19615173339844
1,578854,-47.83855438232422,-63.4234619140625,-2.2474520206451416,-70.2332763671875
1,578855,-57.93674087524414,-48.261844635009766,-40.13678741455078,-39.91242980957031
1,578858,116.2187271118164,57.99980163574219,24.044645309448242,22.750566482543945
1,578859,-42.44493103027344,29.68637466430664,74.51079559326172,0.31954947113990784
1,578862,-44.62730407714844,24.57045555114746,97.95751953125,-13.092133522033691
1,578863,74.06915283203125,0.37392130494117737,24.70305061340332,1.480836272239685
1,578866,-40.461883544921875,-36.21644592285156,-97.3067855834961,-5.768317222595215
1,578867,-25.883588790893555,-37.039669036865234,-150.72288513183594,-10.829845428466797
1,578870,48.81163024902344,-6.143206596374512,-131.80796813964844,1.7499600648880005
1,578871,58.452728271484375,55.49446487426758,38.88526153564453,36.80851364135742
1,578874,-157.57879638671875,-2.5208382606506348,192.82980346679688,41.366455078125
1,578875,-92.66890716552734,-31.679330825805664,98.3971939086914,-80.34181213378906
1,578878,346.3841552734375,-27.74955940246582,-91.2579116821289,-38.7025032043457
1,578879,-2.9055581092834473,11.390198707580566,-79.35356903076172,121.6458969116211
1,578882,-366.945556640625,85.01089477539062,56.671539306640625,-12.271836280822754
1,578883,11.230205535888672,-26.47064781188965,24.676483154296875,-94.5069808959961
1,578886,178.52760314941406,-66.91130065917969,-38.640403747558594,-4.336428642272949
1,578887,49.6901741027832,-6.395212173461914,2.785244941711426,43.06932067871094
1,578890,-10.652535438537598,44.29423904418945,75.8783187866211,35.31620788574219
1,578891,-15.923675537109375,45.46077346801758,53.98960494995117,-50.32695388793945
1,578894,-30.25201988220215,-25.432825088500977,-2.7180123329162598,8.492483139038086
1,578895,-2.629883289337158,-12.547154426574707,-22.50578498840332,37.35675811767578
1,578898,62.67302703857422,-38.99857711791992,-151.87643432617188,-42.904029846191406
1,578899,36.608638763427734,-17.178987503051758,-95.05899047851562,-21.28972053527832
1,578902,-50.1364631652832,87.02355194091797,80.90300750732422,57.72671890258789
1,578903,-9.375850677490234,-7.0557966232299805,31.17749786376953,18.29154396057129
1,578906,-73.57765197753906,-81.06029510498047,24.04469108581543,-11.762655258178711
1,578907,-101.3398666381836,2.8708980083465576,33.02204513549805,33.45081329345703
1,578910,79.86566925048828,38.47771453857422,42.61751937866211,-81.87354278564453
1,578911,60.358219146728516,45.39415740966797,125.84512329101562,-27.520549774169922
1,578914,40.099945068359375,-4.563950061798096,-99.30094909667969,73.6928482055664
1,578915,119.92283630371094,-57.735923767089844,-284.5960998535156,-38.763343811035156
1,578918,-88.1387710571289,-46.04497146606445,-42.886104583740234,-30.297157287597656
1,578919,-220.3723602294922,10.857868194580078,165.2478790283203,26.381303787231445
1,578922,35.71002960205078,106.98483276367188,201.35977172851562,6.667871952056885
1,578923,62.24108123779297,24.606449127197266,34.93998336791992,-4.385371685028076
1,578926,9.41670036315918,-66.59423828125,-109.62860870361328,36.9652214050293
1,578927,102.39321899414062,-32.8770866394043,-54.878700256347656,43.826812744140625
1,578930,107.99625396728516,21.379440307617188,87.64596557617188,-55.61143493652344
1,578931,58.35203552246094,73.08830261230469,81.95427703857422,-111.92786407470703
1,578934,-234.88063049316406,-84.90612030029297,-297.8552551269531,2.6460840702056885
1,578935,-168.6856689453125,-62.750545501708984,-199.5235595703125,108.92549896240234
1,578938,148.7826385498047,107.50214385986328,217.92959594726562,116.06803131103516
1,578939,-53.72162628173828,-18.90398597717285,176.71266174316406,3.3593709468841553
1,578942,25.97987937927246,-15.752498626708984,123.60945892333984,-163.09527587890625
1,578943,139.2985382080078,56.154090881347656,22.402639389038086,-34.51677322387695
1,578946,-93.91693115234375,-46.69135284423828,-32.68223571777344,73.35386657714844
1,578947,-21.359432220458984,-49.650978088378906,-64.53123474121094,-21.199872970581055
1,578950,7.175527095794678,44.48447036743164,-354.7061767578125,26.602792739868164
1,578951,71.96659088134766,24.391456604003906,-267.0640869140625,60.337867736816406
1,578954,2.060453176498413,-39.81535339355469,285.9132385253906,-10.691815376281738
1,578955,-182.72921752929688,14.18443489074707,479.2604675292969,-58.27831268310547
1,578958,68.76056671142578,-14.645814895629883,125.74560546875,-17.10728645324707
1,578959,193.2354278564453,-31.1807918548584,-76.8912353515625,11.982142448425293
1,578962,49.431793212890625,71.36774444580078,-232.51026916503906,-58.439186096191406
1,578963,-78.8156509399414,-3.8384406566619873,-365.8853454589844,-15.805322647094727
1,578966,-40.08089065551758,-74.6211166381836,-58.08526611328125,110.31929016113281
1,578967,-84.8008804321289,7.083326816558838,217.86497497558594,46.34591293334961
1,578970,-150.9320068359375,55.62468338012695,255.45306396484375,-53.1481819152832
1,578971,41.7505989074707,55.551109313964844,106.28678131103516,-24.528162002563477
1,578974,117.93732452392578,-27.348834991455078,-116.01911926269531,-17.501813888549805
1,578975,77.7474594116211,-37.51020812988281,-62.34270477294922,-0.10539387911558151
1,578978,23.505281448364258,22.243118286132812,51.7398681640625,2.3064844608306885
1,578979,81.0961685180664,0.7568615078926086,-8.56470012664795,13.383551597595215
1,578982,-57.21432113647461,6.837650299072266,-129.05654907226562,-17.912975311279297
1,578983,-233.98397827148438,-9.83434009552002,-167.2072296142578,-33.58729553222656
1,578986,7.630218982696533,-62.11439514160156,-35.73715591430664,121.62503051757812
1,578987,68.47393798828125,-44.15354537963867,53.93431091308594,59.37663269042969
1,578990,2.3423984050750732,46.907371520996094,203.26380920410156,-120.1347427368164
1,578991,32.63664627075195,85.39460754394531,236.5192413330078,-102.49272918701172
1,578994,-13.36764907836914,32.26738739013672,-49.00374221801758,41.786590576171875
1,578996,-3.7026264667510986,-31.82828140258789,-126.80963897705078,40.81317901611328
1,578998,108.6457290649414,-77.78038024902344,-179.37966918945312,-3.8944263458251953
1,579000,32.64899444580078,-4.412808895111084,-123.73859405517578,87.1033935546875
1,579002,-105.53921508789062,49.155391693115234,114.69900512695312,5.523284912109375
1,579004,-26.38943099975586,-11.731157302856445,160.74012756347656,-53.60387420654297
1,579006,57.23956298828125,7.2600507736206055,167.47003173828125,-26.187332153320312
1,579008,121.88458251953125,4.935612201690674,-7.888000965118408,-20.948543548583984
1,579010,-70.24880981445312,-21.142454147338867,-197.8498992919922,-38.580379486083984
1,579012,-137.41268920898438,19.649179458618164,-129.28512573242188,-14.03599739074707
1,579014,-26.128833770751953,-12.60125732421875,23.03780746459961,103.7086181640625
1,579016,-116.91429901123047,-22.961523056030273,54.41456604003906,41.75333786010742
1,579018,59.514862060546875,6.31128454208374,53.146759033203125,-19.02014923095703
1,579020,106.75990295410156,16.434223175048828,109.02206420898438,-7.209630489349365
1,579021,-32.56318283081055,45.417755126953125,-22.50119400024414,-70.98847198486328
1,579024,55.43672561645508,-5.7656450271606445,-125.71717071533203,-49.504852294921875
1,579028,125.97728729248047,-63.827362060546875,-21.20041847229004,71.28545379638672
1,579028,16.771860122680664,-26.698875427246094,11.471824645996094,118.85020446777344
1,579029,-82.15398406982422,18.662097930908203,-29.263843536376953,-48.44805908203125
1,579032,34.09363555908203,47.828067779541016,180.59767150878906,-142.34307861328125
1,579033,70.3695297241211,27.728561401367188,85.55388641357422,33.70940399169922
1,579036,-158.7265625,-77.15882110595703,-424.6737060546875,76.14967346191406
1,579037,-63.30009460449219,-33.628631591796875,-224.9391632080078,-52.41008377075195
1,579040,58.358428955078125,92.44612884521484,343.8497619628906,25.71457290649414
1,579041,-139.84974670410156,29.21234703063965,300.1595764160156,21.321474075317383
1,579044,71.28866577148438,-8.252593040466309,1.8360973596572876,-85.88710021972656
1,579045,112.07742309570312,-18.36212921142578,-81.4525375366211,15.910730361938477
1,579048,-102.50770568847656,-56.52475357055664,-102.13623809814453,76.58279418945312
1,579049,32.11916732788086,7.611347198486328,-27.48708152770996,43.564884185791016
1,579052,69.81294250488281,53.07725143432617,82.62923431396484,-75.9398422241211
1,579053,1.2533077001571655,20.66253089904785,38.629493713378906,-127.00492095947266
1,579056,4.138179302215576,-82.8934097290039,-139.11155700683594,86.04888153076172
1,579057,127.39815521240234,-58.88811492919922,-160.16236877441406,144.29452514648438
1,579060,-14.731117248535156,78.14263153076172,123.04593658447266,-37.52790451049805
1,579061,-244.44534301757812,66.98358917236328,208.06805419921875,-68.45418548583984
1,579064,-67.1980209350586,-41.4297981262207,-62.740936279296875,-44.79039001464844
1,579065,-14.171714782714844,-53.94167709350586,-122.01587677001953,8.620683670043945
1,579068,61.886207580566406,22.98160743713379,-14.584861755371094,82.5949935913086
1,579069,114.6646957397461,42.896217346191406,1.4426112174987793,-32.194984436035156
1,579072,89.02700805664062,50.88054656982422,150.0794219970703,-63.375064849853516
1,579073,36.59505081176758,-15.497440338134766,32.18329620361328,74.09487915039062
1,579076,0.0023299092426896095,-110.52798461914062,-356.29388427734375,64.59799194335938
1,579077,75.21766662597656,-35.33074188232422,-63.953208923339844,-72.96590423583984
1,579080,-424.62799072265625,79.06007385253906,475.56561279296875,-59.179588317871094
1,579081,-217.87759399414062,67.28996276855469,101.81263732910156,60.61463928222656
1,579084,545.0474243164062,-20.98931312561035,-260.70867919921875,44.48125076293945
1,579085,59.630245208740234,-67.43162536621094,-35.544979095458984,-20.408708572387695
1,579088,-206.0528106689453,-18.310827255249023,-14.612513542175293,-91.41251373291016
1,579089,96.02545166015625,38.397010803222656,-14.120928764343262,-73.18070220947266
1,579092,-53.233123779296875,32.702144622802734,117.11527252197266,139.44947814941406
1,579093,-166.31710815429688,-1.5517158508300781,67.12630462646484,91.16571807861328
1,579096,94.1795425415039,-29.961484909057617,-120.05396270751953,-154.00100708007812
1,579097,135.2691192626953,-23.40704917907715,55.04127883911133,-73.68089294433594
1,579100,-42.030174255371094,48.50345230102539,149.94412231445312,94.29927825927734
1,579101,215.44357299804688,65.17191314697266,-331.3225402832031,71.29976654052734
1,579104,164.77395629882812,-38.26152038574219,-454.49639892578125,35.993587493896484
1,579105,-387.9411926269531,-88.5687026977539,101.61333465576172,3.6926167011260986
1,579108,-511.2283935546875,-31.912784576416016,531.7557373046875,-58.0050163269043
1,579109,70.25405883789062,66.22285461425781,208.70872497558594,-33.13022994995117
1,579112,518.9568481445312,73.89490509033203,-110.04438018798828,14.076617240905762
1,579113,130.9912109375,-27.801406860351562,15.302285194396973,-37.18220520019531
1,579116,-181.9579620361328,-94.54656219482422,7.950150966644287,1.4272955656051636
1,579117,-86.14729309082031,-31.502588272094727,-155.8119659423828,75.63898468017578
1,579120,33.43560791015625,86.7567367553711,-198.85670471191406,9.167950630187988
1,579121,181.04135131835938,75.25875091552734,66.17591857910156,-28.07994842529297
1,579124,-79.07939910888672,-38.17681884765625,112.9947280883789,-52.55615234375
1,579125,-230.53834533691406,-59.45896530151367,-69.47317504882812,-54.31661605834961
1,579128,29.326074600219727,-36.033504486083984,69.57678985595703,61.24516296386719
1,579129,105.18812561035156,37.29075241088867,48.11345291137695,114.38688659667969
1,579132,103.27491760253906,95.30280303955078,-109.55977630615234,-64.12779235839844
1,579133,-44.538665771484375,-37.10198211669922,32.556888580322266,-144.11492919921875
1,579136,-115.56398010253906,-44.23450469970703,159.97987365722656,45.384246826171875
1,579137,-11.912421226501465,7.70560359954834,-55.23973083496094,85.53113555908203
1,579140,204.20448303222656,-44.979759216308594,-372.9413146972656,34.15110778808594
1,579141,67.37570190429688,31.684823989868164,-10.004908561706543,18.904123306274414
1,579144,-459.2178039550781,72.19046783447266,511.572021484375,-90.04811096191406
1,579145,-31.13446044921875,-41.43655014038086,100.87478637695312,-49.98381423950195
1,579148,452.979736328125,-64.7535400390625,-317.62603759765625,41.62089538574219
1,579149,9.25410270690918,49.04493713378906,-89.07886505126953,34.67514419555664
1,579152,-207.59339904785156,50.0958251953125,18.034015655517578,30.650699615478516
1,579153,-55.04557418823242,-53.30854415893555,-43.300010681152344,5.7293548583984375
1,579156,17.44574737548828,-67.25849151611328,-17.327476501464844,2.2097370624542236
1,579157,12.687919616699219,-15.36677360534668,60.98178482055664,-43.282169342041016
1,579160,126.45878601074219,100.26103973388672,212.05323791503906,-57.905113220214844
1,579161,59.41191864013672,93.3870849609375,111.94203186035156,17.537416458129883
1,579164,-183.48211669921875,-45.42732238769531,-141.2127227783203,30.530723571777344
1,579165,-13.481841087341309,-71.09934997558594,-151.54151916503906,-1.9802556037902832
1,579168,158.76409912109375,-27.120649337768555,-2.404188871383667,28.91044044494629
1,579169,63.06315231323242,25.289913177490234,79.20618438720703,-39.635536193847656
1,579172,-203.24632263183594,38.331539154052734,-44.506935119628906,-48.28094482421875
1,579173,-153.84934997558594,-11.084173202514648,-222.19747924804688,131.4266815185547
1,579176,200.1900634765625,-52.9963493347168,-144.7811737060547,41.27494430541992
1,579177,130.5220489501953,-1.7223923206329346,232.8353271484375,-30.94820213317871
1,579180,-150.3481903076172,46.841251373291016,366.9033508300781,-31.603652954101562
1,579181,-174.3749237060547,19.227548599243164,116.6611557006836,-121.57921600341797
1,579184,141.23480224609375,-18.07170867919922,-149.5873260498047,7.63551139831543
1,579185,166.76708984375,-34.997657775878906,-228.7516326904297,65.22745513916016
1,579188,83.39014434814453,-6.562056064605713,-153.32115173339844,46.513404846191406
1,579189,7.106049060821533,16.256589889526367,29.13192367553711,38.048561096191406
1,579192,-244.61581420898438,42.13832092285156,158.6153106689453,-80.51072692871094
1,579193,-52.82521438598633,42.525333404541016,43.794525146484375,-56.719303131103516
1,579196,121.48772430419922,-46.64723205566406,137.79017639160156,55.860042572021484
1,579197,22.748355865478516,-61.9603157043457,55.98952865600586,28.174217224121094
1,579200,-27.218765258789062,27.186790466308594,-370.2407531738281,-17.678577423095703
1,579201,-71.10094451904297,57.085853576660156,-87.03096008300781,-17.753095626831055
1,579204,-154.6345672607422,-28.092784881591797,236.9794921875,-89.5875244140625
1,579205,16.39339256286621,-73.05328369140625,-73.59864807128906,31.60051155090332
1,579208,247.2174072265625,-5.347559452056885,-57.041603088378906,169.61309814453125
1,579209,21.398061752319336,40.073394775390625,101.93522644042969,-20.7220401763916
1,579212,-95.9625244140625,55.239166259765625,50.59580993652344,-108.37213897705078
1,579213,-25.360286712646484,5.7149786949157715,61.61170196533203,-18.144956588745117
1,579216,-1.225650429725647,-63.49327087402344,-47.77138137817383,46.4179573059082
1,579217,78.35297393798828,-31.95233154296875,-125.19723510742188,24.267847061157227
1,579220,79.5732192993164,64.25098419189453,31.8671875,-7.99992036819458
1,579221,0.5949321389198303,44.912418365478516,141.197021484375,-4.327949047088623
1,579224,-49.09610366821289,-25.063148498535156,3.4441580772399902,-46.49831771850586
1,579226,-21.4664249420166,-11.689654350280762,-118.05178833007812,7.716436386108398
1,579228,-22.891159057617188,-21.74550437927246,-34.81903839111328,68.46444702148438
1,579230,-34.85242462158203,1.8776545524597168,22.341331481933594,-5.613038063049316
1,579232,-26.72267723083496,32.68161392211914,-3.082080364227295,-24.389480590820312
1,579236,-4.367108345031738,-28.023391723632812,-6.561550617218018,11.200065612792969
1,579236,11.468647956848145,-46.22489929199219,14.128690719604492,8.096508026123047
1,579237,-27.12882423400879,22.18497085571289,25.47819709777832,-46.738250732421875
1,579240,25.405881881713867,30.208616256713867,-2.443695545196533,-29.503890991210938
1,579241,62.07144546508789,26.348526000976562,23.821311950683594,44.430450439453125
1,579244,-26.124252319335938,1.0159708261489868,27.47163200378418,-3.2090702056884766
1,579245,22.793338775634766,-60.21821212768555,-58.773963928222656,-14.620697021484375
1,579248,53.197872161865234,-24.621971130371094,-55.27405548095703,23.174560546875
1,579249,-50.76394271850586,44.248390197753906,21.41206169128418,6.954783916473389
1,579252,-56.4989128112793,38.116355895996094,39.86279296875,14.56224250793457
1,579253,-17.900453567504883,-11.671231269836426,6.443384170532227,-3.4287474155426025
1,579256,-4.825753688812256,-29.25914764404297,-6.815711498260498,-51.31989288330078
1,579257,10.720487594604492,-13.370931625366211,9.393465995788574,-1.8804686069488525
1,579260,43.125709533691406,25.54317855834961,25.33579444885254,21.58125877380371
1,579261,45.311920166015625,28.80158233642578,28.147855758666992,15.261710166931152
1,579264,-1.9245144128799438,-30.804405212402344,-32.63573455810547,24.583354949951172
1,579265,-17.072614669799805,-31.464229583740234,-65.63854217529297,-11.406405448913574
1,579268,-10.560102462768555,9.872267723083496,-6.112107276916504,-3.1498260498046875
1,579269,-22.094463348388672,14.386519432067871,20.43438720703125,-4.755152225494385
1,579272,-16.85228157043457,28.395553588867188,19.241127014160156,-10.41552734375
1,579273,-11.716023445129395,26.397871017456055,24.405914306640625,-19.749834060668945
