Aktueller Finger,timestamp_ms,sensor_0,sensor_1,sensor_2,sensor_3
0,310195,-12.933292388916016,-15.52196979522705,-14.041279792785645,1.0107121467590332
0,310198,0.5438481569290161,17.024526596069336,16.732912063598633,13.755953788757324
0,310199,15.752668380737305,13.956586837768555,37.137115478515625,-7.147578716278076
0,310202,-1.9452404975891113,-26.637285232543945,-20.973718643188477,-16.958452224731445
0,310203,-2.7760426998138428,-3.2422444820404053,-31.64417839050293,18.108673095703125
0,310206,11.512004852294922,-0.1898840367794037,22.845054626464844,50.305213928222656
0,310207,-0.48571857810020447,-35.9782829284668,9.178874015808105,7.566481113433838
0,310210,-4.8302388191223145,39.01615905761719,14.396089553833008,-61.9528923034668
0,310211,9.7351655960083,33.762935638427734,-8.122903823852539,-44.84496307373047
0,310406,-21.09062957763672,-47.25791931152344,-41.67591094970703,44.033843994140625
0,310406,-22.875225067138672,-23.641010284423828,-2.221205949783325,53.740970611572266
0,310407,28.1474609375,22.393949508666992,27.19538116455078,-13.931558609008789
0,310407,4.421544075012207,26.14057159423828,17.5822811126709,-18.143033981323242
0,310407,-4.273255348205566,6.865395545959473,-6.583743095397949,-9.753945350646973
0,310407,11.671629905700684,-0.9178012609481812,-11.012123107910156,-13.165245056152344
0,310407,-12.953330039978027,-5.91814661026001,-1.7237098217010498,9.39470386505127
0,310407,0.820258617401123,-3.4244132041931152,-19.282379150390625,-13.367119789123535
0,310408,12.790283203125,2.472867965698242,-8.434094429016113,-2.243246555328369
0,310408,-15.280111312866211,-13.580802917480469,28.115835189819336,36.847171783447266
0,310408,-5.062158584594727,3.9534800052642822,19.553264617919922,6.951096534729004
0,310408,15.785604476928711,3.7730112075805664,-8.821432113647461,-22.62813377380371
0,310408,6.606843948364258,6.725406169891357,-4.451087951660156,-17.788713455200195
0,310409,8.338790893554688,2.689732074737549,6.5263752937316895,11.468903541564941
0,310409,-12.19250202178955,-15.348228454589844,-0.08276675641536713,15.518383026123047
0,310409,-17.487215042114258,25.019960403442383,-4.567488193511963,-23.249996185302734
0,310409,-1.4394944906234741,4.926510810852051,4.956363201141357,-6.719869136810303
0,310409,9.295488357543945,-27.10123062133789,19.58775520324707,28.91771697998047
0,310409,15.975495338439941,0.33216193318367004,-5.073331356048584,6.978191375732422
0,310409,-9.319436073303223,5.959203720092773,-39.874149322509766,-0.711906909942627
0,310410,-13.986001014709473,-0.4814300835132599,-15.705940246582031,-6.521647930145264
0,310410,10.966791152954102,12.5028715133667,21.973764419555664,-8.837359428405762
0,310410,16.15889549255371,2.689269542694092,17.268346786499023,-0.5422776937484741
0,310410,-3.7637124061584473,-11.906941413879395,4.276381969451904,-13.098808288574219
0,310410,-4.701988697052002,-5.314777374267578,-15.917012214660645,-12.605531692504883
0,310411,3.021836519241333,3.782893180847168,-7.809432506561279,-4.617970943450928
0,310411,-20.904569625854492,22.474327087402344,9.558558464050293,5.466347694396973
0,310411,-22.60757827758789,-3.2822277545928955,-0.27510079741477966,2.7304110527038574
0,310411,15.294408798217773,-38.00730895996094,-2.7345311641693115,-5.177704811096191
0,310411,6.836201190948486,-0.872154951095581,-3.2202699184417725,10.548860549926758
0,310411,-3.566044330596924,16.34978675842285,13.432565689086914,15.367035865783691
0,310412,12.65361499786377,-13.250876426696777,-8.839414596557617,-7.430241584777832
0,310412,3.3007466793060303,5.067087173461914,-20.470388412475586,-7.3300886154174805
0,310412,8.424901962280273,12.712635040283203,16.499652862548828,11.632952690124512
0,310412,-5.918511867523193,-19.5662841796875,2.089165687561035,16.87599754333496
0,310412,-28.00771141052246,-1.5438566207885742,-1.604338526725769,2.597494602203369
0,310412,13.897618293762207,12.507560729980469,17.651012420654297,-10.24146556854248
0,310413,18.039386749267578,7.6063947677612305,-17.969676971435547,0.40815261006355286
0,310413,-6.2537055015563965,17.03299331665039,-21.269405364990234,7.128875255584717
0,310413,-5.082492828369141,-9.083006858825684,21.824132919311523,6.0426764488220215
0,310413,-4.326297760009766,-23.650676727294922,3.008157253265381,-8.022673606872559
0,310413,6.123988151550293,-9.408794403076172,-21.614242553710938,-6.8489179611206055
0,310413,-1.8162858486175537,12.199002265930176,19.878129959106445,9.309737205505371
0,310414,10.624022483825684,17.245254516601562,11.513155937194824,-7.548428058624268
0,310414,-4.863438606262207,4.4163899421691895,-20.677087783813477,-9.729778289794922
0,310414,-15.174347877502441,10.311610221862793,27.636457443237305,-1.3075597286224365
0,310414,22.31300163269043,-6.521989822387695,7.9017157554626465,1.6936001777648926
0,310414,7.674947738647461,4.2108330726623535,-16.178884506225586,3.744213104248047
0,310414,2.8550658226013184,-1.605387568473816,8.820175170898438,-28.919557571411133
0,310415,-1.9262105226516724,-27.206201553344727,-8.246899604797363,0.025149580091238022
0,310415,-32.015113830566406,12.563037872314453,-0.573436439037323,17.68640899658203
0,310415,1.0079265832901,9.133362770080566,-8.44929313659668,-15.50784969329834
0,310415,28.395042419433594,-13.359407424926758,-2.7797203063964844,11.102246284484863
0,310415,-15.74520206451416,4.8832526206970215,21.667911529541016,17.52212142944336
0,310416,-13.105496406555176,7.2305145263671875,-19.001461029052734,17.258882522583008
0,310416,8.742659568786621,-5.747738838195801,-28.94882583618164,-21.170955657958984
0,310416,-15.435770988464355,-7.0453410148620605,22.121824264526367,-30.587263107299805
0,310416,7.678556442260742,2.5968515872955322,25.6141300201416,37.12887191772461
0,310416,20.11503028869629,9.633291244506836,-1.3231635093688965,3.208510160446167
0,310416,-12.255253791809082,-18.90989112854004,-25.975601196289062,-32.986183166503906
0,310417,-16.796903610229492,-20.838598251342773,-10.072474479675293,3.992736339569092
0,310417,-9.649067878723145,9.857734680175781,35.583885192871094,12.169912338256836
0,310417,18.7002010345459,-0.38898026943206787,5.233813285827637,-5.132993698120117
0,310417,22.534696578979492,-10.954455375671387,-33.53784942626953,-12.163528442382812
0,310417,-13.253366470336914,11.507781982421875,-8.65119743347168,-1.5976901054382324
0,310417,5.575110912322998,27.426095962524414,24.125234603881836,9.362473487854004
0,310418,16.801959991455078,-0.5103808641433716,-0.41965174674987793,9.534032821655273
0,310418,-18.14093017578125,-17.323280334472656,-10.412296295166016,21.228351593017578
0,310418,-12.299881935119629,8.24840259552002,21.259017944335938,15.50089168548584
0,310418,25.00201988220215,30.69786834716797,2.8374202251434326,-18.505069732666016
0,310418,12.371296882629395,-9.449989318847656,-13.21134090423584,0.9978449940681458
0,310418,-31.38162612915039,-6.091385841369629,6.55116605758667,10.352717399597168
0,310419,-17.62006187438965,15.258391380310059,9.71272087097168,-18.03531837463379
0,310419,18.450490951538086,-17.529754638671875,-3.213923931121826,10.750507354736328
0,310419,10.628767013549805,-3.098848581314087,-19.81855010986328,11.374942779541016
0,310419,-15.386953353881836,-14.881587982177734,-13.936177253723145,-11.2098970413208
0,310419,-8.932154655456543,-5.06156587600708,22.949462890625,-7.101135730743408
0,310419,23.24669647216797,22.354740142822266,13.184829711914062,4.009588718414307
0,310420,9.157816886901855,-15.259702682495117,-27.388486862182617,0.8370600938796997
0,310420,-15.603472709655762,-9.113391876220703,-10.746386528015137,-23.285688400268555
0,310420,-2.3762917518615723,17.33648681640625,11.21876049041748,11.516715049743652
0,310420,-5.072673320770264,-16.059328079223633,14.454229354858398,21.850566864013672
0,310420,-2.999145746231079,-11.96079158782959,9.87071418762207,-16.403406143188477
0,310420,13.46773624420166,12.874898910522461,-16.823381423950195,-11.500303268432617
0,310421,-9.288351058959961,-5.982232093811035,-21.113855361938477,3.8262250423431396
0,310421,-16.047149658203125,4.239898204803467,2.0912582874298096,2.419039487838745
0,310421,14.288649559020996,-0.8025202751159668,9.244168281555176,-9.788313865661621
0,310421,6.263671875,-12.675138473510742,-10.194583892822266,7.472903251647949
0,310421,-3.715728282928467,13.780177116394043,-4.468207359313965,18.662405014038086
0,310421,-5.70210075378418,14.348702430725098,23.12977409362793,-10.10323715209961
0,310422,5.521859169006348,-9.42278003692627,20.837692260742188,-13.46427059173584
0,310422,18.281356811523438,-3.141084671020508,0.35525110363960266,15.532232284545898
0,310422,-6.331596851348877,25.70368194580078,-18.463281631469727,22.372447967529297
0,310422,-5.897449970245361,15.785618782043457,-15.61550521850586,-28.229656219482422
0,310422,3.501209259033203,-24.94891357421875,17.123308181762695,-15.813446044921875
0,310422,-7.186729907989502,-7.2037200927734375,19.55813217163086,22.87548065185547
0,310423,6.865698337554932,24.657079696655273,-7.825502395629883,-22.227293014526367
0,310424,3.9575600624084473,-13.110562324523926,0.7896720767021179,-12.904544830322266
0,310424,-23.112062454223633,-27.814132690429688,-2.1922197341918945,4.718092441558838
0,310424,-6.832501411437988,-2.728222370147705,-26.81313705444336,-9.332412719726562
0,310424,12.167122840881348,13.067986488342285,0.2826445400714874,15.990694046020508
0,310425,8.832292556762695,4.407746315002441,9.285767555236816,6.624179840087891
0,310425,7.217735767364502,-11.001632690429688,0.4390861690044403,-4.265110492706299
0,310425,1.6744954586029053,-1.3216757774353027,22.401762008666992,5.258547306060791
0,310425,-1.892579436302185,0.3908085227012634,-4.642864227294922,0.6677995324134827
0,310425,-1.323540210723877,3.0713069438934326,-23.045679092407227,-0.36331477761268616
0,310427,13.291508674621582,15.455719947814941,16.99220085144043,17.380874633789062
0,310428,-6.470814228057861,-3.7165238857269287,0.9247596859931946,22.65386199951172
0,310431,-24.161447525024414,-1.4992284774780273,-16.87189483642578,-22.34633445739746
0,310432,4.676583766937256,39.762542724609375,29.502117156982422,-31.500946044921875
0,310435,5.994604587554932,-5.684906482696533,-0.8347198367118835,2.5954501628875732
0,310436,1.6526758670806885,-31.40037727355957,-40.28376007080078,3.921363353729248
0,310439,-8.67790699005127,31.774429321289062,26.52337074279785,6.027506351470947
0,310440,5.7792205810546875,4.906094551086426,17.37318992614746,23.107837677001953
0,310443,-4.825973033905029,-57.51668930053711,-64.99129486083984,10.844518661499023
0,310444,-23.30864715576172,-36.117759704589844,1.1689884662628174,8.210246086120605
0,310445,46.32449722290039,43.65843200683594,79.23442840576172,4.221609115600586
0,310448,27.00347328186035,32.3165397644043,-1.6250437498092651,-46.119571685791016
0,310449,-39.2572135925293,-57.11812210083008,-52.85455322265625,-26.420103073120117
0,310452,0.053153783082962036,19.625022888183594,8.764580726623535,13.743391036987305
0,310707,7.880070209503174,62.727210998535156,8.207564353942871,9.045326232910156
0,310708,-18.741830825805664,-43.95941162109375,-15.998330116271973,28.639732360839844
0,310711,-2.0561420917510986,-13.650724411010742,18.96144676208496,-4.198956489562988
0,310713,1.9386098384857178,26.749547958374023,2.340282678604126,-32.708580017089844
0,310715,-5.225958347320557,-24.376445770263672,-29.065357208251953,3.4741594791412354
0,310717,5.544631481170654,13.89266586303711,4.319645881652832,12.933879852294922
0,310719,6.726603984832764,37.8056755065918,40.359832763671875,-14.641715049743652
0,310721,-3.848210573196411,-29.85714340209961,-1.8009217977523804,-6.193289279937744
0,310723,-8.264995574951172,-32.10375213623047,-19.003055572509766,24.845664978027344
0,310725,8.223267555236816,14.169915199279785,6.8633623123168945,6.06443452835083
0,310918,21.67238998413086,-12.5504789352417,-20.968685150146484,-13.617205619812012
0,310918,-6.912607192993164,-10.680904388427734,-7.152010440826416,-9.516183853149414
0,310919,-1.502953052520752,8.979689598083496,28.525548934936523,-9.973182678222656
0,310919,13.259711265563965,7.191186428070068,3.677927017211914,-0.15139083564281464
0,310919,-26.194997787475586,16.03325653076172,-6.59097957611084,23.453975677490234
0,310919,-10.561071395874023,3.65427565574646,7.007570743560791,27.62588119506836
0,310919,35.67259216308594,9.856390953063965,4.04325532913208,-2.2010061740875244
0,310919,0.09326879680156708,0.14916744828224182,-12.006391525268555,-15.181253433227539
0,310920,-29.15463638305664,-20.059114456176758,-16.876876831054688,17.12823486328125
0,310920,-3.162045478820801,-8.825807571411133,3.614464044570923,25.30219078063965
0,310920,6.168107509613037,20.556989669799805,10.884194374084473,-9.777836799621582
0,310920,1.855777621269226,7.858407497406006,-7.334532737731934,-28.27266502380371
0,310920,1.455478549003601,-25.911081314086914,-14.493544578552246,-7.826625347137451
0,310920,-9.157340049743652,0.6502085328102112,20.978012084960938,-18.938465118408203
0,310921,10.972883224487305,5.293800354003906,20.93415641784668,-32.138580322265625
0,310921,9.501354217529297,-11.279897689819336,-16.247568130493164,18.99616813659668
0,310921,-18.84951400756836,6.212707996368408,-4.753064155578613,17.113584518432617
0,310921,-3.6939234733581543,6.107518672943115,4.207223892211914,-8.690197944641113
0,310921,12.681696891784668,4.936701774597168,-1.892937183380127,-11.816390037536621
0,310921,5.835778713226318,-9.378989219665527,-4.820522785186768,-7.394936561584473
0,310922,-11.188916206359863,2.960833787918091,-4.773070812225342,21.518272399902344
0,310922,6.007965564727783,16.041820526123047,2.1050662994384766,13.836195945739746
0,310922,9.61283016204834,-14.458270072937012,11.75892162322998,-7.4180006980896
0,310922,-3.291560173034668,7.2996954917907715,2.605680465698242,2.5218987464904785
0,310922,-3.260772943496704,5.644783020019531,-6.404314994812012,26.003124237060547
0,310922,-7.325849533081055,-3.8234691619873047,1.6403776407241821,-0.4644271433353424
0,310923,-3.102051258087158,14.313919067382812,-5.425943851470947,-28.85924530029297
0,310923,1.864981770515442,-9.931618690490723,-10.339545249938965,15.431997299194336
0,310923,0.5088140964508057,-4.51753044128418,6.245222568511963,16.8677921295166
0,310923,-0.21900862455368042,9.133615493774414,19.523698806762695,-12.687845230102539
0,310923,14.950154304504395,-12.491424560546875,-12.202112197875977,14.659407615661621
0,310923,-0.3331660032272339,-13.060880661010742,-7.239975452423096,-1.3904389142990112
0,310924,-22.490779876708984,10.376607894897461,27.124122619628906,-22.748022079467773
0,310924,-1.1184872388839722,12.34598445892334,-7.705488681793213,6.635696887969971
0,310924,17.893983840942383,-17.621017456054688,-19.024219512939453,2.062401294708252
0,310924,0.6974788904190063,-15.840405464172363,-2.3239119052886963,-12.871657371520996
0,310924,1.5032037496566772,23.871173858642578,-1.3511351346969604,-4.775280952453613
0,310925,9.707411766052246,4.716883182525635,-3.568666458129883,11.742016792297363
0,310925,-9.055578231811523,-32.38663101196289,-13.909794807434082,1.662144660949707
0,310925,-15.443836212158203,2.987142324447632,11.928979873657227,-6.251608848571777
0,310925,-5.868929862976074,21.17514419555664,20.49308967590332,12.933258056640625
0,310925,11.14608383178711,-3.2661495208740234,-9.499317169189453,-15.935066223144531
0,310925,14.598885536193848,0.23810230195522308,-16.344667434692383,-12.962644577026367
0,310926,1.2050292491912842,11.950152397155762,-0.18230412900447845,24.426191329956055
0,310926,-16.056079864501953,10.071965217590332,6.6880879402160645,-10.363422393798828
0,310926,-7.3008599281311035,-12.854340553283691,2.049192190170288,-6.772616386413574
0,310926,0.08182015269994736,-22.219369888305664,4.206503391265869,11.832918167114258
0,310926,7.371430397033691,1.271340012550354,8.339177131652832,1.2748432159423828
0,310926,12.710721969604492,9.918088912963867,8.494036674499512,-0.07113628089427948
0,310927,-16.82111167907715,11.844491004943848,-5.462997913360596,1.2567503452301025
0,310927,-9.530454635620117,-7.055575370788574,-11.710432052612305,12.582852363586426
0,310927,18.70534896850586,-5.226718425750732,3.4421939849853516,-11.544698715209961
0,310927,10.242178916931152,21.899003982543945,7.433399200439453,-13.99974536895752
0,310927,-12.979269027709961,-4.440685749053955,-10.292006492614746,23.266530990600586
0,310927,-7.790535926818848,-27.78502655029297,-0.2907750606536865,-1.0847088098526
0,310928,14.725859642028809,-1.6677379608154297,5.42716646194458,-12.624714851379395
0,310928,11.146160125732422,28.943185806274414,-14.160564422607422,16.2270450592041
0,310928,-4.377525806427002,5.929416656494141,10.227945327758789,8.357115745544434
0,310928,-6.478339195251465,-16.560400009155273,8.704264640808105,-23.15610122680664
0,310928,2.5071067810058594,6.741932392120361,-14.742467880249023,-34.470420837402344
0,310928,5.53371000289917,1.5481981039047241,16.347681045532227,14.419819831848145
0,310929,4.589828014373779,4.975948810577393,21.19929313659668,22.482755661010742
0,310929,12.147244453430176,20.09345054626465,2.91352915763855,-1.0004311800003052
0,310929,-12.381943702697754,-20.49175453186035,4.371591091156006,-2.4330692291259766
0,310929,-15.281926155090332,-11.25282096862793,-22.267589569091797,-8.661384582519531
0,310929,2.78922963142395,22.475616455078125,-16.726947784423828,-2.159435749053955
0,310929,-8.912805557250977,-12.674861907958984,24.53380584716797,-11.581388473510742
0,310930,5.431397438049316,-21.4890193939209,-6.306590557098389,5.473435401916504
0,310930,-1.831884503364563,8.150375366210938,-20.460418701171875,17.49681854248047
0,310930,-10.053474426269531,17.251014709472656,9.759554862976074,-12.193450927734375
0,310930,-5.4527411460876465,-27.170257568359375,-6.63630485534668,-5.688124179840088
0,310930,-7.437450408935547,-28.688873291015625,-18.428356170654297,14.101361274719238
0,310930,2.6525888442993164,17.921558380126953,17.025121688842773,16.789731979370117
0,310931,4.583670139312744,29.69586944580078,27.486820220947266,-6.6518049240112305
0,310931,21.579425811767578,7.143755912780762,-14.590110778808594,-17.048385620117188
0,310931,-1.7638976573944092,-36.47736740112305,-12.580307960510254,4.222689628601074
0,310931,-28.86428451538086,7.085351943969727,4.93203592300415,9.217670440673828
0,310931,0.7633919715881348,36.1175651550293,-5.121996879577637,3.1388800144195557
0,310931,26.619264602661133,-25.867820739746094,-3.3966734409332275,-1.4327785968780518
0,310932,12.984757423400879,-11.920010566711426,-9.648992538452148,-0.9756636023521423
0,310932,-23.011417388916016,13.671165466308594,-8.075285911560059,-2.326591968536377
0,310932,-8.076285362243652,-13.218047142028809,15.592204093933105,9.965230941772461
0,310932,6.258721828460693,11.71467399597168,16.47188949584961,0.9287094473838806
0,310932,5.321549892425537,6.461779594421387,-22.55857276916504,-26.745264053344727
0,310933,8.0131254196167,-17.414508819580078,-19.505474090576172,-1.7993313074111938
0,310933,-12.68916130065918,-0.4555686116218567,28.35839080810547,18.6532039642334
0,310933,3.197667121887207,9.51225471496582,15.513386726379395,-15.358574867248535
0,310933,17.267791748046875,11.555014610290527,-6.477941513061523,-21.488569259643555
0,310933,-11.16218090057373,-2.0015103816986084,10.99734115600586,21.6679630279541
0,310933,0.22529029846191406,1.3357601165771484,-3.004115104675293,18.29714012145996
0,310933,19.654985427856445,0.2997680902481079,-14.807493209838867,-28.862415313720703
0,310934,-11.498290061950684,-9.162178993225098,7.746217250823975,-5.252627372741699
0,310934,-7.986298561096191,17.781517028808594,14.085675239562988,42.14183807373047
0,310934,12.043455123901367,3.5451529026031494,-11.247047424316406,-1.1631146669387817
0,310934,-1.1477915048599243,-33.5198860168457,-27.005483627319336,-17.030231475830078
0,310934,-11.776543617248535,-2.0473227500915527,2.160083770751953,17.573163986206055
0,310936,-13.706357955932617,26.73518943786621,20.174015045166016,16.394855499267578
0,310936,1.5011063814163208,5.534363746643066,1.7753064632415771,-2.6923396587371826
0,310936,24.608320236206055,-18.669200897216797,-0.6496552228927612,-22.03437614440918
0,310936,2.6929919719696045,5.671342372894287,10.648533821105957,-8.722674369812012
0,310936,-20.287708282470703,3.6673028469085693,-7.18673038482666,-2.466825485229492
0,310936,-3.738555669784546,-16.94158363342285,-6.825483798980713,12.678811073303223
0,310937,-3.051034688949585,6.3569817543029785,8.920740127563477,17.12487030029297
0,310937,11.984085083007812,14.213105201721191,-1.303370475769043,-23.852487564086914
0,310937,2.7113733291625977,-2.641744375228882,-3.1022510528564453,-5.100771903991699
0,310938,-17.179454803466797,-18.432315826416016,-3.033297061920166,11.657713890075684
0,310938,8.374857902526855,-7.512763023376465,9.760785102844238,-13.123196601867676
0,310941,-3.312682628631592,6.908810138702393,6.364788055419922,-10.360274314880371
0,310942,3.1277945041656494,20.966175079345703,-2.8670125007629395,-3.0873961448669434
0,310945,15.587871551513672,13.80495548248291,-0.5942614078521729,27.157424926757812
0,310946,-10.375151634216309,-11.189329147338867,-22.280052185058594,15.232589721679688
0,310949,-13.684209823608398,-10.384998321533203,-10.463472366333008,-37.734920501708984
0,310950,9.743733406066895,-7.633622646331787,18.905685424804688,-5.330509185791016
0,310953,25.725173950195312,14.31810188293457,13.629451751708984,41.038063049316406
0,310955,-11.014836311340332,15.815879821777344,2.182100296020508,1.8483041524887085
0,310957,-11.819592475891113,-18.98438262939453,-11.548325538635254,-47.01909637451172
0,310959,18.087480545043945,-9.37639331817627,-6.577364921569824,-7.08098030090332
0,400202,-12.755242347717285,-5.3582234382629395,12.508293151855469,49.50510025024414
0,400204,-20.36016082763672,1.1358256340026855,-8.120214462280273,20.035715103149414
0,400206,-0.9798330068588257,14.27585506439209,-30.99127197265625,-54.2882194519043
0,400208,11.177861213684082,-13.7222318649292,13.167370796203613,-16.039417266845703
0,400210,20.540943145751953,-5.710442066192627,17.815954208374023,37.224876403808594
0,400212,-12.467551231384277,10.188337326049805,-5.572403907775879,2.7511425018310547
0,400214,-15.245601654052734,2.452369213104248,5.239514350891113,-9.36303424835205
0,400216,27.6162166595459,14.590048789978027,7.967925548553467,9.004079818725586
0,400218,4.519949913024902,7.3694634437561035,2.102402448654175,8.324178695678711
0,400220,-31.621164321899414,-16.17869758605957,-27.89735984802246,-42.454689025878906
0,400222,6.733157157897949,-21.025402069091797,24.7415714263916,-7.49884033203125
0,400224,6.72725772857666,4.855070114135742,28.741952896118164,37.038108825683594
0,400226,-10.967906951904297,26.37287139892578,-53.90236282348633,20.234516143798828
0,400228,17.669445037841797,-0.22892090678215027,-0.34475886821746826,-7.224849224090576
0,400230,3.1869752407073975,-11.209927558898926,32.623451232910156,-22.051658630371094
0,400424,-7.708501815795898,-11.749248504638672,-9.900778770446777,6.600740432739258
0,400424,0.1696327179670334,3.8714370727539062,9.059674263000488,-10.332417488098145
0,400424,-9.748147010803223,11.403450012207031,-1.5483472347259521,4.645150661468506
0,400425,-6.743937015533447,-8.496819496154785,-18.2093563079834,13.607806205749512
0,400425,0.44150495529174805,8.403088569641113,4.023870944976807,-8.303986549377441
0,400425,13.057538032531738,-5.6372551918029785,-4.299778461456299,16.623287200927734
0,400425,-8.396708488464355,-0.5278050303459167,-5.383151054382324,2.277027130126953
0,400425,-18.136112213134766,11.318163871765137,17.069625854492188,-20.78658676147461
0,400425,18.56310272216797,-9.653998374938965,12.19202709197998,-2.5806734561920166
0,400426,18.93705940246582,10.233689308166504,-6.378296375274658,-8.925325393676758
0,400426,0.9884613752365112,-6.426940441131592,-9.26241683959961,-0.815447211265564
0,400426,-8.528082847595215,-22.25278663635254,-8.829048156738281,7.611365795135498
0,400426,0.29347485303878784,2.5430047512054443,-9.799335479736328,-7.3255181312561035
0,400426,-3.3662078380584717,11.472559928894043,-1.227159023284912,18.779664993286133
0,400427,0.8974677920341492,16.16322898864746,24.294902801513672,7.595695495605469
0,400427,23.155109405517578,2.365323543548584,-2.793545722961426,-22.77704429626465
0,400427,-7.4386773109436035,-20.895492553710938,-25.543346405029297,17.51573944091797
0,400427,-29.30815315246582,12.570647239685059,16.74669075012207,19.448057174682617
0,400427,4.306150913238525,5.160540580749512,11.378655433654785,-19.341751098632812
0,400427,9.425779342651367,-19.3287410736084,-5.696415424346924,-1.420027494430542
0,400428,-11.517086029052734,20.799604415893555,4.94507360458374,14.015576362609863
0,400428,2.120553493499756,-13.26758861541748,0.4980984032154083,-16.747102737426758
0,400428,4.163561820983887,-17.69414520263672,-6.478705406188965,-9.326111793518066
0,400428,-13.01354694366455,16.553651809692383,-4.188950061798096,25.65070915222168
0,400428,5.25011682510376,-7.107758522033691,7.737666130065918,0.3682778477668762
0,400428,20.036441802978516,4.265279769897461,3.3719961643218994,-14.316802024841309
0,400429,-0.5826480388641357,6.934622287750244,-10.840045928955078,-15.017147064208984
0,400429,-10.411225318908691,-6.416714191436768,-4.740368366241455,-9.294610977172852
0,400429,4.841237545013428,1.1918683052062988,10.414365768432617,6.279131889343262
0,400429,7.662896633148193,7.6106085777282715,-0.26521772146224976,-5.825667381286621
0,400429,-9.647140502929688,-3.351189136505127,-6.746737957000732,-11.427926063537598
0,400429,-5.9453229904174805,-9.091073989868164,-8.654096603393555,-9.388752937316895
0,400430,6.1699538230896,6.278148174285889,-2.3471829891204834,8.652547836303711
0,400430,5.270359039306641,-2.96726655960083,19.376352310180664,9.576727867126465
0,400430,-3.522369623184204,-10.151227951049805,3.3702492713928223,13.927376747131348
0,400430,-6.396363735198975,9.698990821838379,-0.9280595779418945,22.518712997436523
0,400430,4.020595073699951,12.998323440551758,3.1354734897613525,-18.938121795654297
0,400430,10.58666706085205,-22.867197036743164,-13.72574520111084,-14.012380599975586
0,400431,-1.8114254474639893,-4.976305961608887,8.821670532226562,41.254085540771484
0,400431,-6.947364330291748,30.97087287902832,20.073434829711914,4.609683513641357
0,400431,9.664730072021484,9.395990371704102,-22.21567153930664,-25.594860076904297
0,400431,1.5085862874984741,-15.344545364379883,-17.36318588256836,16.653141021728516
0,400431,-13.4063138961792,-12.679353713989258,16.76352310180664,16.4658260345459
0,400431,-10.23499584197998,24.1212215423584,7.331795692443848,-29.082265853881836
0,400432,9.372573852539062,-1.6207668781280518,-11.017183303833008,-30.410919189453125
0,400432,12.164073944091797,-31.20733642578125,-0.9404288530349731,30.20606231689453
0,400432,-9.747207641601562,21.02545928955078,17.41047477722168,22.49105453491211
0,400432,0.23316024243831635,2.0037431716918945,8.771629333496094,-26.521957397460938
0,400432,4.705965518951416,-28.106632232666016,-23.69772720336914,-17.266441345214844
0,400432,-18.70168685913086,8.070817947387695,-18.97446060180664,14.73626708984375
0,400433,-11.580520629882812,18.623098373413086,21.629806518554688,-23.13933563232422
0,400433,17.689571380615234,-0.7588376402854919,7.582118988037109,-9.625712394714355
0,400433,3.2454445362091064,-15.536304473876953,-6.098548889160156,57.90455627441406
0,400433,-8.005155563354492,14.817414283752441,-1.450014591217041,-1.7154207229614258
0,400433,16.784404754638672,8.666006088256836,-15.038557052612305,-33.26072311401367
0,400433,2.382830858230591,-19.55267333984375,-4.190589904785156,-10.866640090942383
0,400434,-6.3592329025268555,1.7598309516906738,8.960143089294434,-2.349757671356201
0,400434,9.525799751281738,2.5118660926818848,5.741761207580566,26.585512161254883
0,400434,-11.666939735412598,-2.483058214187622,-0.09125390648841858,-0.40596362948417664
0,400434,-15.942794799804688,3.1287026405334473,-3.335447072982788,-15.438133239746094
0,400434,3.289891242980957,-14.06156063079834,1.0661066770553589,31.20267105102539
0,400434,-4.355474948883057,6.422571659088135,8.253592491149902,-1.6836719512939453
0,400435,-1.311885118484497,15.834481239318848,-4.727141857147217,-24.62639045715332
0,400435,19.526399612426758,-20.066993713378906,2.924311876296997,27.089496612548828
0,400435,1.866105556488037,0.5261246562004089,10.607065200805664,-0.9131730198860168
0,400435,-4.094021797180176,25.57891845703125,-16.0329647064209,-30.757814407348633
0,400435,12.648914337158203,10.863245964050293,-2.3884506225585938,5.7012152671813965
0,400436,-6.91189432144165,-18.294944763183594,5.168130874633789,24.661331176757812
0,400436,-11.472105979919434,-5.540652275085449,-6.195374965667725,7.470992088317871
0,400436,7.991273403167725,13.338191986083984,6.146658897399902,-15.019350051879883
0,400436,16.455764770507812,-14.938264846801758,-7.2108988761901855,-19.21647071838379
0,400436,0.9197564721107483,-13.06925106048584,-5.742132663726807,-14.979061126708984
0,400436,-8.910368919372559,3.3656883239746094,18.320165634155273,14.426759719848633
0,400437,0.13799692690372467,10.3048095703125,4.9318156242370605,11.031779289245605
0,400437,-0.8882373571395874,2.5691404342651367,-3.220940351486206,-13.864198684692383
0,400437,5.513880729675293,-15.539103507995605,-4.244411468505859,-9.820074081420898
0,400437,-2.610297679901123,-4.399137020111084,3.9772233963012695,3.7912216186523438
0,400437,-12.71471118927002,23.467626571655273,21.96442413330078,22.476655960083008
0,400437,-7.498516082763672,1.2061951160430908,-8.731329917907715,-1.754285216331482
0,400438,-10.34734058380127,-4.1018147468566895,-7.0373945236206055,-0.8915709257125854
0,400438,15.711495399475098,31.05279541015625,14.812884330749512,11.523470878601074
0,400438,14.720355987548828,-11.014169692993164,-14.89893913269043,-14.30199146270752
0,400438,-6.50607442855835,-15.478516578674316,0.0994444340467453,-1.4803844690322876
0,400438,13.68887996673584,14.851656913757324,15.588235855102539,0.7102998495101929
0,400438,-7.7981157302856445,-19.633419036865234,-15.289060592651367,5.389435768127441
0,400439,-20.611207962036133,5.760675430297852,-7.640978813171387,19.421541213989258
0,400439,24.298419952392578,15.856461524963379,1.2304595708847046,-19.835416793823242
0,400439,13.04499626159668,-31.31170082092285,1.133101224899292,-16.90227699279785
0,400439,-24.05694007873535,-8.48745059967041,-3.9624645709991455,15.789266586303711
0,400439,-7.016841888427734,9.4057035446167,-9.969924926757812,6.785614967346191
0,400439,14.859993934631348,-4.013421535491943,9.999899864196777,-17.108747482299805
0,400440,1.9811375141143799,2.0034995079040527,-8.98057746887207,-9.651774406433105
0,400440,-16.922483444213867,-1.3304822444915771,-17.11284065246582,22.39716148376465
0,400440,-7.589330673217773,-0.048514474183321,13.313116073608398,16.715822219848633
0,400440,-2.6008756160736084,14.916925430297852,11.528440475463867,-15.80842113494873
0,400440,-2.68351411819458,-11.869808197021484,-15.3441162109375,-27.86666488647461
0,400440,1.958796501159668,-22.083885192871094,0.015699094161391258,7.3719635009765625
0,400442,0.7374720573425293,14.020539283752441,14.763826370239258,10.671074867248535
0,400442,0.9318620562553406,15.368535041809082,-1.042008638381958,-1.5708608627319336
0,400442,7.190767765045166,8.111978530883789,-0.2596091628074646,6.941919803619385
0,400442,7.159104347229004,-8.056217193603516,-6.546999931335449,-17.926225662231445
0,400442,-12.117547988891602,-26.009197235107422,3.282762050628662,11.694387435913086
0,400443,1.9340808391571045,13.368270874023438,5.353409290313721,28.157026290893555
0,400443,11.746284484863281,26.86357307434082,-6.405905246734619,-19.71084976196289
0,400443,-6.983915328979492,1.9008039236068726,5.949202537536621,-7.971230983734131
0,400443,0.619335412979126,-1.5455780029296875,17.21428108215332,0.8973000049591064
0,400444,4.546626567840576,-2.7379610538482666,-3.81792950630188,8.733872413635254
0,400446,1.4998176097869873,-3.1472573280334473,-15.291726112365723,15.57089614868164
0,400448,7.68831205368042,-15.196798324584961,2.7811012268066406,-9.360230445861816
0,400450,-7.275460720062256,7.581786632537842,-8.642781257629395,1.6981384754180908
0,400452,2.4569828510284424,11.363605499267578,-4.840122222900391,-18.5792293548584
0,400454,7.4529128074646,-30.39467430114746,-0.5467370748519897,-13.13427734375
0,400456,-20.28228759765625,0.044986918568611145,-0.9932270646095276,35.07538604736328
0,400458,9.455989837646484,37.8981819152832,20.03421401977539,-5.66581392288208
0,400460,1.4496850967407227,-15.54839038848877,4.806539535522461,-44.61051559448242
0,400462,-27.176836013793945,-37.18250274658203,-6.161396026611328,11.953627586364746
0,400464,12.762088775634766,28.955875396728516,16.9881591796875,42.397117614746094
0,400466,18.070907592773438,31.84279441833496,16.870079040527344,-16.298147201538086
0,400468,-19.51987648010254,-26.24138641357422,-46.943214416503906,-18.20790672302246
0,400470,-11.143929481506348,-26.355134963989258,-35.537532806396484,24.5900821685791
0,400473,21.566551208496094,17.013463973999023,45.27784729003906,-11.255059242248535
0,400474,5.406576156616211,8.97375774383545,16.034393310546875,-16.35722541809082
0,400477,3.0596237182617188,-9.185674667358398,-25.775997161865234,27.009328842163086
0,400478,14.491716384887695,18.603961944580078,5.683027267456055,9.973834037780762
0,400481,-22.96085548400879,-4.86973762512207,-8.252908706665039,-23.31952476501465
0,400482,-7.005936145782471,-24.116167068481445,-11.526226997375488,-23.27356719970703
0,400485,26.0968074798584,20.228288650512695,36.77220916748047,26.783994674682617
0,400486,-10.100201606750488,18.104690551757812,3.530654191970825,21.67222023010254
0,400487,7.64605712890625,-1.5659013986587524,-17.14992904663086,-39.14862823486328
0,400490,0.8126932978630066,-13.188552856445312,0.3087438642978668,9.23872184753418
0,400491,-24.880634307861328,-2.564997434616089,5.517884254455566,25.446657180786133
0,400494,23.59408187866211,5.201040744781494,11.076069831848145,-19.154911041259766
0,400495,3.4527690410614014,-13.435088157653809,-22.360126495361328,14.557400703430176
0,400689,-35.830909729003906,21.35795021057129,-3.524968147277832,19.608489990234375
0,400689,4.418688774108887,-2.8625881671905518,24.59515380859375,1.2818855047225952
0,400689,26.304912567138672,-34.89668655395508,-11.094696998596191,5.62863826751709
0,400690,-0.9812018275260925,20.029638290405273,-7.181198596954346,-28.02225685119629
0,400690,-8.96828842163086,5.2105631828308105,2.147218942642212,-20.064327239990234
0,400690,-5.728184223175049,-25.585439682006836,-8.774129867553711,18.027435302734375
0,400690,-11.409783363342285,3.025467872619629,17.46489715576172,-9.05832290649414
0,400690,-7.642551898956299,20.766372680664062,6.637914657592773,-18.479305267333984
0,400690,11.172135353088379,15.0864839553833,-21.430471420288086,-11.32988452911377
0,400691,18.451778411865234,-23.342573165893555,3.0863521099090576,-1.919216275215149
0,400691,-15.36853313446045,-17.7584285736084,3.4318716526031494,15.54480266571045
0,400691,-13.303240776062012,16.920717239379883,-11.576231956481934,-19.56296730041504
0,400691,25.159202575683594,3.90228271484375,-12.95805835723877,-10.263381958007812
0,400691,14.62851619720459,15.689801216125488,-10.97954273223877,27.35979652404785
0,400691,-3.7358973026275635,6.941494941711426,11.797266960144043,10.089783668518066
0,400692,-11.612780570983887,-30.395387649536133,13.388442039489746,-5.044425010681152
0,400692,-6.546997547149658,1.17445969581604,0.634258508682251,2.0422286987304688
0,400692,3.722881317138672,28.87120819091797,13.502327919006348,11.121319770812988
0,400692,13.378175735473633,8.29720401763916,12.169801712036133,1.467085838317871
0,400692,2.3843655586242676,-22.3825626373291,-10.88859748840332,-6.050518035888672
0,400693,-24.223722457885742,-21.53166389465332,-6.934389591217041,9.416016578674316
0,400693,6.091841220855713,20.390562057495117,-7.565311908721924,6.0999555587768555
0,400693,6.045151710510254,3.748941659927368,-1.9152604341506958,-11.164463996887207
0,400693,-13.074711799621582,-13.109683990478516,22.09006690979004,1.2549817562103271
0,400693,10.088155746459961,10.057024002075195,-2.7603919506073,7.793299198150635
0,400693,1.4106159210205078,-5.1627302169799805,-10.433979034423828,8.39813232421875
0,400694,-5.659683704376221,0.5861114263534546,19.82906723022461,6.213815689086914
0,400694,9.851069450378418,11.709514617919922,13.675530433654785,-18.42994499206543
0,400694,4.860766887664795,-2.0194263458251953,-1.0513834953308105,-9.64242172241211
0,400694,-11.062915802001953,-26.681673049926758,-14.508916854858398,28.467931747436523
0,400694,-11.206096649169922,-11.758443832397461,-0.171708881855011,5.424544811248779
0,400694,17.350454330444336,50.406707763671875,16.7828311920166,-21.192075729370117
0,400695,22.11113739013672,20.229076385498047,-17.620662689208984,11.167043685913086
0,400695,-16.22539710998535,-35.641658782958984,-21.75772476196289,-2.660342216491699
0,400695,-17.80813980102539,-11.505518913269043,1.8437951803207397,-6.920712471008301
0,400695,11.07532787322998,5.031122207641602,4.633385181427002,-0.0451069250702858
0,400695,6.343343257904053,-4.13847017288208,-9.382044792175293,-25.805294036865234
0,400695,-11.45517635345459,-3.7404956817626953,-13.034343719482422,15.325263023376465
0,400696,-17.01551628112793,-1.8398239612579346,-1.981792688369751,21.152366638183594
0,400696,-3.010701894760132,12.13516902923584,1.6248986721038818,-17.202058792114258
0,400696,26.107162475585938,2.1399707794189453,-1.7936097383499146,-19.5311279296875
0,400696,-0.43825793266296387,-18.07731056213379,-13.126847267150879,-6.582949161529541
0,400696,-24.189937591552734,-7.719857215881348,-8.012425422668457,10.750001907348633
0,400696,9.3583345413208,11.776630401611328,13.262979507446289,-6.335178375244141
0,400697,8.651111602783203,4.270285606384277,11.971731185913086,5.794194221496582
0,400697,-12.712242126464844,-16.952598571777344,12.93433666229248,44.43184280395508
0,400697,1.7037290334701538,-0.4996907413005829,9.183557510375977,8.539734840393066
0,400697,15.591472625732422,21.455224990844727,2.2276241779327393,-44.008724212646484
0,400697,-5.3007121086120605,18.43491554260254,14.391789436340332,-15.452351570129395
0,400697,-12.613627433776855,-13.769607543945312,1.832418441772461,27.496166229248047
0,400698,6.669239044189453,-7.842681407928467,-6.704349517822266,8.151030540466309
0,400698,7.519204139709473,5.666007041931152,1.8654290437698364,-23.01471519470215
0,400698,-7.7686238288879395,-21.311107635498047,6.236909866333008,-4.964908599853516
0,400698,3.409998893737793,17.113903045654297,-8.532795906066895,4.482478141784668
0,400698,4.165807723999023,26.383289337158203,-5.828638076782227,-6.909534454345703
0,400698,-11.315316200256348,-18.46969985961914,7.495978355407715,8.24206256866455
0,400699,10.683894157409668,-3.0812430381774902,-12.163972854614258,1.2323611974716187
0,400699,10.844101905822754,-2.3964974880218506,-6.405752658843994,-12.383316993713379
0,400699,-7.376331329345703,-3.816114664077759,2.46179461479187,17.90400505065918
0,400699,-0.06261575222015381,19.412996292114258,0.5663022994995117,15.708364486694336
0,400699,-2.6865499019622803,-1.8565099239349365,15.845293045043945,-19.012187957763672
0,400699,0.1382884979248047,-16.000415802001953,14.841347694396973,-9.05056095123291
0,400700,20.0032901763916,6.619297504425049,-5.4931535720825195,9.624667167663574
0,400700,-9.101794242858887,-7.935681343078613,-15.911760330200195,13.459370613098145
0,400700,-12.263677597045898,-7.683043956756592,-1.193953037261963,-12.865907669067383
0,400700,29.718704223632812,31.391145706176758,-4.956762790679932,-20.336679458618164
0,400700,-9.12525463104248,-6.708556652069092,-14.508797645568848,-0.6786600947380066
0,400701,-34.85615539550781,-42.08318328857422,5.074898719787598,12.891921043395996
0,400701,20.22197723388672,16.3458251953125,-2.3401243686676025,1.8241909742355347
0,400701,11.970904350280762,18.067569732666016,-9.822648048400879,-23.472965240478516
0,400701,-33.0570182800293,-19.003175735473633,14.347546577453613,5.114065647125244
0,400701,7.7456183433532715,4.905324935913086,17.20189094543457,15.310810089111328
0,400701,17.005308151245117,1.0115277767181396,-5.473936080932617,3.0769495964050293
0,400702,-29.585893630981445,1.9903868436813354,-6.174900531768799,11.137897491455078
0,400702,-18.241201400756836,13.350268363952637,13.800993919372559,6.9869384765625
0,400702,33.067039489746094,-8.865691184997559,11.176836013793945,2.385283946990967
0,400702,10.527417182922363,1.2647165060043335,-14.691697120666504,5.285124778747559
0,400702,-30.234180450439453,2.1641550064086914,-14.617852210998535,-5.25579833984375
0,400702,15.831538200378418,1.1120975017547607,13.650951385498047,-20.98436737060547
0,400703,25.954893112182617,10.43680191040039,0.7722727060317993,10.01976490020752
0,400703,-15.133552551269531,-6.007899284362793,-11.502833366394043,31.06553840637207
0,400703,-7.060778617858887,3.9177682399749756,-1.7935057878494263,-3.516289710998535
0,400703,12.623912811279297,0.2547163963317871,-7.997102737426758,-9.773276329040527
0,400703,-3.332051992416382,-14.994874954223633,-0.30741044878959656,-5.110540390014648
0,400703,0.09821207076311111,6.997732639312744,0.1513127237558365,-19.851642608642578
0,400704,16.899391174316406,8.996273040771484,-14.02123737335205,-13.984066009521484
0,400704,-4.072425365447998,-16.347557067871094,-0.20563951134681702,14.202871322631836
0,400704,-18.245054244995117,2.7706470489501953,27.681306838989258,15.510479927062988
0,400704,0.02818509005010128,7.888214111328125,6.028263092041016,-5.7047505378723145
0,400704,8.638925552368164,-18.581357955932617,-13.558173179626465,-17.024181365966797
0,400704,-7.984259128570557,8.216821670532227,9.220407485961914,6.915058612823486
0,400705,-7.693736553192139,8.24682903289795,-0.5616973042488098,15.936713218688965
0,400705,15.874013900756836,-7.084794044494629,-13.37621021270752,-11.2709379196167
0,400705,-9.799396514892578,4.4774699211120605,9.57790470123291,-1.5790743827819824
0,400705,-19.78142738342285,3.3374433517456055,23.840316772460938,-7.168397903442383
0,400705,24.728416442871094,-2.092003345489502,1.6041576862335205,8.400052070617676
0,400707,6.010579586029053,-5.528404235839844,-31.059236526489258,34.02056121826172
0,400707,-15.660113334655762,-1.9872422218322754,-9.098226547241211,0.7211838364601135
0,400707,16.011341094970703,13.173418998718262,13.34151554107666,-22.068506240844727
0,400707,4.2418904304504395,7.981389999389648,-9.63452434539795,-20.376596450805664
0,400707,-21.84662437438965,-25.659826278686523,-0.8679141998291016,-3.1829171180725098
0,400707,-0.4822968542575836,-19.639476776123047,1.4933621883392334,-8.32099437713623
0,400708,-0.24247859418392181,14.250114440917969,-25.00098991394043,-1.039801836013794
0,400708,-0.31325793266296387,17.136138916015625,-0.2632046937942505,7.064947128295898
0,400708,7.381959915161133,-2.947403907775879,29.722597122192383,-10.004087448120117
0,400709,4.970137596130371,3.0386738777160645,27.14665985107422,10.007010459899902
0,400709,8.750870704650879,6.773046970367432,19.47416114807129,17.584095001220703
0,400712,-11.886787414550781,-15.300683975219727,-25.168474197387695,-2.9892685413360596
0,400713,-6.128785610198975,-14.367532730102539,-44.44548797607422,-12.267688751220703
0,400716,18.376998901367188,17.209171295166016,22.31512451171875,47.23666763305664
0,400717,5.642802715301514,26.791545867919922,45.82268142700195,-1.046280860900879
0,400720,-17.663650512695312,0.8296107649803162,-25.608905792236328,-74.70521545410156
0,400721,-3.955782413482666,-29.13709259033203,-8.240717887878418,40.339473724365234
0,400724,10.482498168945312,-11.597294807434082,20.910837173461914,28.25179100036621
0,400725,-6.789892196655273,18.102737426757812,-34.547611236572266,-35.661537170410156
0,400728,-14.174297332763672,-7.168190956115723,-0.8956887722015381,10.614601135253906
0,400729,0.21950410306453705,-14.183670043945312,5.77427864074707,2.1822543144226074
0,400732,11.578500747680664,6.412637710571289,-20.127334594726562,-14.376319885253906
0,400733,3.4682650566101074,26.752416610717773,26.988080978393555,4.907936096191406
0,400736,-11.502789497375488,9.131307601928711,4.777408599853516,2.1136722564697266
0,400737,0.40894779562950134,-27.041622161865234,-33.80140686035156,-2.698060989379883
0,400740,15.870491981506348,-5.894979476928711,26.228185653686523,12.577025413513184
0,400741,0.11788871884346008,9.884056091308594,44.371795654296875,2.3907546997070312
0,400744,-9.213525772094727,-6.6752800941467285,-30.226119995117188,7.911303997039795
0,400745,11.599302291870117,8.140752792358398,-23.90692901611328,20.157127380371094
0,400748,-0.588959813117981,-2.9456417560577393,-7.133416175842285,-27.20012092590332
0,400749,-17.12525749206543,-11.9727783203125,-2.954620838165283,-33.397823333740234
0,400752,10.321148872375488,22.180837631225586,33.116390228271484,7.875184059143066
0,400753,29.213443756103516,-1.0498169660568237,-2.4945127964019775,8.53811264038086
0,400756,-0.38036784529685974,-24.191410064697266,-15.870957374572754,4.394189834594727
0,400758,-45.06749725341797,4.552579402923584,-11.440753936767578,-4.404508113861084
0,400760,-9.752918243408203,14.785533905029297,5.59674072265625,2.3634438514709473
0,400762,27.943178176879883,-18.293380737304688,29.465078353881836,-10.553462982177734
0,400955,1.3242336511611938,-11.003517150878906,-45.20292282104492,-14.590431213378906
0,400955,-8.633819580078125,30.89202308654785,-36.01015090942383,24.9060001373291
0,400955,7.95217227935791,19.84970474243164,56.27511978149414,-4.106088638305664
0,400955,7.709599018096924,-10.75623893737793,9.659908294677734,-16.80265998840332
0,400956,-8.044391632080078,-15.716222763061523,-22.247169494628906,23.747102737426758
0,400956,-14.686537742614746,-2.590001106262207,17.694713592529297,16.62132453918457
0,400956,-4.830542087554932,3.200200319290161,2.5568344593048096,-19.784805297851562
0,400956,16.21343994140625,13.13663387298584,-8.407187461853027,-18.900001525878906
0,400956,15.108412742614746,-3.6003615856170654,14.677080154418945,17.925886154174805
0,400957,-3.934892177581787,-11.030681610107422,10.128792762756348,30.60260009765625
0,400957,-2.8804235458374023,14.290375709533691,-2.060490369796753,-1.156301498413086
0,400957,-6.8402485847473145,-6.799849987030029,0.6266971230506897,-25.402664184570312
0,400957,-9.667520523071289,-12.645596504211426,4.441651821136475,4.42454719543457
0,400957,5.782693862915039,-0.11813575774431229,12.699043273925781,13.133549690246582
0,400957,-0.022347252815961838,11.62765884399414,-10.184064865112305,-24.614261627197266
0,400958,-3.263122320175171,6.053747177124023,-21.587181091308594,2.373131036758423
0,400958,4.09203577041626,-15.905335426330566,-2.4135687351226807,32.556732177734375
0,400958,4.432835102081299,5.596251487731934,0.4044407308101654,-5.843550682067871
0,400958,17.057506561279297,23.56305503845215,9.750654220581055,-19.763845443725586
0,400958,0.12318819761276245,-6.5152716636657715,2.5456247329711914,-12.195459365844727
0,400958,-0.08854346722364426,-16.156675338745117,-16.79798698425293,-0.9656773805618286
0,400959,10.838948249816895,15.731522560119629,-0.5106846690177917,30.039793014526367
0,400959,-25.826730728149414,-0.8986104130744934,5.130395412445068,9.552474975585938
0,400959,-4.373979091644287,-17.207304000854492,2.393362283706665,-25.111684799194336
0,400959,16.490392684936523,12.756488800048828,5.377975940704346,14.094616889953613
0,400959,-18.302778244018555,-5.019092559814453,-6.275078296661377,18.086036682128906
0,400960,-23.231708526611328,-46.07597351074219,-8.966761589050293,-21.0715274810791
0,400960,-2.541334629058838,-8.263834953308105,-5.4980363845825195,-6.165771961212158
0,400960,20.229402542114258,25.070466995239258,3.9181251525878906,-0.3829927146434784
0,400960,-1.3150047063827515,1.5340951681137085,4.16973876953125,-12.13381576538086
0,400960,-23.494138717651367,-4.635727405548096,-16.24038314819336,-10.198860168457031
0,400960,4.429371356964111,13.883975982666016,11.544195175170898,-15.070460319519043
0,400961,14.081965446472168,7.305514812469482,30.86897850036621,5.261397361755371
0,400961,16.233821868896484,-12.821474075317383,-6.051497459411621,13.600967407226562
0,400961,6.801740646362305,25.396581649780273,-9.380437850952148,-21.944482803344727
0,400961,3.538734197616577,28.218894958496094,4.5229949951171875,-16.87111473083496
0,400961,12.198100090026855,-29.459745407104492,-3.666893720626831,15.215813636779785
0,400961,-10.089012145996094,-8.96599292755127,-8.477217674255371,13.407166481018066
0,400962,-6.569282531738281,22.766456604003906,5.889968395233154,14.320143699645996
0,400962,6.020282745361328,5.672429084777832,1.0445295572280884,16.15624237060547
0,400962,-7.958448886871338,-11.675273895263672,-11.16666316986084,-10.168320655822754
0,400962,-0.5492489337921143,-26.75786590576172,14.707901000976562,-1.9133484363555908
0,400962,3.6047441959381104,-5.9717698097229,-0.37029242515563965,19.51169204711914
0,400962,-13.530684471130371,24.447181701660156,-18.55939483642578,9.656641006469727
0,400963,-2.3227434158325195,-0.8016940355300903,8.052082061767578,-14.670024871826172
0,400963,-1.1283204555511475,-9.714484214782715,-3.7462856769561768,-22.451122283935547
0,400963,-0.04948723688721657,14.987610816955566,-13.21383285522461,4.510202884674072
0,400963,4.738296031951904,-6.115395545959473,4.765307903289795,11.213761329650879
0,400963,-17.73879051208496,-12.064697265625,0.08846978098154068,7.067008972167969
0,400963,-4.910216808319092,-2.9508612155914307,8.696256637573242,10.191094398498535
0,400964,22.260900497436523,-4.9455060958862305,17.20596694946289,-9.247743606567383
0,400964,12.480399131774902,25.030620574951172,0.1525876373052597,-23.868915557861328
0,400964,-11.773667335510254,2.1506729125976562,-13.758915901184082,5.528356075286865
0,400964,-11.782769203186035,-23.819114685058594,-16.030902862548828,31.02265167236328
0,400964,6.586459636688232,7.011143207550049,12.484969139099121,25.38068962097168
0,400964,13.88705062866211,1.4881341457366943,19.5366153717041,-34.13241958618164
0,400965,1.375802993774414,1.3645092248916626,1.8892288208007812,-35.00251388549805
0,400965,-2.8730854988098145,28.409204483032227,-2.788414478302002,23.980634689331055
0,400965,14.24798583984375,-9.383216857910156,-3.0874435901641846,1.854460597038269
0,400965,-6.265128135681152,-23.88276481628418,-17.625093460083008,-4.043853282928467
0,400965,-17.956315994262695,21.238391876220703,-14.291224479675293,0.22535541653633118
0,400965,2.493417739868164,1.2755240201950073,21.52257537841797,-12.431507110595703
0,400966,-5.571242809295654,-29.16826820373535,-9.982162475585938,-20.571569442749023
0,400966,5.540029525756836,-5.917844772338867,-19.07560157775879,3.777839183807373
0,400966,9.880952835083008,15.626629829406738,29.75511360168457,21.407732009887695
0,400966,-7.007588863372803,-1.2544503211975098,6.563633441925049,2.357034921646118
0,400966,-1.0023897886276245,17.924043655395508,-19.60479736328125,5.702798366546631
0,400966,5.3243088722229,10.79367733001709,-5.122602939605713,-27.21394157409668
0,400967,2.3206515312194824,-24.966323852539062,18.403209686279297,-2.2726638317108154
0,400967,0.04081787168979645,1.4885867834091187,4.977908611297607,28.069923400878906
0,400967,-3.7375247478485107,11.865179061889648,-11.742515563964844,-5.628800868988037
0,400967,-4.3861260414123535,-10.627836227416992,6.201383113861084,-1.9920713901519775
0,400967,3.214897394180298,-20.916414260864258,5.75357723236084,-11.259902954101562
0,400967,-8.196656227111816,11.20194149017334,11.911633491516113,4.984947681427002
0,400968,2.6839306354522705,20.30267906188965,-1.030238151550293,10.961851119995117
0,400968,17.639123916625977,-6.738399505615234,-18.468963623046875,2.7723827362060547
0,400968,-13.271538734436035,3.169135332107544,0.8065847158432007,4.305252552032471
0,400968,-7.807255744934082,15.087042808532715,11.986978530883789,-17.96222496032715
0,400968,27.524063110351562,-8.628571510314941,1.660908818244934,2.9099504947662354
0,400968,-4.183980464935303,-25.237234115600586,-17.130434036254883,17.803842544555664
0,400969,-35.975852966308594,-6.447219371795654,-3.477294445037842,13.657930374145508
0,400969,5.347077369689941,27.868892669677734,19.931283950805664,-5.122550964355469
0,400969,19.68960189819336,12.778550148010254,-7.512540817260742,-17.932228088378906
0,400969,-15.320926666259766,-22.41490364074707,-12.687483787536621,2.7482268810272217
0,400969,-7.583845615386963,-2.5962624549865723,8.71754264831543,-3.7709901332855225
0,400970,12.599595069885254,-9.406962394714355,-0.19835805892944336,20.035152435302734
0,400970,2.6406748294830322,-8.527029991149902,11.145663261413574,12.064396858215332
0,400970,9.71435832977295,21.782909393310547,5.104513645172119,-11.250611305236816
0,400970,-5.615760326385498,-0.7946435809135437,-23.66431427001953,6.4891510009765625
0,400970,-16.965974807739258,-5.87785530090332,6.575664520263672,-19.28394889831543
0,400970,16.024593353271484,-2.572222948074341,6.171724319458008,-0.749369204044342
0,400971,19.79249382019043,5.431736946105957,-12.749994277954102,21.866897583007812
0,400971,0.9380039572715759,30.003393173217773,4.885350227355957,-9.51271915435791
0,400971,-7.223416805267334,-13.268183708190918,-12.281148910522461,-5.46012020111084
0,400971,-7.745039463043213,-27.74768829345703,-0.09070353955030441,2.102736711502075
0,400971,-3.9772238731384277,19.49142837524414,16.5560359954834,-10.83423900604248
0,400972,-6.021442413330078,-4.584739685058594,-8.686792373657227,-8.35631275177002
0,400973,-12.941141128540039,-32.63276672363281,1.9240049123764038,-13.818742752075195
0,400973,0.19181735813617706,9.839104652404785,6.062121868133545,3.533281087875366
0,400973,12.9242582321167,28.498945236206055,-9.301034927368164,20.606653213500977
0,400973,3.1381869316101074,8.905366897583008,-1.3603861331939697,-13.732134819030762
0,400973,-0.644574761390686,-17.225658416748047,7.0242462158203125,-17.597505569458008
0,400973,1.5683929920196533,-6.638391971588135,15.808514595031738,7.0298542976379395
0,400974,0.12351427972316742,14.45796012878418,0.8325562477111816,2.7005956172943115
0,400974,-4.272968292236328,3.9214112758636475,-20.778165817260742,6.203744888305664
0,400975,6.260788917541504,-14.161083221435547,-3.4406397342681885,-7.12355899810791
0,400976,5.440520286560059,-15.522637367248535,22.44254493713379,-3.85231351852417
0,400978,-16.93214225769043,11.135257720947266,-18.356258392333984,8.75455093383789
0,400980,4.418891429901123,-0.6207686066627502,-19.7586669921875,-9.668288230895996
0,400982,7.841198444366455,4.44740104675293,45.911930084228516,19.42287826538086
0,400984,-14.468244552612305,6.659592628479004,12.970664024353027,20.1005859375
0,400986,19.684520721435547,8.704462051391602,-24.22511863708496,-27.27965545654297
0,400988,10.397835731506348,9.623210906982422,-28.567941665649414,-4.702423572540283
0,400990,-11.01137638092041,-14.262455940246582,0.6442916393280029,36.005638122558594
0,400992,-11.100044250488281,-9.806150436401367,12.177681922912598,-12.111491203308105
0,400994,-6.3282623291015625,-8.559852600097656,-13.436586380004883,-16.843788146972656
0,400996,17.427753448486328,13.223540306091309,20.355009078979492,23.504348754882812
0,400998,2.6974496841430664,2.727367639541626,8.348350524902344,7.018064498901367
0,401000,4.253570079803467,-10.190747261047363,-4.339994430541992,-14.771478652954102
0,401002,-17.287546157836914,2.7880146503448486,3.8043053150177,-30.115217208862305
0,401005,-23.303985595703125,-2.5606536865234375,-4.098270416259766,-7.56594705581665
0,401006,24.449932098388672,-6.596323013305664,12.934725761413574,28.662261962890625
0,401009,5.183136463165283,-7.467731475830078,3.859926700592041,29.924457550048828
0,401010,-21.3974666595459,7.012533664703369,-12.207453727722168,-4.126430511474609
0,401013,8.687179565429688,18.916715621948242,-5.520000457763672,-36.84458541870117
0,401014,17.155364990234375,13.479730606079102,-4.629668235778809,-19.38957405090332
0,401017,-3.3316643238067627,-7.954001426696777,-16.44939422607422,27.16022491455078
0,401018,-6.8826141357421875,-11.265060424804688,2.5236806869506836,22.68543815612793
0,401019,1.8271585702896118,8.729401588439941,17.938037872314453,-20.333477020263672
0,401022,11.418234825134277,-3.683436870574951,3.58005952835083,-12.355945587158203
0,401023,-2.2124478816986084,-13.931989669799805,1.7160377502441406,0.222805455327034
0,401026,-15.22030258178711,17.65249252319336,-6.068236827850342,4.696315288543701
0,401027,-3.9537720680236816,0.07093667984008789,-8.79970645904541,23.501554489135742
0,401221,2.5706045627593994,-36.06497573852539,-16.498746871948242,-21.949087142944336
0,401221,5.5412187576293945,1.6983574628829956,-5.063394546508789,-38.08060073852539
0,401221,-2.06058669090271,14.796158790588379,18.511260986328125,23.382638931274414
0,401221,1.4398552179336548,-3.585209369659424,2.796856641769409,23.372447967529297
0,401222,-2.2874045372009277,1.8024760484695435,-4.036242961883545,-7.061829090118408
0,401222,1.136674165725708,9.034379959106445,-2.648754835128784,-8.45750617980957
0,401222,2.857426643371582,3.4348793029785156,1.1133067607879639,12.054986953735352
0,401222,-8.795289039611816,0.7508738040924072,22.842782974243164,5.463343143463135
0,401222,17.506587982177734,4.78137731552124,8.906689643859863,-13.18294906616211
0,401222,4.681977272033691,-13.015138626098633,-9.00474739074707,10.113313674926758
0,401223,-21.17519187927246,6.372950077056885,15.544954299926758,18.268877029418945
0,401223,1.9587619304656982,28.45784568786621,11.675067901611328,-10.488873481750488
0,401223,12.97708797454834,-10.235547065734863,-8.328319549560547,-20.8885440826416
0,401223,-5.9669599533081055,-21.730575561523438,-8.344767570495605,24.262731552124023
0,401223,-3.778231382369995,8.31313705444336,-7.650485515594482,11.667505264282227
0,401223,11.466167449951172,10.708614349365234,-15.926703453063965,-24.527362823486328
0,401224,-6.884075164794922,-9.100686073303223,-21.066770553588867,5.142934322357178
0,401224,-1.751894235610962,-4.272122383117676,-1.6072841882705688,-0.4019535481929779
0,401224,22.95526885986328,7.994334697723389,18.623620986938477,-5.87129545211792
0,401224,-4.367591857910156,-8.692184448242188,7.399861812591553,8.261885643005371
0,401224,-30.26603126525879,-19.361282348632812,-12.585639953613281,8.869625091552734
0,401225,3.0730397701263428,18.883474349975586,6.0279107093811035,-2.4719555377960205
0,401225,24.107467651367188,19.613704681396484,23.876819610595703,-18.003602981567383
0,401225,-2.704139471054077,-28.902149200439453,-7.300537109375,15.07292652130127
0,401225,-13.501020431518555,-9.437165260314941,-11.73959732055664,16.83358383178711
0,401225,-10.246268272399902,18.56411361694336,4.074136257171631,-16.396690368652344
0,401225,-7.507830619812012,-9.864767074584961,-1.3225126266479492,-3.029893636703491
0,401226,8.131767272949219,12.881845474243164,-4.443507194519043,-20.26812744140625
0,401226,14.108349800109863,7.428800582885742,-12.1780424118042,-10.534809112548828
0,401226,4.23187780380249,-27.640592575073242,13.331257820129395,18.21212387084961
0,401226,-1.227763056755066,16.645875930786133,7.8930206298828125,-14.763313293457031
0,401226,-9.621323585510254,-4.087371349334717,-16.502649307250977,12.361910820007324
0,401226,-8.224343299865723,0.863822877407074,22.665353775024414,13.696751594543457
0,401227,17.820423126220703,21.240310668945312,10.775214195251465,-21.481307983398438
0,401227,-0.7266709208488464,-20.081785202026367,-28.815353393554688,9.040446281433105
0,401227,-22.89897918701172,-2.0237960815429688,3.6230363845825195,29.5238094329834
0,401227,16.313461303710938,13.15688705444336,0.7385616302490234,13.292963981628418
0,401227,13.97038745880127,-3.383936882019043,-3.8841679096221924,-12.7916841506958
0,401227,-8.269983291625977,-15.765298843383789,10.243005752563477,-8.129998207092285
0,401228,5.105736255645752,10.535215377807617,-24.074874877929688,-6.809075832366943
0,401228,-4.303642749786377,2.199366569519043,0.38543158769607544,-20.71092987060547
0,401228,-12.493757247924805,-26.8978271484375,23.565040588378906,4.284477233886719
0,401228,6.119674205780029,9.428450584411621,0.0398407019674778,30.05159568786621
0,401228,19.53626823425293,31.681386947631836,-6.353125095367432,-8.698786735534668
0,401228,-0.08470688760280609,9.081892967224121,-4.206851959228516,-29.01968002319336
0,401229,-22.362892150878906,-19.573448181152344,21.917016983032227,5.161788463592529
0,401229,7.179178714752197,-9.914000511169434,8.282215118408203,5.380975246429443
0,401229,10.35743522644043,13.430164337158203,-10.418197631835938,-3.7158055305480957
0,401229,-17.503944396972656,-4.691014289855957,11.806998252868652,5.860062599182129
0,401229,-8.275424003601074,-5.788214683532715,-21.981481552124023,8.323997497558594
0,401229,2.0419769287109375,12.443572998046875,-14.282106399536133,5.298840522766113
0,401230,9.890664100646973,-6.7629523277282715,30.76904296875,-5.034724712371826
0,401230,-0.01936463452875614,3.5152268409729004,-12.556736946105957,-29.915903091430664
0,401230,-0.05822762846946716,20.087848663330078,-25.87672233581543,-6.951082706451416
0,401230,7.528797626495361,-22.167139053344727,7.3542160987854,34.59526824951172
0,401230,-16.521160125732422,-18.891794204711914,1.0574167966842651,11.807609558105469
0,401230,-8.253878593444824,9.691518783569336,1.292565941810608,-21.16536521911621
0,401231,19.950130462646484,-9.116485595703125,11.545654296875,-4.132567882537842
0,401231,15.556129455566406,-6.023297309875488,-12.237762451171875,19.145156860351562
0,401231,-5.022683143615723,7.616116046905518,-14.713207244873047,-21.22917366027832
0,401231,-22.318279266357422,0.2930396497249603,12.325778007507324,-1.2401764392852783
0,401231,-6.092531681060791,-2.8668553829193115,6.126517295837402,38.41615295410156
0,401231,13.843661308288574,4.349732875823975,-0.6157543063163757,-26.861970901489258
0,401232,-0.7347031831741333,-1.014768123626709,3.6627042293548584,-31.294546127319336
0,401232,-8.265910148620605,4.01953125,-4.076584339141846,25.86261749267578
0,401232,2.625035047531128,18.418903350830078,9.45581340789795,2.321830987930298
0,401232,12.566023826599121,-6.363187313079834,10.093236923217773,-9.584999084472656
0,401232,-10.503958702087402,-24.04041862487793,-20.618070602416992,24.878643035888672
0,401232,-20.001771926879883,7.771461009979248,2.044325828552246,-1.1362277269363403
0,401233,18.118837356567383,24.150455474853516,10.234713554382324,-14.705650329589844
0,401233,7.836784362792969,-11.660835266113281,-0.4669026732444763,-3.7032034397125244
0,401233,-3.5746777057647705,-6.134936332702637,4.125248432159424,-5.621257305145264
0,401233,3.088191270828247,9.61339282989502,-12.647819519042969,24.94597816467285
0,401233,-19.305227279663086,-13.072615623474121,3.6378724575042725,14.412726402282715
0,401233,13.111634254455566,-5.955600738525391,6.786248207092285,-36.4703483581543
0,401234,36.539283752441406,21.70431900024414,-7.5517706871032715,-16.247882843017578
0,401234,-11.773061752319336,16.261272430419922,-0.7755996584892273,30.069915771484375
0,401234,-20.920503616333008,-20.335247039794922,5.370720863342285,27.509428024291992
0,401234,14.229171752929688,-0.2602895200252533,-5.584760665893555,-5.633358955383301
0,401234,10.56417179107666,6.884138107299805,-10.164512634277344,-18.66261863708496
0,401235,-20.22055435180664,-27.122177124023438,5.260552406311035,9.576391220092773
0,401235,-13.64101505279541,5.4078545570373535,19.193098068237305,-2.9336163997650146
0,401235,21.648649215698242,16.609464645385742,11.32672119140625,-24.177387237548828
0,401235,-3.7479071617126465,-9.474970817565918,-23.02458381652832,18.89881134033203
0,401235,-15.648287773132324,4.5648112297058105,-12.46848201751709,16.107751846313477
0,401235,18.382871627807617,7.266554355621338,19.59355354309082,-23.507448196411133
0,401236,-7.235158920288086,-11.712008476257324,-0.23515483736991882,-10.242392539978027
0,401236,-11.616988182067871,-5.828125476837158,-13.606234550476074,0.48394349217414856
0,401236,15.478551864624023,3.9644908905029297,3.82826828956604,-5.381701946258545
0,401236,-5.497223854064941,-1.0892665386199951,7.664437770843506,10.619413375854492
0,401236,-4.255725860595703,17.59910011291504,2.3230087757110596,-7.975629806518555
0,401236,16.034114837646484,-8.667627334594727,-6.8164544105529785,-17.13828468322754
0,401237,-14.541223526000977,-36.99708557128906,-16.200679779052734,30.811771392822266
0,401237,-15.509256362915039,14.399422645568848,4.04246187210083,11.0295991897583
0,401237,22.7439022064209,20.150619506835938,13.334774017333984,-20.893882751464844
0,401237,8.071806907653809,-3.966000556945801,-5.635000228881836,12.396493911743164
0,401238,-21.808652877807617,6.647533416748047,-0.017921214923262596,15.895425796508789
0,401239,-13.26867961883545,11.097068786621094,20.31305694580078,-29.051164627075195
0,401239,16.174463272094727,4.1707587242126465,-1.7497669458389282,-14.433878898620605
0,401239,9.932907104492188,-3.3045787811279297,-19.9316349029541,16.70877456665039
0,401239,-8.657258987426758,-17.74909782409668,9.114945411682129,15.936548233032227
0,401239,9.806873321533203,6.025723934173584,14.298234939575195,5.539796829223633
0,401239,13.824007987976074,16.793437957763672,-7.883059501647949,-19.8898983001709
0,401239,-6.40525484085083,-18.736600875854492,-5.86720609664917,3.666759967803955
0,401240,-10.423386573791504,-8.620598793029785,-2.308218479156494,9.364391326904297
0,401241,-6.886357307434082,3.2664031982421875,-2.56843638420105,0.0008845627307891846
0,401242,-23.268957138061523,-30.730438232421875,-18.617528915405273,2.937980890274048
0,401244,7.390539646148682,1.5753445625305176,0.2913811504840851,-0.2762901782989502
0,401246,23.90041160583496,60.865901947021484,41.18959426879883,-9.737106323242188
0,401248,-9.433091163635254,-5.145205974578857,-26.528554916381836,-16.205516815185547
0,401250,14.725722312927246,-20.990182876586914,-13.30697250366211,11.813511848449707
0,401252,25.437955856323242,12.97633171081543,33.04311752319336,14.96860408782959
0,401254,-16.79039192199707,-19.1608829498291,-6.2135419845581055,16.962339401245117
0,401256,-13.570615768432617,5.09737491607666,-23.551666259765625,-4.918631553649902
0,401258,7.109906196594238,6.83142614364624,5.366269111633301,-35.51250457763672
0,401260,-12.052369117736816,-15.929487228393555,23.864425659179688,24.966053009033203
0,401262,-4.402708530426025,-7.0903215408325195,-13.875149726867676,10.398421287536621
0,401264,9.222180366516113,-14.079017639160156,3.0813560485839844,-45.7912483215332
0,401266,1.4291532039642334,21.440752029418945,-1.5960241556167603,-0.15987232327461243
0,401268,-6.662225246429443,39.02347183227539,-10.551536560058594,19.953929901123047
0,401270,-13.860939979553223,-23.82320213317871,9.773205757141113,4.290158748626709
0,401272,-6.805945873260498,-34.649879455566406,-4.631664276123047,-14.276175498962402
0,401274,3.9872992038726807,21.085195541381836,-6.911016941070557,32.469112396240234
0,401276,18.000410079956055,22.333467483520508,11.277235984802246,12.113860130310059
0,401278,8.974982261657715,-22.012672424316406,10.665995597839355,-64.18789672851562
0,401280,-7.2367072105407715,-5.272634983062744,-9.195125579833984,5.175207138061523
0,401283,8.21796989440918,20.887882232666016,-0.41417592763900757,29.33021354675293
0,401284,3.8524835109710693,-3.3241183757781982,10.132031440734863,5.4938554763793945
0,401287,-14.10834789276123,-0.7495790719985962,-19.432512283325195,-2.4623146057128906
0,401288,-8.68303108215332,-4.341847896575928,-13.189579963684082,-7.774784564971924
0,401291,6.784438610076904,-12.798004150390625,17.840091705322266,7.460101127624512
0,401292,17.13308334350586,31.640687942504883,8.14260482788086,-0.20116427540779114
0,401293,-2.1324384212493896,13.197579383850098,-4.70930290222168,-12.96460247039795
0,401487,-23.64118003845215,-28.465457916259766,4.0076518058776855,-1.135036587715149
0,401487,4.462387561798096,-0.38241976499557495,18.4527587890625,19.776981353759766
0,401487,19.478290557861328,-12.225966453552246,-14.569451332092285,3.6879658699035645
0,401487,-12.348845481872559,1.1786048412322998,-16.569997787475586,-13.024951934814453
0,401488,-18.00174331665039,27.5786190032959,7.188602447509766,6.932366371154785
0,401488,10.543532371520996,-17.689241409301758,-14.245356559753418,3.9398033618927
0,401488,17.640623092651367,-19.91193962097168,-2.6238632202148438,-7.197514057159424
0,401488,-13.969401359558105,8.589643478393555,21.066667556762695,9.340776443481445
0,401488,-8.16850471496582,-5.568032741546631,-5.019255638122559,-3.1402976512908936
0,401488,8.273795127868652,-3.203165054321289,-6.719371795654297,-14.059977531433105
0,401489,-12.752792358398438,1.5051342248916626,4.710595607757568,9.711455345153809
0,401489,9.691605567932129,1.0006203651428223,-9.043811798095703,17.167999267578125
0,401489,10.061202049255371,25.400503158569336,-2.1446950435638428,-20.313201904296875
0,401489,-10.783403396606445,-2.27730393409729,17.235366821289062,-7.5054030418396
0,401489,10.664987564086914,-23.081859588623047,20.881332397460938,16.340545654296875
0,401489,12.906164169311523,4.743969917297363,-6.790493011474609,-8.696724891662598
0,401490,-5.773746013641357,1.1317925453186035,-25.6263370513916,9.446308135986328
0,401490,-18.749582290649414,3.241969585418701,-8.223694801330566,1.844154715538025
0,401490,-5.2676777839660645,5.803852081298828,15.391754150390625,-36.793296813964844
0,401490,12.466446876525879,-16.293663024902344,-5.956067085266113,-17.111087799072266
0,401490,3.851513147354126,2.7741007804870605,-20.60540771484375,32.89530944824219
0,401490,-3.1982100009918213,20.94237518310547,16.266469955444336,23.634769439697266
0,401491,12.122748374938965,14.17408275604248,20.54008674621582,-25.10340118408203
0,401491,1.0836143493652344,-1.760553240776062,-5.880187511444092,-16.764034271240234
0,401491,-8.243416786193848,-17.956600189208984,-4.938999652862549,28.812801361083984
0,401491,12.424663543701172,1.0121219158172607,14.836894035339355,25.5251407623291
0,401491,-1.6487762928009033,13.649885177612305,15.52236270904541,-15.159565925598145
0,401492,-8.818973541259766,10.232147216796875,3.931163787841797,-24.792076110839844
0,401492,18.145334243774414,-2.625962734222412,-0.9560754299163818,-1.3720295429229736
0,401492,3.726207733154297,-22.158077239990234,-4.4361467361450195,27.771909713745117
0,401492,-29.931093215942383,3.8557746410369873,-6.0357561111450195,0.3274800479412079
0,401492,1.5008056163787842,16.964590072631836,-7.734918594360352,-14.612104415893555
0,401492,15.583344459533691,-14.592024803161621,-5.128559589385986,4.636631488800049
0,401493,-25.88286781311035,-12.507525444030762,1.0465092658996582,-10.892293930053711
0,401493,-6.656073570251465,-3.8159940242767334,-6.005767822265625,-13.10560131072998
0,401493,23.015777587890625,5.838629722595215,-6.973583698272705,13.681560516357422
0,401493,-21.083372116088867,6.465341091156006,-6.8489556312561035,10.594161033630371
0,401493,0.5191869735717773,-22.485675811767578,-3.947277069091797,-21.690631866455078
0,401493,31.160018920898438,6.434031963348389,12.473055839538574,13.190410614013672
0,401494,-19.004426956176758,28.987104415893555,-2.624537229537964,15.707414627075195
0,401494,-7.609396457672119,-15.498908042907715,-12.95018482208252,-13.436118125915527
0,401494,4.469324588775635,-4.091790199279785,-0.02853253483772278,1.3315203189849854
0,401494,-9.518253326416016,11.168120384216309,2.4046666622161865,-16.5281982421875
0,401494,10.560014724731445,-9.726119041442871,2.9635508060455322,-0.8736228942871094
0,401494,8.256258964538574,-8.628697395324707,5.274301528930664,30.501495361328125
0,401495,-4.367984771728516,-2.9873108863830566,6.105218887329102,-2.505401849746704
0,401495,-4.366375923156738,11.516621589660645,1.643296241760254,-21.347063064575195
0,401495,-3.983541488647461,-2.5477335453033447,-8.261374473571777,3.7518270015716553
0,401495,2.1415281295776367,-13.355347633361816,-2.110799789428711,15.169864654541016
0,401495,3.947077512741089,2.671444892883301,12.595858573913574,-6.1110334396362305
0,401495,3.156144618988037,3.9368090629577637,0.3206891119480133,-19.028427124023438
0,401496,12.779622077941895,-3.3608345985412598,-7.64194393157959,6.857573509216309
0,401496,-2.9843947887420654,-1.418757677078247,6.104705810546875,-8.146246910095215
0,401496,-10.722644805908203,20.098045349121094,-5.089280128479004,-20.137767791748047
0,401496,9.699014663696289,6.2248382568359375,-1.8119518756866455,34.591705322265625
0,401496,-5.678548336029053,-11.115221977233887,18.824960708618164,19.434343338012695
0,401496,-15.858499526977539,-0.7498584389686584,-9.029030799865723,-32.7709846496582
0,401497,0.6768847703933716,-2.9756813049316406,-11.789527893066406,-6.475279331207275
0,401497,12.935996055603027,-0.1033187210559845,13.215825080871582,23.87462043762207
0,401497,-1.0282503366470337,4.730755805969238,-3.2908637523651123,-2.3055901527404785
0,401497,-7.201216697692871,-3.2258310317993164,-13.107712745666504,-7.0839385986328125
0,401497,-5.519761085510254,-1.2836897373199463,0.08324926346540451,12.224178314208984
0,401497,-13.950782775878906,8.028376579284668,8.001688957214355,-5.883363246917725
0,401498,20.548921585083008,7.458206653594971,5.5251569747924805,-17.702665328979492
0,401498,30.311370849609375,-5.267240047454834,-2.5854604244232178,23.287166595458984
0,401498,-15.427953720092773,-16.977354049682617,-6.067051887512207,10.711176872253418
0,401498,-20.4049072265625,-1.5816069841384888,-8.639217376708984,-25.03607177734375
0,401498,-3.106066942214966,-5.564821243286133,9.56600284576416,9.507389068603516
0,401498,9.485066413879395,8.512718200683594,11.98283576965332,3.7489070892333984
0,401499,15.31629467010498,23.078083038330078,-0.05956610292196274,-13.616534233093262
0,401499,-9.247133255004883,-18.651742935180664,10.921835899353027,13.869369506835938
0,401499,-7.491317272186279,-3.606013536453247,-3.4012370109558105,8.976781845092773
0,401499,5.517000198364258,-3.161137104034424,-4.038280963897705,-29.74646759033203
0,401499,8.494046211242676,-13.571508407592773,4.84517240524292,-2.1493725776672363
0,401499,8.675768852233887,37.4340705871582,-8.485508918762207,30.406320571899414
0,401500,2.4827897548675537,15.388188362121582,-5.249144554138184,-17.159799575805664
0,401500,-0.17473430931568146,-29.9814395904541,2.4120872020721436,0.2653871178627014
0,401500,-2.3583590984344482,-1.3244614601135254,-0.7759906053543091,34.56111526489258
0,401500,-10.152471542358398,23.942399978637695,-8.274181365966797,-28.301464080810547
0,401500,-9.074546813964844,-13.663068771362305,-8.007144927978516,-24.23134994506836
0,401501,11.64405632019043,-14.97394847869873,1.8585604429244995,21.218414306640625
0,401501,-5.0787200927734375,9.511606216430664,6.859622001647949,24.165752410888672
0,401501,-16.31827735900879,1.628838062286377,8.978581428527832,17.713293075561523
0,401501,12.632688522338867,0.44007328152656555,-4.138840675354004,-12.878154754638672
0,401501,13.3704195022583,-5.893867015838623,-9.860724449157715,-20.789796829223633
0,401501,-17.439010620117188,-12.748939514160156,4.685873985290527,0.208059161901474
0,401502,-10.556282997131348,-7.171217441558838,-7.5926618576049805,18.24387550354004
0,401502,14.551355361938477,11.660826683044434,-3.0955562591552734,-4.994271278381348
0,401502,2.3868892192840576,9.182283401489258,13.53437614440918,-23.220151901245117
0,401502,-11.375838279724121,-11.391736030578613,6.785307884216309,6.567632675170898
0,401502,-5.114645481109619,3.275754690170288,-3.785022497177124,7.389766216278076
0,401502,16.46954917907715,29.702863693237305,-7.88764762878418,-0.22827400267124176
0,401503,3.8018898963928223,-11.695945739746094,5.19451904296875,1.5546106100082397
0,401503,-14.515947341918945,-26.2607421875,0.025535253807902336,-14.679644584655762
0,401503,-5.088482856750488,20.484310150146484,2.808475971221924,-2.999676465988159
0,401503,7.965717792510986,1.2373307943344116,8.885472297668457,-1.3281482458114624
0,401504,19.87723159790039,-18.60952377319336,-13.003900527954102,-4.278026103973389
0,401505,-4.391231536865234,22.28925895690918,-3.663191080093384,26.525880813598633
0,401505,-13.41140365600586,9.969381332397461,17.31968116760254,11.520502090454102
0,401505,9.770509719848633,-14.78275203704834,-3.2297165393829346,-17.31864356994629
0,401505,-0.4308415353298187,-2.378371000289917,-20.049816131591797,2.8824942111968994
0,401505,-21.021005630493164,-7.4723100662231445,10.187644958496094,1.7340577840805054
0,401505,11.158373832702637,11.68753719329834,16.345306396484375,-21.943233489990234
0,401505,12.965656280517578,4.394007205963135,-10.903338432312012,-3.7255172729492188
0,401506,-19.492280960083008,-24.144779205322266,-4.625479698181152,6.60716438293457
0,401507,9.982636451721191,17.714298248291016,-3.863480567932129,1.8102905750274658
0,401508,7.1063337326049805,15.07361888885498,-7.632876873016357,-1.9335757493972778
0,401510,-1.4548662900924683,-10.918663024902344,23.55689811706543,-23.823753356933594
0,401512,5.564083576202393,-0.6198087334632874,13.245692253112793,3.9583539962768555
0,401514,-12.997241020202637,-19.21676254272461,-18.246299743652344,43.499794006347656
0,401516,8.852704048156738,1.2490918636322021,-1.5764795541763306,10.426074981689453
0,401518,22.240840911865234,31.017805099487305,7.546553611755371,-27.212167739868164
0,401520,-8.235480308532715,-8.284844398498535,-8.319284439086914,-27.40082550048828
0,401522,-26.480375289916992,-28.857099533081055,-5.041461944580078,-6.688651084899902
0,401524,-9.100059509277344,15.095868110656738,8.913113594055176,22.299968719482422
0,401526,11.082496643066406,26.18380355834961,-12.916059494018555,16.689966201782227
0,401528,7.678690433502197,-5.594899654388428,-10.388564109802246,-4.556668758392334
0,401530,-12.828080177307129,-17.952396392822266,13.394454002380371,-5.746434211730957
0,401532,-8.556646347045898,-17.69183921813965,-2.8679776191711426,14.17888069152832
0,401534,11.282391548156738,-1.0804210901260376,-3.2037649154663086,19.78211212158203
0,401536,11.884196281433105,9.762913703918457,-9.41411018371582,-23.59561538696289
0,401538,-0.07065802067518234,1.9619029760360718,2.6838760375976562,-21.902067184448242
0,401540,-11.61851978302002,3.667067050933838,19.716388702392578,14.403889656066895
0,401542,1.1158533096313477,-3.1308183670043945,1.0080455541610718,24.520641326904297
0,401545,14.887467384338379,17.90632438659668,24.451242446899414,21.21538543701172
0,401737,16.65287208557129,5.963563442230225,-10.32139778137207,-37.8851318359375
0,401738,1.8325988054275513,-14.249043464660645,-49.944793701171875,-41.47465515136719
0,401738,-31.526344299316406,-0.6817241311073303,10.123970031738281,27.133512496948242
0,401738,-19.3864803314209,-7.951797962188721,26.08127212524414,21.21977424621582
0,401738,8.410022735595703,9.442870140075684,-12.841811180114746,-15.070734977722168
0,401738,2.1324775218963623,-10.796711921691895,-20.475830078125,-23.899057388305664
0,401738,2.845090389251709,-22.295883178710938,3.4244847297668457,-3.2299318313598633
0,401739,10.385981559753418,25.296833038330078,10.47647762298584,18.723587036132812
0,401739,-0.3786862790584564,3.1189768314361572,-8.537018775939941,16.99313735961914
0,401739,-15.010034561157227,-27.630109786987305,2.984907865524292,0.614191472530365
0,401739,-3.958353042602539,18.829336166381836,25.74641227722168,-16.196592330932617
0,401739,13.084386825561523,17.708404541015625,11.112654685974121,3.544869899749756
0,401739,14.519630432128906,-7.307291030883789,0.5467347502708435,11.735098838806152
0,401740,7.8295063972473145,10.193711280822754,0.7052909135818481,-27.423791885375977
0,401740,-13.649781227111816,-1.2769668102264404,1.1812492609024048,2.2782280445098877
0,401740,1.0093532800674438,5.36332893371582,-2.2406630516052246,37.247474670410156
0,401740,5.445614337921143,9.594725608825684,-8.855180740356445,-14.25382137298584
0,401740,-17.92380714416504,-31.552734375,6.29837703704834,-0.028763532638549805
0,401740,0.6383383870124817,-18.076448440551758,7.632301330566406,15.112467765808105
0,401741,2.5311295986175537,16.93754768371582,-14.025944709777832,-22.989757537841797
0,401741,5.55651330947876,3.922128438949585,-9.112738609313965,-8.249409675598145
0,401741,0.12258274853229523,-2.3923983573913574,12.008512496948242,29.423625946044922
0,401741,-7.633998394012451,8.574562072753906,10.81645393371582,17.87383460998535
0,401741,15.66563606262207,-6.7117533683776855,4.760137557983398,-23.781837463378906
0,401741,12.6205415725708,7.199371814727783,7.317756652832031,-17.580718994140625
0,401742,0.5066095590591431,20.918354034423828,-9.373224258422852,9.310914039611816
0,401742,-14.448155403137207,-23.207216262817383,-23.31904411315918,17.873924255371094
0,401742,-14.732995986938477,1.452907919883728,-5.971101760864258,7.958973407745361
0,401742,22.70409393310547,27.75714111328125,-9.242414474487305,-8.019266128540039
0,401742,11.876482963562012,-12.74979305267334,-8.152254104614258,-6.107691764831543
0,401742,-31.10091781616211,-26.07062530517578,21.1748046875,-14.992127418518066
0,401743,-3.1874709129333496,-5.7795562744140625,3.7819061279296875,-26.576732635498047
0,401743,0.592703104019165,18.60530662536621,-17.082120895385742,-0.5767830610275269
0,401743,-20.45705795288086,-7.151724815368652,12.485091209411621,39.22903060913086
0,401743,23.12589454650879,-14.496098518371582,3.5533978939056396,6.53078556060791
0,401743,19.912370681762695,16.52172088623047,-15.030452728271484,-40.8446159362793
0,401744,-20.484041213989258,15.328972816467285,17.79116439819336,0.8147438168525696
0,401744,-14.125330924987793,-8.855189323425293,6.565009117126465,20.69216537475586
0,401744,3.4714505672454834,-14.46288776397705,-28.327350616455078,12.667818069458008
0,401744,-0.7837349772453308,-7.443271636962891,-1.26471745967865,21.15877914428711
0,401744,-3.0386016368865967,1.1278101205825806,23.47480583190918,-11.254029273986816
0,401744,13.946165084838867,23.501985549926758,-10.558124542236328,-29.69158363342285
0,401745,14.612082481384277,-8.19997787475586,-28.83405876159668,6.027580261230469
0,401745,-16.108789443969727,-13.88082218170166,6.993697166442871,9.134137153625488
0,401745,-10.247472763061523,24.120681762695312,21.358373641967773,-7.962331295013428
0,401745,23.093124389648438,-0.9207438230514526,-15.559610366821289,0.16068784892559052
0,401745,0.22387003898620605,-20.276477813720703,-4.017401695251465,7.819334983825684
0,401745,-8.828743934631348,3.53437876701355,27.676637649536133,-8.92917537689209
0,401746,9.692399978637695,8.169693946838379,-2.0250093936920166,-21.777587890625
0,401746,12.772449493408203,3.2276477813720703,-4.435779094696045,3.565593957901001
0,401746,9.908805847167969,13.432882308959961,14.743945121765137,16.23461151123047
0,401746,-17.171937942504883,-8.114121437072754,1.1494715213775635,31.065340042114258
0,401746,-16.499277114868164,-8.53215503692627,-10.686275482177734,-9.847283363342285
0,401746,0.3166615962982178,13.2584228515625,4.505284786224365,-41.71436309814453
0,401747,0.23706527054309845,-4.8697614669799805,9.58218765258789,10.417052268981934
0,401747,11.550823211669922,-10.406221389770508,-18.231441497802734,25.461023330688477
0,401747,-0.298740029335022,10.75758171081543,-1.8626353740692139,2.047150135040283
0,401747,-9.344374656677246,3.804896354675293,19.646949768066406,-15.075239181518555
0,401747,-2.03295636177063,-4.484631061553955,2.5591208934783936,-15.267845153808594
0,401747,2.330326557159424,-7.685583591461182,-19.050167083740234,-14.332483291625977
0,401748,-9.396923065185547,-20.839006423950195,-7.532382488250732,-1.0179029703140259
0,401748,-7.900139808654785,13.74153995513916,10.988706588745117,33.57984161376953
0,401748,19.74576187133789,22.73369026184082,-18.893404006958008,25.70361328125
0,401748,-7.012531757354736,-10.447509765625,7.343759536743164,-12.969765663146973
0,401748,-5.872081756591797,-8.230355262756348,23.73938751220703,-19.732891082763672
0,401748,16.423988342285156,-3.6170108318328857,-16.814682006835938,1.2093020677566528
0,401749,-6.077683925628662,0.9317964911460876,-2.0352108478546143,20.782590866088867
0,401749,8.913162231445312,6.171527862548828,1.8419318199157715,-5.915377140045166
0,401749,9.243033409118652,-12.234936714172363,5.324014186859131,-17.487764358520508
0,401749,-5.976179122924805,1.5266687870025635,11.497648239135742,-8.726576805114746
0,401749,4.0704803466796875,11.090970993041992,-11.169346809387207,0.3361313045024872
0,401749,-14.60750675201416,-11.127402305603027,-2.571718215942383,13.343132972717285
0,401750,-6.919518947601318,7.0084943771362305,6.699606895446777,-8.031495094299316
0,401750,12.0409517288208,11.065675735473633,12.366911888122559,-0.3934433162212372
0,401750,7.4357829093933105,6.855566501617432,3.445542335510254,7.423799991607666
0,401750,-1.7781298160552979,-2.1390535831451416,-12.01620864868164,-3.950993299484253
0,401750,-10.67928695678711,-9.735472679138184,-0.5068883895874023,12.946386337280273
0,401750,-5.698148250579834,4.773878574371338,1.8918774127960205,15.35479736328125
0,401751,-9.934660911560059,-10.673007011413574,-6.6527180671691895,-9.255037307739258
0,401751,7.031377792358398,-1.1241267919540405,-2.23519229888916,-23.410526275634766
0,401751,2.4473416805267334,9.320087432861328,-6.441025733947754,5.849208354949951
0,401751,-5.335036754608154,-7.631218910217285,-5.362319469451904,24.68785285949707
0,401751,21.502973556518555,-6.486063003540039,9.457416534423828,-4.363526821136475
0,401751,-9.642333030700684,0.9320509433746338,-2.819894790649414,-13.095160484313965
0,401752,-6.7981438636779785,4.275248050689697,-2.4776644706726074,5.886484622955322
0,401752,25.41558074951172,-4.52872896194458,8.396955490112305,-9.633500099182129
0,401752,-21.567459106445312,-14.397126197814941,-12.497222900390625,-8.647506713867188
0,401752,-27.027606964111328,3.623444080352783,-6.686305522918701,25.44650650024414
0,401752,9.626136779785156,18.414358139038086,16.713882446289062,9.033018112182617
0,401752,11.920310020446777,18.066307067871094,-4.418939590454102,-3.717139720916748
0,401753,21.73695945739746,-3.9344003200531006,-14.334308624267578,-7.327852249145508
0,401753,6.3479743003845215,-26.618947982788086,0.9102838635444641,-31.556856155395508
0,401753,-25.8706111907959,-11.210027694702148,6.5801215171813965,6.544447422027588
0,401753,-7.1368088722229,22.175954818725586,-1.3608524799346924,24.73682975769043
0,401753,5.095169544219971,11.226509094238281,-6.293214321136475,-31.09846305847168
0,401753,-0.1520715206861496,-29.812767028808594,2.1839847564697266,3.5492963790893555
0,401754,10.087803840637207,4.987695693969727,13.406464576721191,27.223623275756836
0,401755,14.937347412109375,44.122764587402344,14.412861824035645,-19.85137939453125
0,401755,-8.729074478149414,-0.2928028106689453,-3.5516726970672607,1.3159096240997314
0,401755,-12.400717735290527,-21.32021141052246,-9.117856979370117,15.561347961425781
0,401755,12.305846214294434,3.88299822807312,-4.037751197814941,3.8299620151519775
0,401756,-8.701269149780273,-0.4086463451385498,4.1273016929626465,9.062478065490723
0,401756,-3.5485174655914307,1.119265079498291,0.41497424244880676,-19.14854621887207
0,401756,8.941216468811035,-13.416019439697266,-3.6529741287231445,-23.63389778137207
0,401756,-4.16378927230835,-10.542452812194824,1.688657283782959,8.261385917663574
0,401757,9.935660362243652,17.477941513061523,-5.581038951873779,-1.2286454439163208
0,401758,8.879653930664062,-18.34174346923828,-5.298539638519287,-1.7482342720031738
0,401760,-22.676240921020508,-33.31780242919922,-11.016901969909668,11.879321098327637
0,401762,-19.78348731994629,17.24518585205078,24.048017501831055,8.048483848571777
0,401764,13.547432899475098,39.282772064208984,43.5604362487793,-20.510149002075195
0,401766,23.463489532470703,10.998546600341797,-6.912362575531006,-32.69580841064453
0,401768,-2.2129740715026855,-10.444854736328125,-29.017122268676758,42.52802658081055
0,401770,-31.403810501098633,-9.815814971923828,-18.520822525024414,57.88192367553711
0,401772,-2.839634895324707,-3.3993005752563477,11.929049491882324,-33.22174072265625
0,401774,14.329976081848145,4.219143867492676,13.995779991149902,-59.46030044555664
0,401776,25.775711059570312,22.28600311279297,-13.327014923095703,19.339155197143555
0,401778,12.44364070892334,-4.0863261222839355,-15.925210952758789,54.27616500854492
0,401780,-42.7255744934082,-45.61000061035156,13.705849647521973,-21.86956214904785
0,401782,-11.816336631774902,-7.681357383728027,9.575794219970703,-26.71914291381836
0,401784,23.54501724243164,23.18919563293457,-15.485919952392578,24.214223861694336
0,401786,8.898284912109375,25.37284278869629,12.533374786376953,16.51140785217285
0,401788,-0.8166550397872925,-3.1933352947235107,-9.721925735473633,-8.477795600891113
0,401790,-17.632503509521484,-23.128082275390625,-28.021581649780273,0.1899799406528473
0,401793,-8.963096618652344,-2.825244903564453,20.66170310974121,15.20258903503418
0,401794,14.58872127532959,-8.038260459899902,18.20148277282715,-41.77955627441406
0,401797,17.902292251586914,24.116870880126953,-7.344966411590576,-54.06406021118164
0,401990,-12.760808944702148,28.72004508972168,-22.377553939819336,51.982154846191406
0,401991,-21.35296058654785,-16.46002197265625,-13.201492309570312,54.870384216308594
0,401991,13.537023544311523,-23.402786254882812,20.696626663208008,-32.577632904052734
0,401991,9.561720848083496,-11.326186180114746,11.362979888916016,-8.978943824768066
0,401991,5.025421619415283,9.36043643951416,1.2588496208190918,0.8234204649925232
0,401991,3.926191806793213,18.893558502197266,12.09875202178955,-10.533108711242676
0,401991,-6.718297958374023,-13.378524780273438,-8.853206634521484,28.941377639770508
0,401992,-8.397207260131836,-16.954421997070312,-6.058015823364258,0.057433340698480606
0,401992,-1.2217464447021484,23.129695892333984,20.64476203918457,-25.869783401489258
0,401992,12.621984481811523,17.25048065185547,2.5761420726776123,-1.281610131263733
0,401992,-0.33958521485328674,-4.399332523345947,-11.57325267791748,8.328994750976562
0,401992,-5.137263774871826,-1.8457057476043701,6.16019344329834,14.298415184020996
0,401992,-6.7418107986450195,-2.648132085800171,5.390880107879639,-4.949889659881592
0,401993,-5.087738513946533,-8.279009819030762,-5.024381637573242,-16.098703384399414
0,401993,14.90480899810791,-14.382085800170898,-9.324727058410645,-5.926853179931641
0,401993,6.776813507080078,3.9149246215820312,-5.180397987365723,7.805533409118652
0,401993,-3.760195016860962,21.50105857849121,11.138930320739746,10.321146965026855
0,401993,-0.33978521823883057,11.257806777954102,12.731010437011719,-1.894227147102356
0,401993,-17.406349182128906,-3.1609904766082764,-0.3717458248138428,6.784331798553467
0,401994,-4.11181116104126,-18.094066619873047,-9.715558052062988,-0.3296486735343933
0,401994,20.887123107910156,-12.554708480834961,-10.085620880126953,-1.189473032951355
0,401994,1.8758525848388672,15.126046180725098,-10.465384483337402,-0.01350773312151432
0,401994,-8.215746879577637,22.216461181640625,2.4789340496063232,-28.626585006713867
0,401994,1.3451377153396606,-22.11903953552246,10.499041557312012,-16.94789695739746
0,401995,-8.066332817077637,-19.761470794677734,-11.757291793823242,22.10734748840332
0,401995,8.159919738769531,24.382644653320312,-6.03018856048584,20.950916290283203
0,401995,18.133569717407227,0.6517028212547302,15.049283981323242,-20.65714454650879
0,401995,-36.357688903808594,-19.240192413330078,-4.756288051605225,-15.856805801391602
0,401995,-13.2548189163208,8.113853454589844,-3.97868275642395,19.60188865661621
0,401995,44.94568634033203,14.513650894165039,8.631030082702637,-6.56838846206665
0,401996,2.089961528778076,-18.20450210571289,-9.924458503723145,12.430264472961426
0,401996,-36.16654586791992,-12.601649284362793,-5.503283977508545,32.37397384643555
0,401996,7.822675704956055,28.03403663635254,2.806335687637329,-25.502683639526367
0,401996,24.542387008666992,1.9002900123596191,2.4839296340942383,-30.205514907836914
0,401996,-9.23949146270752,-34.4310417175293,7.231765270233154,17.71160316467285
0,401996,-12.40084457397461,7.8521342277526855,1.887911081314087,1.812304973602295
0,401997,3.9963295459747314,24.407793045043945,0.21591922640800476,-18.574678421020508
0,401997,17.658340454101562,-13.129142761230469,-11.426091194152832,19.19525909423828
0,401997,-5.447475433349609,-26.560321807861328,11.061934471130371,-4.570533275604248
0,401997,-27.378293991088867,-3.9036004543304443,13.578296661376953,-18.41840934753418
0,401997,9.712764739990234,35.186344146728516,-14.823664665222168,22.772397994995117
0,401997,22.13261604309082,12.418718338012695,18.44175148010254,5.657672882080078
0,401998,-19.744972229003906,-10.836740493774414,-1.4412415027618408,-20.185314178466797
0,401998,-6.391460418701172,10.145164489746094,-23.628786087036133,15.801514625549316
0,401998,14.57502555847168,-7.257303714752197,9.577411651611328,27.495532989501953
0,401998,-7.752870559692383,-17.655622482299805,7.760781288146973,1.7505587339401245
0,401998,7.83784294128418,6.111158847808838,-3.292701005935669,-0.36971279978752136
0,401998,3.6462740898132324,19.41242790222168,-13.941309928894043,-6.992688179016113
0,401999,-11.549088478088379,-21.28240203857422,-7.531167030334473,-5.286763668060303
0,401999,-0.35938921570777893,-14.147529602050781,14.231449127197266,8.745927810668945
0,401999,7.175477027893066,32.178688049316406,4.2988739013671875,-16.624237060546875
0,401999,13.460844039916992,-7.3190107345581055,-9.3330078125,-18.011852264404297
0,401999,-11.501773834228516,-16.753616333007812,1.1187394857406616,25.98699378967285
0,401999,-29.38461685180664,1.8384170532226562,8.020673751831055,11.587571144104004
0,402000,8.6192626953125,-5.483150482177734,-6.994393825531006,-37.68352127075195
0,402000,20.976268768310547,-1.0151911973953247,-7.390368461608887,-14.654911994934082
0,402000,-8.972175598144531,7.422074317932129,11.511284828186035,41.97951889038086
0,402000,6.539488315582275,15.990196228027344,8.814090728759766,14.306634902954102
0,402000,11.242547988891602,4.832761287689209,-1.2334892749786377,-34.255157470703125
0,402001,-20.153060913085938,-30.647253036499023,-17.814491271972656,-6.276821613311768
0,402001,-13.88089656829834,-13.43706226348877,-0.09457417577505112,28.492366790771484
0,402001,19.5123348236084,47.32191467285156,13.377214431762695,-5.667245388031006
0,402001,15.257011413574219,21.100997924804688,-11.773168563842773,-20.800371170043945
0,402001,-10.998407363891602,-26.945070266723633,4.054286003112793,14.604147911071777
0,402001,-8.149690628051758,-27.51060676574707,7.5488152503967285,-0.2522445619106293
0,402002,5.666305065155029,-13.241004943847656,-7.9582743644714355,-10.498488426208496
0,402002,-3.9062612056732178,35.34296417236328,-1.6167855262756348,1.7318402528762817
0,402002,-18.121463775634766,22.592288970947266,-0.3251069188117981,-0.6265767812728882
0,402002,3.6654560565948486,-27.158205032348633,2.093576669692993,6.922369956970215
0,402002,23.211326599121094,-6.7292375564575195,-11.45746898651123,-0.5622586011886597
0,402002,1.7334872484207153,7.779516220092773,-9.017327308654785,17.714563369750977
0,402003,-14.751402854919434,8.790057182312012,30.4453182220459,21.837003707885742
0,402003,15.626489639282227,2.222001791000366,20.992216110229492,-30.20352554321289
0,402003,13.120951652526855,-1.858579158782959,-22.880693435668945,-23.565876007080078
0,402003,-11.525206565856934,-3.17623233795166,-1.9373036623001099,30.577144622802734
0,402003,15.647438049316406,-6.3285813331604,11.520155906677246,6.072784900665283
0,402003,0.985673189163208,16.944721221923828,-9.890317916870117,-24.536334991455078
0,402004,-23.85763931274414,5.5871710777282715,4.809964656829834,-0.44446271657943726
0,402004,7.237076282501221,2.240605354309082,-3.503497362136841,-0.43239521980285645
0,402004,-0.7228237390518188,-2.9883673191070557,0.06243227422237396,-4.445115089416504
0,402004,-14.441662788391113,-29.87099838256836,16.657026290893555,2.601905107498169
0,402004,10.417468070983887,0.8510943651199341,-7.823787689208984,-6.589343070983887
0,402004,9.4503812789917,15.147762298583984,-16.864416122436523,-7.951171398162842
0,402005,-11.3261137008667,-8.496724128723145,0.32374319434165955,20.3316650390625
0,402005,-9.511908531188965,1.206738829612732,4.310366153717041,0.4459136128425598
0,402005,3.5552048683166504,0.310770720243454,-12.819560050964355,-20.141643524169922
0,402005,-0.584538459777832,-6.257661819458008,4.07413911819458,27.477069854736328
0,402005,5.319381237030029,14.664077758789062,16.94904899597168,8.578561782836914
0,402005,-0.8885414600372314,12.690966606140137,-18.105466842651367,-23.819194793701172
0,402006,-20.795673370361328,-11.349783897399902,-19.81451416015625,6.314972400665283
0,402006,11.99078369140625,-14.824967384338379,8.397406578063965,6.877121925354004
0,402006,27.2311954498291,-2.6609513759613037,4.087545394897461,4.489819049835205
0,402006,-13.669424057006836,-3.6707358360290527,-6.898239612579346,12.472984313964844
0,402006,-13.527586936950684,2.577367067337036,-0.6423255205154419,-6.7122907638549805
0,402006,-0.5870679616928101,0.6802138090133667,1.6736961603164673,-12.86601448059082
0,402007,-8.932028770446777,-9.411884307861328,2.821946620941162,12.731955528259277
0,402007,19.850744247436523,0.2228773981332779,0.9845591187477112,6.942934036254883
0,402008,15.238993644714355,15.77785873413086,5.364622116088867,-2.6403555870056152
0,402008,-13.35781478881836,5.025737762451172,14.411548614501953,2.2769927978515625
0,402008,-7.369449615478516,-13.693467140197754,-0.44479572772979736,-23.241201400756836
0,402009,-4.592231273651123,-0.05867835879325867,-5.551726818084717,-8.319626808166504
0,402009,4.069148063659668,18.382495880126953,20.161121368408203,13.432106971740723
0,402009,19.68073081970215,16.34098243713379,6.034693241119385,-21.754638671875
0,402009,4.273024559020996,-18.36878776550293,-16.606813430786133,-12.136157035827637
0,402009,-28.640522003173828,-14.35821533203125,7.9739813804626465,9.958819389343262
0,402009,-7.126801013946533,18.881067276000977,-9.37070083618164,-9.518224716186523
0,402011,24.00250816345215,-4.407958984375,-11.824686050415039,-22.26621437072754
0,402012,10.435529708862305,-1.7015392780303955,21.791955947875977,-33.4977912902832
0,402013,-3.5563225746154785,11.287455558776855,-10.020588874816895,50.49921798706055
0,402016,-13.392333030700684,-13.760663986206055,-25.387102127075195,77.81864166259766
0,402017,-14.740278244018555,-8.827813148498535,29.56083106994629,-28.614852905273438
0,402020,6.453403949737549,-15.483895301818848,17.045732498168945,-18.738554000854492
0,402021,8.091824531555176,-8.112639427185059,-31.916921615600586,14.916054725646973
0,402024,-1.1749616861343384,38.50225830078125,9.436056137084961,-6.127427101135254
0,402025,2.717874050140381,27.151779174804688,-2.2077744007110596,24.948781967163086
0,402028,-2.259322166442871,-35.82216262817383,3.2505874633789062,36.4212532043457
0,402029,-1.5143303871154785,-25.926849365234375,59.94820022583008,-40.20039749145508
0,402032,3.4242703914642334,29.738264083862305,-5.160366058349609,-58.49946975708008
0,402034,9.686129570007324,20.936126708984375,-55.51285934448242,-7.7227582931518555
0,402036,-7.415831089019775,-14.359150886535645,-20.10016632080078,33.023799896240234
0,402038,-2.786383628845215,-17.399734497070312,-0.28882932662963867,31.352466583251953
0,402040,3.5351197719573975,4.473097324371338,14.245538711547852,-28.926942825317383
0,402042,-22.293607711791992,0.8998001217842102,36.19169235229492,-19.19824981689453
0,402044,7.622569561004639,1.271276593208313,-28.501506805419922,7.40565299987793
0,402046,10.240195274353027,-6.3722405433654785,-83.09793090820312,12.735990524291992
0,402049,-9.449838638305664,-10.176215171813965,4.3297295570373535,49.68070983886719
0,402242,5.163365840911865,8.488369941711426,79.56804656982422,-12.695683479309082
0,402242,-6.71061372756958,3.4279696941375732,32.08609390258789,-55.78895568847656
0,402242,-5.815759181976318,6.326831340789795,-28.989164352416992,23.52191162109375
0,402243,20.44636344909668,-9.339775085449219,-21.581825256347656,17.046911239624023
0,402243,1.9389889240264893,-12.897991180419922,1.7050002813339233,-19.79344367980957
0,402243,-23.205549240112305,20.96075439453125,18.580581665039062,-1.4503165483474731
0,402243,14.081006050109863,28.199613571166992,7.484827518463135,10.653841972351074
0,402243,12.376426696777344,-11.87785530090332,-16.97654151916504,6.310561656951904
0,402243,-15.017400741577148,-32.61798095703125,-4.876888275146484,-2.247636556625366
0,402244,5.5691022872924805,9.65323543548584,8.723687171936035,-6.184020042419434
0,402244,7.480285167694092,12.663581848144531,-13.998297691345215,-7.260395050048828
0,402244,-0.19821715354919434,-11.542560577392578,-9.77901554107666,5.302232265472412
0,402244,-8.287398338317871,6.315117835998535,18.589191436767578,-23.868499755859375
0,402244,-2.979682207107544,4.562589168548584,-8.808608055114746,-7.600492477416992
0,402244,12.80490493774414,-5.763892650604248,4.16466760635376,38.8543815612793
0,402245,-2.141040802001953,-0.004577984102070332,21.014320373535156,-35.15316390991211
0,402245,-2.8377957344055176,-6.391313552856445,-21.99213218688965,-30.114295959472656
0,402245,3.760014772415161,-1.65827214717865,-4.8781418800354,35.11600112915039
0,402245,-10.711912155151367,17.389921188354492,16.2939510345459,-4.732072353363037
0,402245,-4.266043186187744,16.226551055908203,0.5699006915092468,-2.3804707527160645
0,402246,14.336543083190918,-5.675620079040527,2.737687110900879,10.073697090148926
0,402246,4.152030944824219,-16.754281997680664,-3.824547052383423,-12.369080543518066
0,402246,-3.717968463897705,-4.399338245391846,-2.6449737548828125,18.037343978881836
0,402246,-8.67930793762207,-0.6290522217750549,-0.47789180278778076,36.7317008972168
0,402246,-13.121084213256836,-0.4586417078971863,2.8582763671875,6.619193077087402
0,402246,13.29017448425293,19.490352630615234,6.1216511726379395,-17.21068000793457
0,402247,18.076148986816406,10.387649536132812,-6.642804145812988,-22.171415328979492
0,402247,-0.32677221298217773,-22.438392639160156,9.660481452941895,1.0648201704025269
0,402247,-23.250083923339844,-16.30280876159668,6.926390647888184,19.320755004882812
0,402247,-6.893944263458252,15.504104614257812,-6.680736541748047,8.0502290725708
0,402247,29.564613342285156,-4.169073104858398,-7.586619853973389,-7.965392112731934
0,402247,-1.4095450639724731,-19.001976013183594,-17.180606842041016,-13.546517372131348
0,402248,-21.105972290039062,12.43932819366455,-2.0590550899505615,21.670658111572266
0,402248,-4.182121276855469,12.19372844696045,7.164712429046631,14.230036735534668
0,402248,7.463984489440918,-8.30855941772461,-2.2819228172302246,-20.45128631591797
0,402248,6.444461345672607,-1.029735803604126,-4.279002666473389,-20.19390106201172
0,402248,-10.008925437927246,11.808220863342285,-7.8125529289245605,-17.559141159057617
0,402248,-1.955773115158081,-7.093967914581299,1.3940759897232056,11.387415885925293
0,402249,-3.179429769515991,-23.539052963256836,12.835078239440918,27.92862892150879
0,402249,-7.190371990203857,1.9712506532669067,-0.6935555934906006,5.061448574066162
0,402249,16.59524917602539,15.170560836791992,-13.87489128112793,-19.492563247680664
0,402249,-7.760042667388916,-2.6866865158081055,-12.07171630859375,-6.688019752502441
0,402249,-11.804819107055664,4.359449863433838,12.150307655334473,19.19222068786621
0,402249,25.664318084716797,6.065866470336914,36.433570861816406,16.95496368408203
0,402250,15.410248756408691,-3.8418850898742676,5.839041233062744,4.983757019042969
0,402250,-18.24917221069336,-2.021822452545166,-16.061275482177734,-1.855169653892517
0,402250,-10.638894081115723,11.372097969055176,18.578845977783203,-11.851360321044922
0,402250,32.1690559387207,9.671804428100586,12.362345695495605,-23.859481811523438
0,402250,10.91269302368164,-7.822533130645752,-21.17273712158203,-5.358266353607178
0,402250,-18.21242332458496,13.025640487670898,-5.447598934173584,13.315372467041016
0,402251,3.8681366443634033,10.650792121887207,17.268037796020508,-11.589300155639648
0,402251,5.546594619750977,-17.6408634185791,-3.208155632019043,-10.538384437561035
0,402251,-11.73686695098877,-3.6868388652801514,-9.441940307617188,-14.841697692871094
0,402251,-4.3251261711120605,0.23907852172851562,2.24457049369812,-20.188852310180664
0,402251,11.75450325012207,-5.296255111694336,-5.833901405334473,30.17618751525879
0,402251,-22.467878341674805,-3.223902702331543,-8.110932350158691,19.549177169799805
0,402252,-15.222818374633789,-2.8278894424438477,-1.7369685173034668,-25.050613403320312
0,402252,24.562421798706055,6.025302886962891,9.61286735534668,-3.3218796253204346
0,402252,-21.648080825805664,-1.1345570087432861,0.31344762444496155,19.347352981567383
0,402252,-6.236994743347168,-20.5130672454834,-9.69907283782959,5.81039571762085
0,402252,16.10565185546875,-3.351437568664551,-5.740453720092773,12.544578552246094
0,402252,-14.487320899963379,16.2677001953125,-11.83264446258545,5.750545024871826
0,402253,14.803051948547363,-2.6809728145599365,1.4285669326782227,-35.23866653442383
0,402253,12.571038246154785,-5.418423652648926,12.18600845336914,-14.924328804016113
0,402253,-7.054487228393555,2.059115171432495,-9.783684730529785,23.104162216186523
0,402253,-12.507076263427734,4.870345592498779,-9.241842269897461,9.000720977783203
0,402253,1.9413741827011108,6.3754167556762695,5.04666805267334,-4.2336201667785645
0,402253,21.69389533996582,6.576072692871094,16.627899169921875,-2.5926599502563477
0,402254,4.766681671142578,-9.448326110839844,12.976300239562988,16.65636444091797
0,402254,-8.009045600891113,-1.7094132900238037,-7.362039566040039,12.409022331237793
0,402254,-13.193984031677246,26.763519287109375,10.854430198669434,-18.969423294067383
0,402254,-8.559494018554688,-1.6350103616714478,14.599455833435059,0.29015809297561646
0,402254,11.8662109375,-21.943872451782227,-19.211009979248047,28.96975326538086
0,402254,4.245750427246094,-7.675942897796631,-16.07216453552246,0.9073285460472107
0,402255,-6.686057090759277,2.7919137477874756,15.637140274047852,-23.706707000732422
0,402255,23.85582733154297,2.6754252910614014,5.925327777862549,-5.907320976257324
0,402255,-5.116426944732666,-14.396596908569336,-22.59991455078125,8.86872386932373
0,402255,-31.182342529296875,4.939416408538818,-1.1549750566482544,-5.618948936462402
0,402255,14.279820442199707,29.62991714477539,7.4340386390686035,-9.891914367675781
0,402255,-6.238979339599609,-17.295372009277344,-14.054900169372559,6.486108779907227
0,402256,-17.648927688598633,-30.180105209350586,3.6455304622650146,-13.645545959472656
0,402256,29.2589111328125,20.86319923400879,10.70687484741211,7.829782485961914
0,402256,4.7038702964782715,14.15855884552002,-8.924365997314453,25.206602096557617
0,402256,-17.383899688720703,-13.625703811645508,0.5874583721160889,-33.491207122802734
0,402256,10.854181289672852,-10.796284675598145,19.490436553955078,-8.802316665649414
0,402256,-2.4000167846679688,2.9503376483917236,0.18137907981872559,16.677600860595703
0,402257,-8.55833911895752,13.627716064453125,-20.457462310791016,-0.20288825035095215
0,402257,-3.66072940826416,-2.3657121658325195,10.461313247680664,10.967089653015137
0,402257,-11.11999225616455,-10.75924301147461,21.392364501953125,-0.48152482509613037
0,402257,14.3059663772583,4.764481067657471,-14.437782287597656,-8.373953819274902
0,402257,16.914630889892578,12.44942569732666,-4.9180908203125,7.153489112854004
0,402258,-10.924861907958984,-12.75092601776123,9.87044906616211,19.04591941833496
0,402258,0.6638069748878479,-5.4621477127075195,4.985167503356934,-20.197917938232422
0,402258,6.572783470153809,11.779672622680664,9.137296676635742,-9.23675537109375
0,402258,-7.790152072906494,2.0931081771850586,-17.56932830810547,18.16558837890625
0,402258,9.800156593322754,13.276123046875,-23.136703491210938,-21.2841739654541
0,402258,7.985617160797119,-4.108269214630127,-3.329190492630005,-16.882179260253906
0,402260,-10.09716510772705,-11.719048500061035,1.2954314947128296,-2.2837953567504883
0,402260,-8.250781059265137,-0.5988010168075562,-6.139036178588867,6.9692487716674805
0,402260,-2.65328311920166,4.679975986480713,1.0768530368804932,12.854926109313965
0,402260,7.227563858032227,14.025238037109375,17.629209518432617,-8.511895179748535
0,402260,13.965611457824707,-17.339073181152344,-4.980093955993652,-3.475008010864258
0,402260,-7.762514114379883,-4.6104888916015625,3.206561803817749,9.961246490478516
0,402261,-12.535386085510254,25.41816520690918,23.414260864257812,9.832706451416016
0,402261,10.328202247619629,-10.401233673095703,-9.216959953308105,-0.4512043595314026
0,402261,3.4758799076080322,-19.276662826538086,-15.431794166564941,-11.136834144592285
0,402262,4.499458312988281,13.128743171691895,21.635461807250977,29.539762496948242
0,402264,17.146583557128906,29.439760208129883,18.321104049682617,30.942129135131836
0,402266,-7.385589599609375,-6.366740703582764,-38.46703338623047,-11.797648429870605
0,402268,-31.101028442382812,-25.06452751159668,-15.947309494018555,-11.54110050201416
0,402270,5.306067943572998,-0.5115084648132324,25.53489875793457,-5.632395267486572
0,402272,16.59762954711914,8.704939842224121,-9.025846481323242,-8.877025604248047
0,402274,-17.77720069885254,14.864723205566406,-12.50376033782959,-15.879096031188965
0,402276,-8.000035285949707,-4.142214298248291,11.502288818359375,12.691849708557129
0,402278,-0.547652542591095,-32.53799057006836,5.406500816345215,5.881441593170166
0,402280,-6.797123432159424,-10.373136520385742,-1.6072591543197632,-28.203561782836914
0,402282,10.617448806762695,13.09826946258545,12.918609619140625,8.750276565551758
0,402284,10.40459156036377,17.360727310180664,0.6138380169868469,9.632055282592773
0,402286,-1.4855906963348389,3.982417106628418,-23.736974716186523,-18.94565773010254
0,402288,-0.30095964670181274,-32.588111877441406,-12.237530708312988,17.0318546295166
0,402291,-7.221807956695557,0.03506159409880638,18.199695587158203,29.08574104309082
0,402292,0.41100335121154785,21.81546974182129,27.118967056274414,-14.668987274169922
0,402295,28.90910530090332,21.45883560180664,-0.3030516505241394,-61.0711555480957
0,402296,-1.5878489017486572,13.288578987121582,-12.095070838928223,-14.927353858947754
0,402299,-29.65003204345703,-45.735313415527344,-3.162871837615967,61.27985763549805
0,402300,1.0421922206878662,-13.932317733764648,-14.708927154541016,12.898585319519043
0,402301,2.1949102878570557,16.873220443725586,-3.347661018371582,-13.396891593933105
0,402495,10.15147590637207,6.078309535980225,-2.0446126461029053,-0.81791752576828
0,402495,5.228757381439209,15.668574333190918,-1.2883658409118652,3.6631736755371094
0,402495,-8.833344459533691,-13.335227966308594,13.527036666870117,-0.33125945925712585
0,402495,9.618155479431152,-2.563936471939087,-9.15961742401123,-27.570924758911133
0,402496,-7.566772937774658,-2.4926209449768066,-1.0518438816070557,27.330169677734375
0,402496,-14.205491065979004,-10.99566650390625,10.182352066040039,29.349552154541016
0,402496,15.860516548156738,14.773279190063477,-6.19105339050293,-16.747346878051758
0,402496,12.799290657043457,7.798247814178467,0.8133900761604309,3.96864652633667
0,402496,-12.592267036437988,16.19910430908203,4.8734660148620605,-7.135507106781006
0,402496,-1.1661373376846313,-9.375530242919922,7.04088020324707,-14.796024322509766
0,402497,4.246465682983398,-21.268709182739258,11.472079277038574,10.587199211120605
0,402497,0.9925240874290466,15.84328842163086,0.23330067098140717,3.3791043758392334
0,402497,-1.7165956497192383,3.5804500579833984,8.544509887695312,-45.12266159057617
0,402497,-25.82977867126465,-17.74016571044922,0.3640919029712677,-1.7115979194641113
0,402497,9.20669937133789,-2.7987358570098877,-28.913463592529297,53.349613189697266
0,402497,32.0859375,23.827035903930664,-7.926688194274902,-3.4796907901763916
0,402498,-18.50609016418457,-9.639212608337402,20.01657485961914,-22.669361114501953
0,402498,-21.80302619934082,-37.86445617675781,-4.223944664001465,1.9360268115997314
0,402498,3.3996143341064453,10.426664352416992,-14.902557373046875,5.7724127769470215
0,402498,10.266030311584473,33.4388427734375,5.012451171875,-12.324548721313477
0,402498,8.159459114074707,1.3652864694595337,4.515182971954346,-1.2715089321136475
0,402499,-12.005410194396973,-19.030128479003906,0.9537156224250793,13.267741203308105
0,402499,8.639542579650879,1.219602346420288,7.764615535736084,-18.483562469482422
0,402499,24.174484252929688,2.8444790840148926,-3.927198648452759,-0.42141881585121155
0,402499,-31.31370735168457,-17.717212677001953,-17.374114990234375,28.944759368896484
0,402499,-16.229087829589844,3.4331138134002686,7.691565990447998,5.84923791885376
0,402499,38.70713806152344,23.90899658203125,18.283721923828125,-10.080231666564941
0,402500,12.732284545898438,2.100522518157959,-6.794590950012207,-11.575666427612305
0,402500,-13.878617286682129,-1.1936297416687012,-7.090113162994385,16.163816452026367
0,402500,-7.843039512634277,16.381696701049805,13.276657104492188,16.434221267700195
0,402500,6.501672267913818,-6.820322513580322,2.6432628631591797,-25.592269897460938
0,402500,0.6498012542724609,-25.76909828186035,-12.858779907226562,6.721958637237549
0,402500,-9.387011528015137,7.051570415496826,2.367213010787964,19.25094223022461
0,402501,0.06868664920330048,13.520771026611328,0.20087485015392303,-15.401252746582031
0,402501,-9.262974739074707,-5.612898349761963,-10.064678192138672,-4.7693963050842285
0,402501,-7.108158588409424,-6.23341178894043,-5.499905109405518,-2.589653730392456
0,402501,10.651132583618164,-8.850375175476074,-3.385854482650757,4.639426231384277
0,402501,-5.262998580932617,-14.858014106750488,1.5017844438552856,16.281497955322266
0,402501,-8.840788841247559,-2.0557000637054443,-0.888999879360199,-5.116914749145508
0,402502,4.988403797149658,12.266018867492676,7.599039554595947,-19.825206756591797
0,402502,-10.952166557312012,3.1273179054260254,11.005276679992676,10.93875789642334
0,402502,8.160959243774414,1.7138965129852295,-12.55543327331543,-5.367931842803955
0,402502,17.307649612426758,2.3215510845184326,-6.0809478759765625,-25.611732482910156
0,402502,-16.045883178710938,6.950920104980469,18.46367073059082,6.370481014251709
0,402502,6.704177379608154,4.003496170043945,-7.803255081176758,2.977517604827881
0,402503,10.026078224182129,3.8303518295288086,-14.566370010375977,0.783304750919342
0,402503,-0.9089598655700684,16.413021087646484,14.231921195983887,-17.508838653564453
0,402503,-3.0147063732147217,-16.875585556030273,5.142240047454834,-10.845962524414062
0,402503,-26.696483612060547,-25.37386703491211,15.856340408325195,27.836278915405273
0,402503,18.304954528808594,31.281740188598633,5.621733665466309,10.440743446350098
0,402503,40.31517028808594,24.715755462646484,-22.156436920166016,-19.25727653503418
0,402504,-7.421509265899658,-23.35660743713379,11.279163360595703,7.894585132598877
0,402504,-9.541403770446777,-1.0433422327041626,25.81769561767578,18.828121185302734
0,402504,-1.936059832572937,2.4693515300750732,-0.42651620507240295,-8.07244873046875
0,402504,-7.347775459289551,-14.614770889282227,-15.683137893676758,16.925504684448242
0,402504,10.539090156555176,12.121301651000977,-2.213163375854492,20.273529052734375
0,402504,-1.22722327709198,0.5546388626098633,4.451536655426025,-14.570516586303711
0,402505,-18.222972869873047,0.39489272236824036,-4.580081939697266,-6.100029945373535
0,402505,6.078492641448975,-11.422674179077148,6.893351078033447,-0.16336584091186523
0,402505,6.800397872924805,-14.563331604003906,4.234841823577881,0.5559121966362
0,402505,0.8344861268997192,26.364408493041992,-26.633211135864258,5.411657810211182
0,402505,-4.7049880027771,-10.683694839477539,-20.748977661132812,-18.798938751220703
0,402505,-15.66274356842041,-13.468637466430664,7.687129497528076,-1.2276978492736816
0,402506,-0.9382222294807434,17.07139778137207,2.446211576461792,19.918785095214844
0,402506,11.199544906616211,4.17257833480835,-1.9446918964385986,-17.477041244506836
0,402506,-1.221113681793213,-2.043466567993164,1.2528843879699707,-30.531444549560547
0,402506,-6.394597053527832,-17.698577880859375,-10.954944610595703,7.876689910888672
0,402506,5.403804302215576,-9.927824020385742,-13.772857666015625,22.670555114746094
0,402506,7.818774223327637,21.22064971923828,14.22874641418457,-11.91810417175293
0,402507,3.566160202026367,-6.222264766693115,17.107830047607422,-24.2838191986084
0,402507,-4.461979389190674,-33.8738899230957,-22.29557991027832,12.754843711853027
0,402507,-3.988722085952759,18.808147430419922,5.56467342376709,23.581695556640625
0,402507,-14.149307250976562,23.071163177490234,28.35341453552246,-7.20755672454834
0,402507,-1.382205605506897,-22.266250610351562,-18.434539794921875,-5.385493755340576
0,402507,23.085554122924805,2.7581279277801514,-2.784196138381958,-14.70279598236084
0,402508,0.07802020758390427,-1.9724684953689575,22.959623336791992,-2.0441734790802
0,402508,-10.127066612243652,-16.197973251342773,-6.3649163246154785,41.75093078613281
0,402508,-10.13258171081543,33.09498977661133,-4.95235538482666,5.353894233703613
0,402508,3.9470276832580566,37.06230926513672,6.044680595397949,-24.05449676513672
0,402508,19.114511489868164,-21.398929595947266,-3.39870285987854,11.381028175354004
0,402509,-6.147187232971191,-32.652706146240234,5.130258560180664,14.288714408874512
0,402509,-14.159631729125977,22.8066349029541,2.5941197872161865,-14.317325592041016
0,402509,-6.599143981933594,19.480222702026367,-11.047680854797363,2.078265905380249
0,402509,14.524579048156738,-10.003170013427734,-5.630770683288574,9.75220775604248
0,402509,24.266555786132812,-4.122213363647461,9.714292526245117,-9.17940902709961
0,402509,-7.294599533081055,-21.97816276550293,-4.38394832611084,6.4512457847595215
0,402510,-16.432435989379883,-20.46561622619629,-11.889981269836426,13.294990539550781
0,402510,-3.8244545459747314,27.078575134277344,4.414334297180176,-23.807987213134766
0,402510,11.65408706665039,15.874756813049316,-8.200901985168457,-32.48265075683594
