Aktueller Finger,timestamp_ms,sensor_0,sensor_1,sensor_2,sensor_3
0,766646,-29.405776977539062,32.67102813720703,-23.92499351501465,-141.2448272705078
0,766648,-14.57088565826416,28.192415237426758,4.897313594818115,34.01934051513672
0,766651,80.5156021118164,-102.23228454589844,29.54164695739746,200.17837524414062
0,766652,41.74676513671875,-64.15543365478516,14.274094581604004,70.371826171875
0,766655,-59.76170349121094,87.48370361328125,-4.220559120178223,-165.39891052246094
0,766656,-24.38460922241211,42.60418701171875,-20.361108779907227,-156.0854034423828
0,766664,-15.261820793151855,5.133786201477051,-1.6070760488510132,-10.105509757995605
0,766664,-32.710540771484375,25.445274353027344,3.8523764610290527,-1.720544695854187
0,766664,22.778369903564453,-34.774658203125,-21.75221061706543,15.217089653015137
0,766664,9.184182167053223,-26.404504776000977,-21.817169189453125,16.054201126098633
0,766667,-12.9833345413208,13.585217475891113,2.4241271018981934,60.651023864746094
0,766668,33.3956413269043,-9.020426750183105,25.212921142578125,116.50399780273438
0,766671,46.83025360107422,-33.276031494140625,24.980072021484375,63.86685562133789
0,766672,7.293190002441406,-26.34305191040039,3.989413022994995,-9.624311447143555
0,766675,-32.83478927612305,50.52028274536133,1.620924711227417,-107.3961410522461
0,766676,-22.837379455566406,40.91986846923828,-13.574506759643555,-55.210960388183594
0,766679,-3.8360683917999268,-28.1916561126709,-17.869417190551758,31.284099578857422
0,766680,2.031846761703491,-1.528070330619812,7.13656759262085,13.759065628051758
0,766682,14.282032012939453,8.38301944732666,4.835087299346924,-10.048053741455078
0,766684,-11.06088924407959,15.97588062286377,-14.005569458007812,-64.28919982910156
0,766686,-29.68024444580078,13.46535873413086,-14.112391471862793,-26.67615509033203
0,766707,8.49042797088623,-23.265748977661133,19.075834274291992,64.2506332397461
0,766707,10.484539985656738,-10.822493553161621,-3.2678699493408203,22.872798919677734
0,766707,-5.997994899749756,14.078741073608398,-33.15269470214844,-30.946237564086914
0,766708,6.555052757263184,-11.57441234588623,29.514665603637695,13.018146514892578
0,766708,14.441256523132324,-32.55434799194336,12.98597526550293,37.62712478637695
0,766708,11.951969146728516,-5.497004985809326,-22.66202735900879,44.728275299072266
0,766708,0.7076408267021179,4.433070182800293,31.803417205810547,26.81806182861328
0,766708,-10.742393493652344,-9.478479385375977,8.483778953552246,-18.557723999023438
0,766708,12.550304412841797,7.228237152099609,-17.727909088134766,-7.72121000289917
0,766709,8.734076499938965,28.80278968811035,7.107850551605225,-26.018177032470703
0,766710,-6.723640441894531,-16.518020629882812,-4.606537818908691,6.854696750640869
0,766710,2.6293904781341553,-24.0563907623291,-18.814178466796875,30.829893112182617
0,766713,-10.299017906188965,-2.6531291007995605,11.24277400970459,-73.68376159667969
0,766714,1.3170859813690186,12.821745872497559,37.382057189941406,-63.11648941040039
0,766717,-32.36629104614258,64.18865966796875,-17.53370475769043,-1.4667140245437622
0,766718,-34.865882873535156,0.6928667426109314,-35.756195068359375,-2.443557024002075
0,766721,46.736568450927734,-53.52678298950195,20.2899112701416,11.540275573730469
0,766722,16.9224910736084,31.28549575805664,14.64793872833252,16.4968318939209
0,766725,-38.299983978271484,17.24820327758789,1.2382150888442993,-29.57427978515625
0,766726,-3.1743767261505127,-23.166696548461914,-17.50225067138672,-27.779993057250977
0,766729,35.112342834472656,10.077077865600586,-28.484540939331055,102.69632720947266
0,766730,24.42380714416504,-20.719905853271484,11.650209426879883,87.4991226196289
0,766733,0.6813115477561951,-20.901884078979492,32.907432556152344,-36.64468002319336
0,766734,-13.909823417663574,9.211584091186523,11.043087005615234,-60.29596710205078
0,766769,-15.40516185760498,24.032928466796875,-35.31006622314453,-3.7942826747894287
0,766769,2.7074451446533203,4.136772155761719,-5.300379276275635,73.04692077636719
0,766769,19.6575927734375,-35.478702545166016,13.057256698608398,29.773059844970703
0,766769,3.8630423545837402,-5.474491596221924,-11.093499183654785,-36.26228713989258
0,766770,-16.856924057006836,20.343719482421875,14.021528244018555,-37.71916580200195
0,766770,-11.427389144897461,-8.993879318237305,13.91541576385498,-16.868196487426758
0,766770,-8.58090877532959,-14.708678245544434,-17.59700584411621,-7.63162088394165
0,766770,-2.032308578491211,34.31079864501953,-8.30837345123291,-6.885668754577637
0,766770,5.840109825134277,4.999778747558594,12.817744255065918,-9.221909523010254
0,766770,3.1097562313079834,-12.02436351776123,-3.6404004096984863,10.77739143371582
0,766771,16.494670867919922,9.820844650268555,-13.924005508422852,42.66618347167969
0,766771,15.670877456665039,-20.761905670166016,4.163050174713135,12.786897659301758
0,766771,-7.237099647521973,-0.2295016646385193,24.14838409423828,0.41762226819992065
0,766771,9.107852935791016,7.229509353637695,0.6763722896575928,-7.889890670776367
0,766771,-6.357794761657715,-11.684247016906738,-11.51038932800293,-30.331928253173828
0,766771,-17.89659881591797,4.613898277282715,5.497461795806885,-32.21702194213867
0,766772,12.586568832397461,21.90814208984375,2.3478844165802,0.8935545086860657
0,766773,-21.538503646850586,18.228193283081055,7.606020450592041,-25.780658721923828
0,766773,-15.625700950622559,-14.397929191589355,-6.051553249359131,-62.1391716003418
0,766774,-4.101687431335449,0.4020536541938782,-15.153093338012695,2.322338819503784
0,766776,-27.710033416748047,22.455778121948242,4.6007866859436035,22.162439346313477
0,766778,20.560585021972656,4.729902744293213,12.779972076416016,24.910282135009766
0,766780,15.459729194641113,0.28802356123924255,-0.871543824672699,18.18623161315918
0,766782,-12.284159660339355,-19.964111328125,-18.17112159729004,-38.409461975097656
0,766784,-7.839545249938965,-4.617129325866699,-19.70232582092285,-66.93553161621094
0,766787,-8.808320045471191,21.381078720092773,5.565399646759033,63.218414306640625
0,766788,28.22486114501953,-20.64457130432129,10.42040729522705,149.8475341796875
0,766791,37.806907653808594,-60.83784484863281,-5.271322727203369,53.921913146972656
0,766792,24.83085823059082,-16.720195770263672,16.29916763305664,-3.6414525508880615
0,766795,-21.309419631958008,41.32520294189453,17.201082229614258,-81.92540740966797
0,766796,-36.445106506347656,24.057422637939453,-9.954361915588379,-78.33935546875
0,766799,17.6575984954834,6.448741912841797,-13.256696701049805,22.29616928100586
0,766845,-3.305755615234375,26.646560668945312,-3.959780216217041,4.1190714836120605
0,766845,-15.206618309020996,2.4718732833862305,-4.498229026794434,-16.757841110229492
0,766845,10.036620140075684,-32.16509246826172,3.1891517639160156,17.676416397094727
0,766846,-6.090044021606445,0.7754678130149841,16.74512481689453,-8.784235954284668
0,766846,-15.048049926757812,15.684913635253906,8.037283897399902,-37.559242248535156
0,766846,5.280305862426758,6.2497124671936035,-20.8686466217041,-7.130453586578369
0,766846,-4.486597537994385,-5.626626014709473,-18.326793670654297,17.493417739868164
0,766846,-13.157509803771973,-14.440167427062988,5.14719820022583,37.66136932373047
0,766847,32.10121536254883,-7.8660969734191895,0.8245272636413574,42.82665252685547
0,766847,29.464269638061523,-17.30962562561035,0.29519808292388916,45.44557571411133
0,766847,-4.73221492767334,-6.046689987182617,11.199105262756348,17.04121208190918
0,766847,-4.038670539855957,-20.546525955200195,10.483242988586426,-35.5572624206543
0,766847,-8.427332878112793,-14.728351593017578,5.09706449508667,-16.011682510375977
0,766847,-2.272362232208252,36.07306671142578,-4.3085150718688965,-18.366823196411133
0,766848,1.8671079874038696,27.748315811157227,-6.236402988433838,-15.632233619689941
0,766848,-11.995871543884277,18.006793975830078,2.896068572998047,-4.944324970245361
0,766848,11.92896842956543,-2.131679058074951,-17.70883560180664,-23.629013061523438
0,766848,0.3793821930885315,-29.76691436767578,2.6822025775909424,27.72410011291504
0,766848,-15.667513847351074,-8.859654426574707,21.541078567504883,28.50473976135254
0,766848,25.63051986694336,-8.108141899108887,-8.671958923339844,-5.730502128601074
0,766849,17.24895668029785,-5.8107099533081055,-4.918443202972412,7.085358142852783
0,766849,-18.074766159057617,4.802778720855713,-8.330743789672852,-6.953184604644775
0,766849,-28.24848747253418,-2.6487677097320557,2.191692590713501,-7.18837308883667
0,766850,13.510087966918945,3.7071075439453125,20.9827938079834,43.360252380371094
0,766850,40.12214279174805,4.281215190887451,14.447981834411621,7.93804931640625
0,766851,-7.776010513305664,6.585556983947754,-2.166898012161255,-64.58771514892578
0,766852,-29.585628509521484,-2.5157968997955322,-12.22718334197998,-12.736303329467773
0,766855,-16.00417137145996,18.173391342163086,14.887187957763672,-36.56370544433594
0,766856,-2.560274124145508,33.6009407043457,15.443607330322266,-72.29900360107422
0,766859,5.643436431884766,-9.568931579589844,-19.001506805419922,28.590213775634766
0,766860,8.668272018432617,-1.9468120336532593,-9.480159759521484,41.56963348388672
0,766863,-15.96773910522461,3.503023386001587,13.98400592803955,-32.74287414550781
0,766864,-31.566247940063477,-7.214583873748779,-13.327888488769531,-49.69841766357422
0,766867,20.089847564697266,7.7108612060546875,-50.17744445800781,60.482879638671875
0,766868,27.657087326049805,-18.940263748168945,-7.814189910888672,105.84353637695312
0,766871,14.50886058807373,-29.260295867919922,40.26094436645508,46.289005279541016
0,766872,16.210792541503906,1.7096152305603027,14.637016296386719,42.39936447143555
0,766875,-33.17665481567383,14.470069885253906,-15.372481346130371,-102.65682983398438
0,766876,-28.337221145629883,1.555769443511963,-4.797565460205078,-107.16776275634766
0,766879,15.289405822753906,-8.595817565917969,15.60970687866211,87.82780456542969
0,766880,11.310131072998047,4.688961505889893,-14.015188217163086,30.571121215820312
0,766941,7.986361503601074,0.2037866711616516,-6.6805243492126465,-37.46501159667969
0,766941,7.201563835144043,11.946582794189453,30.774995803833008,-17.735013961791992
0,766941,-18.315242767333984,9.464879989624023,-1.865792155265808,-26.217058181762695
0,766941,-30.1673583984375,-25.16145896911621,-3.916278839111328,-4.412538528442383
0,766941,10.43810749053955,26.03018569946289,-1.940495491027832,-18.500900268554688
0,766941,23.493236541748047,17.56450653076172,-21.911375045776367,-10.922760963439941
0,766942,12.543209075927734,-25.071632385253906,19.725055694580078,42.24205017089844
0,766942,6.155069828033447,9.378756523132324,17.73001480102539,47.572872161865234
0,766942,-13.126534461975098,-17.873022079467773,-33.60726547241211,19.33025360107422
0,766942,3.999398708343506,-28.754135131835938,-12.359716415405273,4.083105564117432
0,766942,2.8183393478393555,10.137680053710938,23.993440628051758,-8.651123046875
0,766943,6.007125377655029,26.821836471557617,9.658984184265137,-21.744102478027344
0,766943,8.051650047302246,18.77703857421875,-0.09436848014593124,-29.967967987060547
0,766943,-19.680543899536133,-4.752206802368164,-13.995830535888672,-22.142711639404297
0,766943,-23.350833892822266,-12.814630508422852,-16.29973793029785,-3.05859112739563
0,766943,-8.253110885620117,-1.7971959114074707,-8.277621269226074,4.754823207855225
0,766943,6.979248523712158,1.5937316417694092,-1.5062615871429443,17.85426902770996
0,766944,1.456985592842102,-10.019512176513672,18.411277770996094,22.433109283447266
0,766944,11.101667404174805,-19.374107360839844,-0.6838178038597107,12.650064468383789
0,766944,8.425553321838379,0.7512795925140381,-2.3908963203430176,0.09262856841087341
0,766944,-7.644655227661133,12.452256202697754,0.07342217117547989,-17.260108947753906
0,766944,-10.18968677520752,-6.813753604888916,-11.895541191101074,-25.700817108154297
0,766944,0.042535025626420975,-5.723921298980713,10.292394638061523,8.25167179107666
0,766945,0.4098541736602783,4.521778106689453,20.256229400634766,18.144332885742188
0,766945,-10.6227445602417,24.041208267211914,7.456479549407959,-8.599550247192383
0,766945,13.723737716674805,11.912700653076172,-13.943367004394531,2.6921467781066895
0,766945,9.620526313781738,-19.3016357421875,-13.5878267288208,7.030751705169678
0,766945,-11.565506935119629,-20.251583099365234,10.8452730178833,18.793081283569336
0,766945,8.692426681518555,10.36380386352539,-1.0353730916976929,18.466604232788086
0,766946,16.80420684814453,18.218801498413086,1.959926724433899,16.51358413696289
0,766947,15.578755378723145,-10.100749015808105,25.99776268005371,64.96737670898438
0,766947,11.988444328308105,-1.906347632408142,-9.152361869812012,22.75474739074707
0,766947,-9.595609664916992,-10.267972946166992,-14.892542839050293,-70.28958129882812
0,766949,-6.2569451332092285,-12.846827507019043,26.532962799072266,-13.605388641357422
0,766950,18.89104461669922,-11.744176864624023,6.310887813568115,65.81687927246094
0,766953,28.898046493530273,-10.702259063720703,11.91669750213623,-1.3941813707351685
0,766954,-17.982158660888672,22.1844425201416,17.192991256713867,-95.17383575439453
0,766957,-51.46658706665039,34.2503662109375,-46.12602233886719,-75.31068420410156
0,766958,-17.470443725585938,22.874780654907227,-9.777832984924316,-10.982892990112305
0,766961,6.34566593170166,-21.96485137939453,23.09538459777832,12.164709091186523
0,766962,3.0465078353881836,-15.372603416442871,-17.733924865722656,-14.457329750061035
0,766965,-19.10272216796875,40.66264724731445,-25.345706939697266,-30.014551162719727
0,766966,-19.02880859375,14.47134017944336,-10.683938980102539,18.728078842163086
0,766969,34.628700256347656,-51.0511474609375,11.099618911743164,105.0169677734375
0,766970,55.36281967163086,-27.076549530029297,27.31312370300293,97.3598403930664
0,766973,-5.068731307983398,-10.23693561553955,-9.44670295715332,-68.2108154296875
0,766974,-51.65778732299805,-11.423445701599121,-48.175758361816406,-93.7813720703125
0,766977,-6.73616361618042,70.46002960205078,3.0867016315460205,15.959454536437988
0,766978,15.928236961364746,27.430307388305664,38.07492446899414,22.100881576538086
0,767051,27.81260871887207,-99.9811019897461,17.323944091796875,104.41796112060547
0,767051,39.34510803222656,-41.69858932495117,0.8414517045021057,85.34278106689453
0,767051,-25.58663558959961,56.86727523803711,7.172423362731934,-104.35924530029297
0,767051,-23.3762149810791,42.531646728515625,-1.7089697122573853,-81.93164825439453
0,767051,7.598106384277344,4.3148698806762695,-17.268375396728516,-27.09751319885254
0,767051,-12.174564361572266,-15.88792896270752,3.619936227798462,-1.4580528736114502
0,767051,-7.41145658493042,2.956197500228882,-1.849895715713501,40.075252532958984
0,767052,-1.938364863395691,20.521648406982422,-9.3755464553833,4.650170803070068
0,767052,-3.2292933464050293,-14.994481086730957,15.173649787902832,-10.59068775177002
0,767052,7.243476867675781,-28.737760543823242,4.246735095977783,-3.844804048538208
0,767052,-11.471988677978516,10.22281551361084,0.16592739522457123,5.941957473754883
0,767052,-4.262162685394287,4.303603172302246,-6.109157085418701,-21.694677352905273
0,767053,7.900720119476318,0.7210837006568909,-16.558137893676758,-45.55165100097656
0,767053,-20.148160934448242,23.775447845458984,13.166236877441406,-4.994367599487305
0,767053,-10.46817398071289,8.192930221557617,9.35500431060791,-1.6475934982299805
0,767053,-0.530422031879425,-1.6279748678207397,-7.908868312835693,-2.328510046005249
0,767053,10.045575141906738,-8.32363224029541,-11.489211082458496,15.248124122619629
0,767053,10.533366203308105,-9.010333061218262,-1.8157498836517334,-0.22689934074878693
0,767054,-2.840094804763794,3.6157801151275635,-0.6192820072174072,23.447248458862305
0,767054,14.101543426513672,8.183611869812012,-6.852377891540527,21.740158081054688
0,767054,14.673755645751953,11.665511131286621,16.939247131347656,-3.791937828063965
0,767054,-0.6792239546775818,-8.005865097045898,-2.549799680709839,5.084168910980225
0,767054,-2.6563241481781006,-16.969303131103516,-7.067288875579834,-9.312326431274414
0,767054,-14.82190227508545,12.79084587097168,19.81862449645996,-22.480220794677734
0,767055,-2.4150023460388184,11.814974784851074,1.0602713823318481,-9.120848655700684
0,767055,17.88382339477539,1.352717638015747,-6.203144073486328,20.295076370239258
0,767055,-2.196261167526245,-8.027234077453613,-7.539758682250977,32.63252258300781
0,767055,-10.219675064086914,-20.512739181518555,4.352225303649902,8.766037940979004
0,767055,8.578533172607422,4.969053268432617,12.929354667663574,-5.888024806976318
0,767056,11.373193740844727,13.110342025756836,-12.887184143066406,-4.39213752746582
0,767056,-13.181443214416504,-20.086999893188477,-12.83597469329834,2.9919638633728027
0,767056,-2.8685357570648193,-17.678470611572266,-3.2649593353271484,17.253591537475586
0,767056,0.18905282020568848,15.685416221618652,6.3431830406188965,-8.38798999786377
0,767056,-12.626824378967285,18.13691520690918,1.6804486513137817,-29.458946228027344
0,767056,3.6158909797668457,-0.3520679771900177,0.03355634585022926,-2.287051200866699
0,767057,-4.991874694824219,-29.426424026489258,-12.3621244430542,11.003424644470215
0,767058,-5.490962982177734,0.07527676224708557,-14.787765502929688,11.122960090637207
0,767058,13.402975082397461,40.124267578125,30.047700881958008,10.175787925720215
0,767058,10.452337265014648,-4.481348514556885,23.812877655029297,-1.478503942489624
0,767058,3.208617687225342,-18.5898380279541,-10.1617431640625,-22.701438903808594
0,767060,-4.505692481994629,-0.42730388045310974,-22.597410202026367,-12.798384666442871
0,767062,-22.807493209838867,-2.6319377422332764,11.037083625793457,-12.148204803466797
0,767064,-16.29822540283203,29.670297622680664,8.921939849853516,-40.87641906738281
0,767066,8.547821998596191,7.252853870391846,-37.854801177978516,42.790077209472656
0,767068,24.474306106567383,-49.956207275390625,-11.588308334350586,89.25994873046875
0,767070,47.44246292114258,-33.414695739746094,46.34280776977539,75.15103149414062
0,767072,20.157424926757812,-19.99477195739746,37.542579650878906,41.754451751708984
0,767074,-47.78787612915039,43.315006256103516,-29.65279769897461,-159.87754821777344
0,767076,-44.74586486816406,47.23712921142578,-16.712453842163086,-136.4217529296875
0,767078,11.601258277893066,-22.8588924407959,-0.011332317255437374,81.8367691040039
0,767080,2.9489777088165283,-2.8515679836273193,-4.009110927581787,46.248836517333984
0,767083,-7.813737392425537,9.039236068725586,25.808971405029297,-55.720211029052734
0,767084,9.734142303466797,16.544170379638672,-22.576045989990234,-42.135292053222656
0,767087,-4.0367021560668945,14.582625389099121,-46.15156936645508,44.115394592285156
0,767088,6.780482769012451,-39.80967330932617,1.3470995426177979,76.24061584472656
0,767091,22.227739334106445,-47.07597351074219,27.730220794677734,41.634803771972656
0,767092,25.959856033325195,14.340749740600586,46.73902893066406,4.838197231292725
0,767176,-19.870155334472656,57.73379898071289,32.489471435546875,-103.17552947998047
0,767176,-45.76683044433594,34.21368408203125,-37.29309844970703,-51.368831634521484
0,767176,23.08169174194336,-46.858978271484375,-36.06099319458008,96.5502700805664
0,767176,27.951608657836914,-51.34278869628906,12.436246871948242,21.74830436706543
0,767177,-4.052196979522705,2.4654884338378906,12.859273910522461,-34.41934585571289
0,767177,-11.270926475524902,32.73366165161133,13.898637771606445,14.919386863708496
0,767177,-29.470661163330078,26.214109420776367,-19.666080474853516,-34.180294036865234
0,767177,-7.448040962219238,-13.8847074508667,-32.9420280456543,-60.14497756958008
0,767177,-0.5276300311088562,-6.408526420593262,7.642263412475586,3.3634867668151855
0,767177,-8.102203369140625,16.74802017211914,11.068881034851074,6.8840250968933105
0,767178,2.6269588470458984,-0.806876540184021,-13.368552207946777,15.979750633239746
0,767178,5.435509204864502,-23.669872283935547,-12.452143669128418,53.26725387573242
0,767178,15.992332458496094,7.736949443817139,29.134410858154297,41.985382080078125
0,767178,19.1357479095459,11.836586952209473,29.42453384399414,19.05500030517578
0,767178,8.615897178649902,-24.732730865478516,-10.845331192016602,-5.07774019241333
0,767178,2.6925249099731445,-2.302006483078003,12.067985534667969,-19.042388916015625
0,767179,-2.846251964569092,20.905454635620117,29.07832908630371,-16.884714126586914
0,767179,-26.208892822265625,20.76939582824707,-8.21965503692627,-38.57297897338867
0,767179,0.5407781004905701,11.271027565002441,-14.294509887695312,-28.061185836791992
0,767179,35.17459487915039,-4.615973949432373,-22.642841339111328,18.61623191833496
0,767179,-14.088276863098145,-11.860779762268066,-26.625322341918945,19.431690216064453
0,767179,-24.6658992767334,-12.91069221496582,19.948999404907227,24.121606826782227
0,767180,19.396329879760742,2.371612787246704,17.66571807861328,7.630887508392334
0,767180,6.107787132263184,-18.642452239990234,-31.339324951171875,4.82258939743042
0,767180,-8.261160850524902,-17.120447158813477,-5.676501274108887,13.963172912597656
0,767180,18.37161636352539,27.59062957763672,18.182703018188477,-30.227088928222656
0,767180,4.760310173034668,8.844138145446777,8.433684349060059,-17.436067581176758
0,767181,-21.21921730041504,-21.299190521240234,18.853235244750977,-4.736145973205566
0,767181,-16.747352600097656,-1.0241386890411377,4.422711372375488,-7.619567394256592
0,767181,1.4230940341949463,25.057586669921875,2.0023083686828613,2.5429141521453857
0,767181,8.86221694946289,-6.021211624145508,-15.717205047607422,-0.43729978799819946
0,767181,-4.670161247253418,-18.31342315673828,-16.83884620666504,11.028170585632324
0,767181,25.904521942138672,15.111584663391113,8.306031227111816,-2.9012413024902344
0,767182,29.09193992614746,12.477958679199219,-3.3756766319274902,-12.336861610412598
0,767182,-24.84891128540039,-0.2011079043149948,-2.8134653568267822,-18.33371925354004
0,767182,-19.46472930908203,-26.746379852294922,-15.298188209533691,-15.545760154724121
0,767182,9.528303146362305,-5.737051486968994,-14.913084983825684,-0.18405240774154663
0,767182,-1.3200311660766602,36.801021575927734,-0.5115401744842529,-22.880748748779297
0,767182,-5.485560417175293,8.225723266601562,-29.64845085144043,-16.223133087158203
0,767183,-9.18750286102295,-23.112031936645508,-31.63956069946289,6.0641069412231445
0,767183,-12.157169342041016,-5.3740339279174805,-2.963623046875,3.0438015460968018
0,767183,0.0044741202145814896,5.397188186645508,8.584267616271973,9.905268669128418
0,767184,-26.733842849731445,-13.308404922485352,18.603363037109375,-32.004737854003906
0,767184,-21.16456413269043,-5.995398998260498,31.546005249023438,-29.675189971923828
0,767185,30.493688583374023,9.136795043945312,15.150646209716797,45.01066589355469
0,767185,13.363302230834961,6.180336952209473,-11.693099975585938,17.676755905151367
0,767186,-5.8937458992004395,-7.194965362548828,9.416254997253418,1.820595622062683
0,767189,14.008095741271973,-22.886526107788086,86.0657730102539,272.8782653808594
0,767190,64.26374816894531,-22.00058937072754,97.29899597167969,286.12481689453125
0,767193,27.012893676757812,-1.6465063095092773,-75.42816925048828,-245.4315643310547
0,767194,-81.6814193725586,19.956249237060547,-121.15111541748047,-281.775146484375
0,767197,-22.059398651123047,28.790210723876953,56.82868576049805,55.20297622680664
0,767198,41.30913543701172,29.256784439086914,35.17268753051758,52.11078643798828
0,767201,-14.482669830322266,-8.835404396057129,-70.15516662597656,-10.07236385345459
0,767202,-24.422945022583008,-18.595905303955078,3.3949573040008545,-69.0159912109375
0,767205,1.19120192527771,44.00732421875,22.378597259521484,-91.63109588623047
0,767206,-11.964740753173828,5.031763553619385,-37.51897430419922,13.641805648803711
0,767209,17.21373748779297,-65.75993347167969,-9.749773979187012,97.21610260009766
0,767210,38.882286071777344,-16.137371063232422,5.805030345916748,72.54903411865234
0,767213,-16.620285034179688,11.145020484924316,-1.0904512405395508,-91.44637298583984
0,767214,-23.97007179260254,12.247220993041992,30.10317611694336,-101.87576293945312
0,767217,14.170252799987793,33.519046783447266,20.398826599121094,51.03546905517578
0,767218,19.693729400634766,-5.994022369384766,6.038589954376221,27.13136100769043
0,767314,17.98974609375,-38.51852798461914,19.54764747619629,74.68182373046875
0,767314,4.714016914367676,-0.5800898671150208,8.51453685760498,96.34915924072266
0,767314,-17.600757598876953,23.54897117614746,-27.956989288330078,-85.96160125732422
0,767314,-19.39175796508789,-3.7143826484680176,-26.475162506103516,-108.79910278320312
0,767314,-5.170035362243652,4.825172424316406,-2.681796073913574,-24.10431480407715
0,767315,-19.05985450744629,26.482627868652344,-16.500730514526367,-1.8170597553253174
0,767315,-15.971029281616211,-8.783672332763672,-1.1054927110671997,12.978588104248047
0,767315,16.502532958984375,-12.828751564025879,14.69628620147705,28.67670249938965
0,767315,7.942431449890137,11.551007270812988,-12.360755920410156,32.759708404541016
0,767315,10.373865127563477,-27.104326248168945,-14.374295234680176,32.710018157958984
0,767315,10.328631401062012,-22.306636810302734,3.65647554397583,13.757113456726074
0,767316,0.24018873274326324,31.542442321777344,17.46794319152832,-16.77484893798828
0,767316,-8.009825706481934,17.429340362548828,-0.9692734479904175,-22.307899475097656
0,767316,-9.52361011505127,-10.765461921691895,-18.895597457885742,-32.507911682128906
0,767316,-1.018133521080017,-2.197093963623047,-4.926059722900391,-44.911338806152344
0,767316,-11.396700859069824,5.661218643188477,18.59972381591797,-2.720654249191284
0,767316,8.0552396774292,-7.138294219970703,17.943349838256836,29.122920989990234
0,767317,15.816694259643555,9.61257553100586,-13.469016075134277,22.43096923828125
0,767317,-13.93968391418457,4.357699871063232,-5.199084758758545,29.760356903076172
0,767317,-7.096609115600586,-25.382396697998047,8.947739601135254,33.29336929321289
0,767317,18.84272003173828,-15.918961524963379,1.0322661399841309,19.09375762939453
0,767317,8.242911338806152,11.9540376663208,20.20653533935547,-16.255210876464844
0,767318,-15.73210620880127,15.699094772338867,4.058950424194336,-42.75606155395508
0,767318,1.1115009784698486,-9.444762229919434,-20.509105682373047,-15.03465461730957
0,767318,12.152997970581055,16.34921646118164,6.694679260253906,1.3540565967559814
0,767318,-9.37428092956543,6.006298542022705,-3.9171273708343506,6.785950660705566
0,767318,-10.29613208770752,-19.620954513549805,-14.693802833557129,17.317026138305664
0,767318,19.13905143737793,29.151872634887695,17.70395278930664,-18.820751190185547
0,767319,15.744660377502441,-6.182136058807373,10.519960403442383,-0.5235145092010498
0,767319,-11.498225212097168,-45.082881927490234,-13.941143035888672,33.17599868774414
0,767319,-15.087618827819824,11.769814491271973,-9.94849681854248,6.753037452697754
0,767319,-4.683709144592285,31.630598068237305,5.061004638671875,-18.135717391967773
0,767319,-0.11253979802131653,-4.8754119873046875,9.398134231567383,-12.348912239074707
0,767319,1.8051947355270386,-14.192214965820312,-3.6576552391052246,9.31998348236084
0,767320,16.425344467163086,12.158020973205566,-2.3664710521698,-24.003217697143555
0,767320,0.17743459343910217,4.832419395446777,7.6309051513671875,-27.988428115844727
0,767320,-10.348984718322754,-14.915031433105469,-6.695515155792236,6.0942912101745605
0,767320,-0.9480544924736023,-17.61891746520996,-5.61504602432251,11.830849647521973
0,767320,0.8854366540908813,3.9299142360687256,24.5993595123291,22.853607177734375
0,767320,12.31455135345459,18.020244598388672,7.159587383270264,7.677806377410889
0,767321,-4.5167131423950195,-6.294098854064941,-25.737043380737305,-2.3671669960021973
0,767321,0.3597407937049866,-9.731456756591797,-15.3394136428833,11.099122047424316
0,767321,4.759450435638428,3.069152593612671,-3.24769926071167,4.953188419342041
0,767321,-34.63549041748047,2.361947536468506,21.25204086303711,-4.188380241394043
0,767321,14.217997550964355,-0.18300411105155945,26.38267707824707,-23.292692184448242
0,767322,39.118064880371094,23.6158504486084,-15.41303825378418,-28.547527313232422
0,767322,-38.30073928833008,6.8769354820251465,-28.787302017211914,23.72091293334961
0,767322,-19.157333374023438,-20.199384689331055,14.001169204711914,19.809621810913086
0,767323,14.040580749511719,13.73945140838623,54.46105194091797,-55.81329345703125
0,767323,-0.8547512292861938,-0.20670223236083984,-13.604606628417969,-23.19815444946289
0,767323,11.27903938293457,-17.32881736755371,-45.31795120239258,59.3163948059082
0,767324,-8.362696647644043,-7.644403457641602,16.26848793029785,25.85268783569336
0,767325,-9.129996299743652,2.606091022491455,-7.1540069580078125,-24.868694305419922
0,767326,10.695570945739746,6.298103332519531,-39.979698181152344,12.553102493286133
0,767329,40.65709686279297,-42.164817810058594,-5.48716402053833,181.0753936767578
0,767330,46.787967681884766,-31.18092918395996,32.22879409790039,112.98213195800781
0,767333,-36.59796142578125,21.967073440551758,11.351377487182617,-255.36180114746094
0,767334,-50.290000915527344,31.618009567260742,-24.444013595581055,-165.98281860351562
0,767337,-8.737258911132812,17.36405372619629,-22.262868881225586,113.77949523925781
0,767338,7.906375885009766,7.858329772949219,4.959483623504639,42.59912109375
0,767341,28.860427856445312,8.038817405700684,77.0689697265625,-30.393341064453125
0,767342,0.24731311202049255,-7.378468990325928,71.47419738769531,-68.37754821777344
0,767345,-37.156063079833984,23.767444610595703,-95.6611557006836,-36.069984436035156
0,767346,-28.683856964111328,21.61079216003418,-101.34387969970703,110.63595581054688
0,767349,34.67287826538086,-52.677188873291016,49.026824951171875,82.0262680053711
0,767350,46.93940353393555,-44.270591735839844,47.4835090637207,-6.145988464355469
0,767352,-26.635482788085938,2.490450620651245,-15.416998863220215,-16.249940872192383
0,767354,-17.615571975708008,17.209850311279297,-2.4324660301208496,-74.82767486572266
0,767356,9.897073745727539,28.227731704711914,23.055124282836914,-51.60906982421875
0,767358,-5.483554363250732,20.735008239746094,-0.14987386763095856,44.0257568359375
0,767360,34.917457580566406,5.278159141540527,11.239751815795898,32.02421951293945
0,767467,4.4666008949279785,-21.293062210083008,-6.476115703582764,19.038646697998047
0,767467,-45.54722595214844,-21.87894058227539,-33.12822723388672,-8.707781791687012
0,767468,3.493511199951172,12.093667984008789,21.479093551635742,-63.488014221191406
0,767468,8.944489479064941,22.844297409057617,20.911300659179688,-35.49932861328125
0,767468,-6.981917381286621,-5.859277248382568,-6.194770336151123,14.032938957214355
0,767468,-0.05529314652085304,-8.299732208251953,-18.733440399169922,23.67092514038086
0,767468,8.474964141845703,0.47580692172050476,-28.410179138183594,39.16940689086914
0,767468,9.265835762023926,-25.345884323120117,1.4798243045806885,50.851871490478516
0,767469,2.4014415740966797,-17.49762725830078,7.145633220672607,35.86227035522461
0,767469,5.486578941345215,1.274837613105774,-18.443294525146484,-8.614500999450684
0,767469,-2.959345579147339,-3.081068277359009,-12.171780586242676,-40.005271911621094
0,767469,-18.15650749206543,7.904383182525635,37.24542236328125,-17.361894607543945
0,767469,-3.8562800884246826,30.50065803527832,28.780221939086914,-27.419532775878906
0,767469,10.21523666381836,-11.641748428344727,-14.987442016601562,-23.380495071411133
0,767470,-10.44825267791748,-2.006769895553589,5.773318290710449,-2.6704094409942627
0,767470,-2.5697193145751953,29.879547119140625,-0.6985677480697632,-6.72275972366333
0,767470,-5.825972080230713,-30.1318359375,-16.303497314453125,20.63555335998535
0,767470,-12.092198371887207,-18.867483139038086,7.220752716064453,38.82395935058594
0,767470,35.064369201660156,11.483946800231934,16.056245803833008,9.126860618591309
0,767470,10.432116508483887,-1.1954762935638428,4.098056793212891,-14.960981369018555
0,767471,-30.427982330322266,-2.556131362915039,-16.797163009643555,-12.868441581726074
0,767471,10.653190612792969,4.703327178955078,9.071821212768555,-14.74687671661377
0,767471,9.935625076293945,16.649211883544922,19.755521774291992,-14.852330207824707
0,767471,0.7169649004936218,5.41004753112793,-9.688257217407227,3.407332420349121
0,767471,-3.8279590606689453,-4.2683587074279785,8.670890808105469,18.112043380737305
0,767471,-16.36709213256836,12.361281394958496,10.108997344970703,13.917691230773926
0,767472,-3.976062059402466,-2.3826119899749756,-22.559064865112305,10.75860595703125
0,767472,-0.2262660712003708,-5.0012125968933105,-34.46761703491211,0.12974895536899567
0,767472,22.103742599487305,1.1844133138656616,-24.35820770263672,-3.74758243560791
0,767472,12.470776557922363,-16.0113468170166,-5.678144454956055,-4.32078742980957
0,767472,-21.851503372192383,1.7290539741516113,4.872944355010986,-9.046278953552246
0,767473,-7.095903396606445,0.29194965958595276,22.0535888671875,3.882772445678711
0,767473,20.102027893066406,14.665688514709473,15.15833568572998,-15.29936695098877
0,767473,-11.040933609008789,13.603569984436035,-9.038397789001465,-41.2016716003418
0,767473,-23.51307487487793,-6.898894309997559,-1.1711580753326416,-1.6459708213806152
0,767473,21.308809280395508,15.95592212677002,12.660287857055664,26.863487243652344
0,767473,12.71592903137207,-0.9846222996711731,5.254696846008301,-0.7899017333984375
0,767474,-16.353044509887695,-27.756851196289062,-1.225766897201538,6.465834140777588
0,767474,4.305564880371094,-11.04880142211914,-4.539038181304932,27.86790657043457
0,767474,9.508393287658691,19.400087356567383,1.2386928796768188,-2.4273338317871094
0,767474,-12.760496139526367,22.173612594604492,19.84707260131836,-30.11622428894043
0,767474,5.9199323654174805,-10.85081672668457,-18.27481460571289,-3.4602530002593994
0,767474,5.370378494262695,-40.67780685424805,-10.596627235412598,13.703102111816406
0,767475,-11.686919212341309,11.375250816345215,33.432762145996094,-11.413772583007812
0,767475,7.536901473999023,44.45328903198242,-15.322510719299316,-2.505615711212158
0,767475,1.6644785404205322,-9.733402252197266,-31.230083465576172,9.997827529907227
0,767475,-15.819255828857422,-8.37874698638916,29.75921630859375,25.003005981445312
0,767475,2.3768222332000732,11.482901573181152,29.209714889526367,24.975854873657227
0,767475,27.40777015686035,-5.761505603790283,-16.987295150756836,-23.992830276489258
0,767476,-0.09034422039985657,-32.7076530456543,-10.815410614013672,-9.61264419555664
0,767476,-31.551109313964844,-13.02607250213623,1.9639558792114258,30.479883193969727
0,767476,-4.001255989074707,23.723186492919922,7.558914661407471,-9.559712409973145
0,767476,10.667974472045898,1.5637383460998535,-2.7878124713897705,-14.984464645385742
0,767477,-23.713552474975586,3.6672959327697754,-42.25596237182617,5.784572601318359
0,767478,-18.289464950561523,15.840234756469727,-33.63444900512695,-26.546701431274414
0,767478,25.958209991455078,-25.543560028076172,28.829315185546875,-1.0181269645690918
0,767478,14.805840492248535,-17.379344940185547,13.698698997497559,6.841832637786865
0,767478,-18.23513412475586,23.356948852539062,-16.984485626220703,-19.359758377075195
0,767479,-11.695535659790039,-18.062101364135742,7.811283588409424,-10.873013496398926
0,767481,14.66659927368164,-21.99355697631836,17.651714324951172,-7.05493688583374
0,767482,33.1972541809082,39.5485725402832,58.11371994018555,-30.07469367980957
0,767485,9.241621971130371,42.470088958740234,19.144733428955078,33.704524993896484
0,767486,-1.8189069032669067,-8.875249862670898,-57.206478118896484,125.23400115966797
0,767489,4.225259304046631,-64.28437042236328,-29.590686798095703,4.852290153503418
0,767490,6.2170891761779785,-46.44011688232422,-5.480190753936768,-30.0246639251709
0,767493,27.71942901611328,25.730928421020508,69.00675964355469,-40.71752166748047
0,767494,0.7277256846427917,73.0004653930664,75.15215301513672,-89.79483032226562
0,767497,-35.58622741699219,27.619844436645508,-82.58612060546875,129.3679656982422
0,767498,-22.593563079833984,-23.990398406982422,-76.52497863769531,127.36858367919922
0,767501,1.1793631315231323,-15.766719818115234,32.734535217285156,-141.93167114257812
0,767502,-5.976241111755371,-13.025986671447754,22.875133514404297,-138.1218719482422
0,767505,-40.926876068115234,8.210376739501953,-53.93169403076172,-178.0854949951172
0,767506,-13.324195861816406,8.148226737976074,-43.389991760253906,-54.165409088134766
0,767509,59.582401275634766,-32.38201904296875,72.49464416503906,402.2786865234375
0,767510,28.325002670288086,-30.346786499023438,36.166778564453125,218.6610107421875
0,767513,-14.47374439239502,3.4849607944488525,-23.791751861572266,-209.4292449951172
0,767514,-11.65207290649414,15.518865585327148,5.010438442230225,-130.9135284423828
0,767517,-18.462297439575195,43.01198196411133,-28.028968811035156,37.79506301879883
0,767518,13.334829330444336,21.16054916381836,-7.324639797210693,155.08303833007812
0,767636,20.61492919921875,-17.083763122558594,35.301090240478516,67.92762756347656
0,767636,-1.1530883312225342,-10.126896858215332,-0.5355017781257629,-131.92906188964844
0,767637,0.3130562901496887,-12.6907377243042,-16.0853214263916,-33.964149475097656
0,767637,-20.521926879882812,11.543119430541992,3.9682390689849854,17.733125686645508
0,767637,-4.905190467834473,31.071443557739258,11.448931694030762,-47.61989974975586
0,767637,18.57294464111328,-10.098121643066406,-5.831657886505127,-38.0915412902832
0,767637,-14.937832832336426,-17.55072021484375,-16.253278732299805,-24.010047912597656
0,767637,-6.434091091156006,-1.566977620124817,20.64472198486328,23.563451766967773
0,767638,17.414989471435547,-21.75806427001953,17.190942764282227,30.137950897216797
0,767638,21.80881118774414,2.218930721282959,-19.708845138549805,23.53055191040039
0,767638,2.6152613162994385,-0.8467921018600464,10.359508514404297,35.935386657714844
0,767638,-10.892951965332031,-4.902039527893066,25.28172492980957,11.195117950439453
0,767638,7.808637619018555,42.88786697387695,-5.388117790222168,-10.523111343383789
0,767638,11.872955322265625,16.52975082397461,-10.456247329711914,-13.91086196899414
0,767639,-13.486936569213867,-15.515424728393555,-0.5587146878242493,-18.144145965576172
0,767639,-27.69953155517578,-17.768924713134766,5.1384429931640625,-31.7814998626709
0,767639,5.982872009277344,-1.9018069505691528,-7.456795692443848,-44.07130432128906
0,767639,2.1190426349639893,14.252060890197754,-22.295188903808594,-12.69260025024414
0,767639,-13.077280044555664,-28.374753952026367,-10.224267959594727,17.461090087890625
0,767639,4.808811664581299,-24.05364418029785,-1.7795467376708984,-14.067336082458496
0,767640,3.2678558826446533,7.036771297454834,-6.512997150421143,-17.538516998291016
0,767640,-11.665079116821289,-18.217533111572266,-22.978092193603516,2.3091578483581543
0,767640,-14.97348403930664,-5.28098726272583,-0.43050459027290344,-10.112520217895508
0,767640,-12.630156517028809,6.390812397003174,27.744810104370117,2.0813238620758057
0,767640,-15.332270622253418,-3.4189839363098145,-9.331817626953125,-23.616044998168945
0,767640,16.222875595092773,17.855642318725586,-14.84382152557373,-39.50929260253906
0,767641,13.702964782714844,8.457338333129883,17.64010238647461,-8.681499481201172
0,767641,-28.590499877929688,-13.3651704788208,8.773378372192383,-22.12687110900879
0,767641,-12.726483345031738,-22.512569427490234,-8.997537612915039,-14.240213394165039
0,767641,21.648332595825195,20.623979568481445,14.12486457824707,27.06607437133789
0,767641,36.94565963745117,39.014373779296875,26.509183883666992,36.104827880859375
0,767642,14.574898719787598,-15.288558006286621,13.052109718322754,40.26048278808594
0,767642,-1.9297946691513062,-10.413488388061523,11.760543823242188,49.284969329833984
0,767642,12.953485488891602,37.28602600097656,7.544469356536865,25.230030059814453
0,767642,6.189694404602051,37.672080993652344,-1.609574317932129,23.328655242919922
0,767642,-2.5287067890167236,4.46306037902832,-6.590024471282959,41.65554428100586
0,767642,10.36663818359375,1.5378224849700928,-5.327395915985107,-4.708497047424316
0,767643,27.10554313659668,6.327821731567383,-10.584823608398438,-47.97430419921875
0,767643,-4.59495210647583,-13.453214645385742,-11.548678398132324,12.955662727355957
0,767643,-25.99138641357422,-14.342657089233398,5.379292964935303,32.62206268310547
0,767643,4.406404495239258,-3.861635446548462,-18.393627166748047,-23.659927368164062
0,767643,-5.358856678009033,-20.764482498168945,-32.9445915222168,-11.677778244018555
0,767643,-8.027512550354004,-4.468063831329346,17.559532165527344,-15.131040573120117
0,767644,3.101135492324829,10.370833396911621,18.257205963134766,-42.48141860961914
0,767644,-25.81061363220215,-23.878076553344727,-4.046186447143555,-15.967926979064941
0,767644,-8.653274536132812,-11.68529987335205,11.15737247467041,-22.084564208984375
0,767644,9.538278579711914,16.95456886291504,-4.159389019012451,-19.654081344604492
0,767644,-18.842348098754883,3.2069013118743896,-2.2975330352783203,35.681583404541016
0,767644,0.7743266224861145,-24.81587028503418,1.396193027496338,-3.527740240097046
0,767645,11.820175170898438,-21.279285430908203,-21.88949966430664,-30.79461669921875
0,767645,-23.339675903320312,3.7520883083343506,14.692743301391602,31.724872589111328
0,767645,-22.685640335083008,20.15744972229004,39.858943939208984,-15.818522453308105
0,767645,11.26095962524414,1.3391389846801758,-25.960830688476562,-48.369239807128906
0,767645,15.327119827270508,-9.366975784301758,-31.915212631225586,11.111884117126465
0,767645,-7.323827266693115,9.416014671325684,31.799875259399414,11.060735702514648
0,767646,16.934972763061523,4.266406536102295,-6.921774387359619,2.695976734161377
0,767646,13.854293823242188,-7.968596458435059,-44.05339431762695,6.645954132080078
0,767646,-9.73517894744873,0.9285649657249451,6.454901218414307,8.3635892868042
0,767646,13.854998588562012,12.883133888244629,13.856437683105469,47.24116897583008
0,767647,0.30546072125434875,-25.67243194580078,-40.24781799316406,321.1811218261719
0,767648,-11.78431224822998,-8.866150856018066,-29.576833724975586,263.2963562011719
0,767648,16.328752517700195,28.15616798400879,29.308229446411133,-181.79718017578125
0,767648,21.585525512695312,1.802168369293213,17.331850051879883,-85.55360412597656
0,767648,-1.5434167385101318,-4.0831685066223145,-17.160276412963867,55.57374954223633
0,767649,27.670005798339844,-22.12885093688965,25.12251853942871,106.30229949951172
0,767651,46.366188049316406,22.545385360717773,95.77894592285156,31.590469360351562
0,767652,-54.874359130859375,23.308856964111328,-8.183852195739746,-410.10235595703125
0,767655,-48.173892974853516,-5.990119934082031,-39.26173400878906,-249.08416748046875
0,767656,49.077796936035156,54.942100524902344,56.828468322753906,206.48367309570312
0,767659,-21.091753005981445,-8.821571350097656,-16.451679229736328,92.1662368774414
0,767660,-49.455711364746094,-34.21073913574219,-34.17143249511719,-196.79859924316406
0,767663,13.2416353225708,28.540258407592773,5.265418529510498,-248.25936889648438
0,767664,-31.73590660095215,-0.7645325660705566,-34.66145706176758,-53.60533905029297
0,767667,-15.3764009475708,-31.76624870300293,-14.865751266479492,204.02517700195312
0,767668,73.49585723876953,-5.039463043212891,34.81386184692383,210.805419921875
0,767671,20.56418800354004,-37.4759521484375,-7.4046311378479,39.72833251953125
0,767672,-21.461286544799805,-63.41053771972656,-35.10189437866211,-1.4073737859725952
0,767675,-13.763087272644043,59.572513580322266,26.5618896484375,-86.2464828491211
0,767676,-24.6405029296875,94.6097640991211,30.274267196655273,-49.94415283203125
0,767679,42.030296325683594,-27.416790008544922,-7.458454132080078,74.75916290283203
0,767680,26.14047622680664,-46.7113037109375,-30.310976028442383,-47.04661560058594
0,767683,-73.96195220947266,11.500214576721191,-46.726680755615234,-110.84168243408203
0,767684,-28.84115982055664,19.899993896484375,41.30910873413086,8.587909698486328
0,767687,65.23323822021484,-7.137572288513184,44.27981948852539,142.27232360839844
0,767688,32.11027145385742,-19.482717514038086,-26.213977813720703,83.37769317626953
0,767691,-22.591266632080078,-23.454702377319336,6.339608669281006,-35.34046936035156
0,767820,-40.349212646484375,21.946428298950195,-20.62645721435547,-11.070832252502441
0,767821,-26.522489547729492,51.769859313964844,-36.944366455078125,30.492412567138672
0,767821,41.4108772277832,-49.38867950439453,25.4412899017334,0.527648389339447
0,767821,31.676042556762695,-27.986299514770508,20.853574752807617,-10.721302032470703
0,767821,-20.09613037109375,37.272796630859375,9.066861152648926,9.055228233337402
0,767821,4.363866806030273,3.9201269149780273,22.818805694580078,-16.15968894958496
0,767821,15.640783309936523,4.517898082733154,-1.2043719291687012,-49.094444274902344
0,767822,-17.48343849182129,13.845558166503906,-5.275267601013184,-44.83548355102539
0,767822,-19.887910842895508,3.484243392944336,-16.237812042236328,-21.050851821899414
0,767822,-14.351395606994629,-10.578438758850098,-33.340633392333984,13.267862319946289
0,767822,-8.06309986114502,0.7450062036514282,10.364828109741211,14.561184883117676
0,767822,28.072525024414062,7.979511260986328,22.824073791503906,-20.342309951782227
0,767823,17.30040740966797,-13.927477836608887,-3.7882080078125,19.045785903930664
0,767823,-17.197322845458984,-21.923717498779297,13.987199783325195,44.2865104675293
0,767823,18.043397903442383,13.31734848022461,21.889602661132812,3.651179790496826
0,767823,27.50275421142578,18.258928298950195,-9.333868026733398,-13.820691108703613
0,767823,-25.223337173461914,-16.709774017333984,-24.49383544921875,-4.93532133102417
0,767823,-8.628777503967285,0.6937287449836731,-6.49365234375,-1.4939825534820557
0,767824,14.444367408752441,5.509683609008789,9.384430885314941,-6.498356342315674
0,767824,-25.069204330444336,-5.113132953643799,10.653215408325195,-11.534852027893066
0,767824,-8.896889686584473,2.3573765754699707,-10.083630561828613,-6.169768333435059
0,767824,29.775861740112305,-6.216278076171875,-13.020586013793945,11.0680513381958
0,767824,18.27751350402832,-21.637556076049805,-5.501942157745361,-5.322320461273193
0,767824,-11.19317626953125,-12.960002899169922,-1.3565081357955933,-9.102354049682617
0,767825,-8.472776412963867,19.476961135864258,25.384279251098633,6.2814836502075195
0,767825,9.919711112976074,-18.864112854003906,14.458480834960938,3.5589284896850586
0,767825,-11.696504592895508,-18.125675201416016,-12.505606651306152,-12.465771675109863
0,767825,-22.188695907592773,38.20334243774414,-18.73650360107422,-4.256198883056641
0,767825,-1.908035397529602,7.523075580596924,-11.51114273071289,16.986953735351562
0,767825,6.160111904144287,-21.99700164794922,-7.606259822845459,-3.4286956787109375
0,767826,5.046460151672363,-4.23159122467041,-6.110757827758789,-6.156429290771484
0,767826,-0.45748370885849,11.058381080627441,25.101329803466797,29.68975257873535
0,767826,1.0701866149902344,-7.104763984680176,8.255644798278809,29.771251678466797
0,767826,-0.5702552795410156,-15.985559463500977,-18.837934494018555,2.536466121673584
0,767826,-9.39374828338623,28.474077224731445,11.016921997070312,29.322843551635742
0,767826,8.26550579071045,26.597951889038086,9.096259117126465,20.155946731567383
0,767827,9.438932418823242,-17.25518035888672,-5.818778991699219,-4.534125804901123
0,767827,-4.895576477050781,16.648094177246094,6.239241123199463,21.715778350830078
0,767827,9.243337631225586,16.136491775512695,-4.373785972595215,17.54374122619629
0,767827,10.612133979797363,-33.12083435058594,-12.612059593200684,2.4616003036499023
0,767827,-7.71465539932251,14.212686538696289,13.225364685058594,3.36903715133667
0,767827,1.2829562425613403,34.287315368652344,8.126640319824219,2.0674867630004883
0,767828,13.180876731872559,-35.81253433227539,-12.686178207397461,-4.376786231994629
0,767828,4.004775047302246,-22.673629760742188,-9.79332160949707,4.4017815589904785
0,767828,2.913823366165161,22.79437255859375,9.373991966247559,-13.747880935668945
0,767828,7.118360996246338,-13.47213077545166,8.707033157348633,-23.87904167175293
0,767828,-4.423959732055664,0.4298584461212158,-20.02794075012207,-11.320769309997559
0,767828,-8.8001708984375,18.612380981445312,-8.789329528808594,-37.010902404785156
0,767829,-24.783246994018555,-37.49237823486328,16.52761459350586,-9.149934768676758
0,767829,-25.786590576171875,3.6518211364746094,-5.1461639404296875,10.895074844360352
0,767829,13.412632942199707,46.60160446166992,-12.215950012207031,-32.86785888671875
0,767829,6.216811180114746,-19.492717742919922,25.99530029296875,-4.064197063446045
0,767829,-6.6949005126953125,-18.871807098388672,7.329807758331299,20.67669105529785
0,767830,16.32707977294922,1.9159603118896484,4.032582759857178,-8.759897232055664
0,767830,8.256071090698242,6.13785457611084,26.39008331298828,-21.090923309326172
0,767830,-7.279594898223877,20.078340530395508,-24.787010192871094,6.659071445465088
0,767830,5.449219703674316,-15.107681274414062,-16.390602111816406,10.150575637817383
0,767830,13.731992721557617,-9.88092041015625,27.581283569335938,-22.267900466918945
0,767830,-2.6111485958099365,-4.163543224334717,5.763271331787109,14.06420612335205
0,767831,-23.574018478393555,-12.720925331115723,-17.011852264404297,7.290571689605713
0,767831,5.832344055175781,30.73095703125,-3.549787998199463,-27.893579483032227
0,767831,4.97161865234375,10.311315536499023,9.195428848266602,15.16225814819336
0,767831,-8.378852844238281,-28.345529556274414,-11.982876777648926,16.658985137939453
0,767831,8.525592803955078,-13.680254936218262,-18.782569885253906,-11.022000312805176
0,767831,-17.892858505249023,8.598369598388672,15.50069808959961,3.211648464202881
0,767833,9.873329162597656,28.136728286743164,33.56517028808594,4.406925201416016
0,767833,15.54024600982666,23.410564422607422,4.0099310874938965,34.33897399902344
0,767833,-19.416580200195312,13.114889144897461,-32.53424835205078,27.5688419342041
0,767833,-1.4661200046539307,-16.47208595275879,-15.168131828308105,-45.32379913330078
0,767833,-7.701054573059082,-29.136924743652344,14.63296127319336,-14.661236763000488
0,767833,-2.9566216468811035,16.799089431762695,1.8524595499038696,-5.856927871704102
0,767835,-15.4148530960083,16.07177734375,-20.90533447265625,-152.75889587402344
0,767836,-15.686559677124023,-26.173851013183594,-24.27621841430664,-91.03829193115234
0,767839,32.13199996948242,-8.99868392944336,-12.675580024719238,68.75338745117188
0,767840,7.038139820098877,32.79293441772461,34.0339241027832,71.24382019042969
0,767843,-40.87130355834961,-2.837285280227661,-2.411756992340088,-57.65073013305664
0,767844,-37.2639274597168,-58.00743865966797,-66.26663208007812,-104.42945861816406
0,767847,46.41569519042969,50.51781463623047,74.94283294677734,304.71484375
0,767848,110.82733917236328,63.76155471801758,49.310489654541016,312.26263427734375
0,767851,-5.85429573059082,-108.06686401367188,-73.94556427001953,-248.58932495117188
0,767852,-57.54753112792969,-77.69610595703125,42.627506256103516,-226.35292053222656
0,767855,19.136661529541016,49.635833740234375,-2.8186745643615723,98.7818374633789
0,767856,-21.31085205078125,35.80387878417969,-44.531707763671875,17.675230026245117
0,767859,-20.94232177734375,22.346481323242188,38.712135314941406,24.490489959716797
0,767860,38.78193664550781,64.57476806640625,68.89720916748047,136.93556213378906
0,767862,52.82175064086914,18.622209548950195,76.53640747070312,8.008749008178711
0,767864,-52.28216552734375,-91.14118194580078,-141.5980224609375,-227.3992462158203
0,767866,-116.15966796875,-93.87741088867188,-147.79335021972656,-154.40467834472656
0,767868,43.91128158569336,23.45331573486328,68.6407699584961,298.06390380859375
0,767870,66.58077239990234,37.11081314086914,51.866737365722656,208.81033325195312
0,768006,-17.444284439086914,56.90525817871094,15.232295036315918,-276.5292663574219
0,768006,-24.371610641479492,63.08578109741211,12.296730041503906,-119.5723648071289
0,768007,2.6894187927246094,-49.66513442993164,-5.199530124664307,200.7494354248047
0,768007,10.261512756347656,-47.582374572753906,-32.50162887573242,49.7504768371582
0,768007,-2.9528307914733887,-21.916118621826172,-14.285948753356934,-54.085575103759766
0,768007,13.994028091430664,7.03196382522583,43.126583099365234,-16.593111038208008
0,768007,12.674308776855469,24.906827926635742,21.21864891052246,-70.41905212402344
0,768007,-1.6793262958526611,-21.209938049316406,-13.985795021057129,-30.222509384155273
0,768008,-6.369689464569092,-1.127217173576355,-0.35843387246131897,34.25287628173828
0,768008,-6.982365608215332,37.66866683959961,24.493749618530273,-23.52672004699707
0,768008,-0.4250134825706482,14.791184425354004,6.948973655700684,-19.97950553894043
0,768008,9.933077812194824,-30.448204040527344,-24.176511764526367,41.90129089355469
0,768008,3.4539263248443604,-28.96965980529785,-21.183490753173828,26.111934661865234
0,768009,14.089258193969727,16.788225173950195,-11.894959449768066,20.663129806518555
0,768009,11.568867683410645,-2.035569190979004,-3.354092836380005,34.145782470703125
0,768009,-30.18455696105957,-34.1724853515625,1.4244270324707031,-7.978299140930176
0,768009,-6.786192893981934,17.02779769897461,21.117538452148438,-56.770355224609375
0,768009,27.300207138061523,30.833763122558594,24.597003936767578,-32.385589599609375
0,768009,0.14069412648677826,5.391321182250977,1.0500733852386475,24.22174644470215
0,768010,-11.6383638381958,10.116435050964355,15.975312232971191,15.464446067810059
0,768010,5.297199726104736,-4.062407970428467,7.2325825691223145,-14.60965347290039
0,768010,9.959324836730957,-20.57950782775879,-12.857210159301758,5.132406234741211
0,768010,-10.4457368850708,6.461288928985596,6.002045154571533,35.8663330078125
0,768010,-2.8397207260131836,16.130521774291992,-6.045997142791748,-2.6600122451782227
0,768010,-2.954087495803833,-24.411890029907227,-13.929829597473145,-32.18138885498047
0,768011,-2.3394076824188232,-10.033080101013184,15.237091064453125,-7.951556205749512
0,768011,16.239639282226562,34.62814712524414,16.20574951171875,-27.684410095214844
0,768011,-17.77993392944336,15.863536834716797,-8.352087020874023,-42.232017517089844
0,768011,-6.076087474822998,-15.190884590148926,-26.18270492553711,-32.051177978515625
0,768011,5.81594705581665,-10.942961692810059,-21.745086669921875,-7.364570140838623
0,768011,-27.50023078918457,15.432579040527344,6.60206413269043,32.957916259765625
0,768012,7.181402206420898,6.215911865234375,10.521774291992188,-0.4461020231246948
0,768012,15.529621124267578,-22.58836555480957,-1.941893219947815,-14.203943252563477
0,768012,-10.691614151000977,5.774329662322998,-6.538884162902832,18.707263946533203
0,768012,-0.4313865005970001,9.366605758666992,-18.645750045776367,1.975455403327942
0,768012,-2.981353521347046,-20.001129150390625,1.6235543489456177,-12.880843162536621
0,768012,4.204655647277832,7.3521599769592285,24.523473739624023,-27.30769157409668
0,768013,11.150481224060059,7.001687526702881,-18.969694137573242,-15.19517707824707
0,768013,-15.550339698791504,9.2085542678833,-16.68437957763672,7.077172756195068
0,768013,-5.136086463928223,6.33088493347168,11.163525581359863,5.511117935180664
0,768013,5.09226655960083,-35.8595085144043,-24.8667049407959,32.23113250732422
0,768013,-14.215067863464355,8.266834259033203,-4.701196193695068,12.639681816101074
0,768013,0.6122893691062927,26.389705657958984,20.935422897338867,-9.847444534301758
0,768014,7.80419397354126,-32.96372604370117,-13.303933143615723,6.2771525382995605
0,768014,-11.91508960723877,-6.984210014343262,-11.524288177490234,-0.6279202103614807
0,768014,-6.221692085266113,24.136215209960938,2.7436721324920654,18.176557540893555
0,768014,15.643638610839844,1.503211259841919,24.132299423217773,31.36720085144043
0,768014,14.287898063659668,13.313619613647461,13.654040336608887,-1.8636326789855957
0,768014,-4.932710647583008,-9.602436065673828,-19.835590362548828,4.575153827667236
0,768015,-13.68509292602539,-7.24747371673584,18.549041748046875,40.5918083190918
0,768015,16.430585861206055,10.697586059570312,20.649106979370117,11.044732093811035
0,768015,21.483505249023438,-17.255844116210938,-13.255905151367188,-11.860069274902344
0,768015,-9.814486503601074,-23.0659122467041,-2.8723700046539307,21.35350799560547
0,768015,-21.655818939208984,-12.63054370880127,11.207208633422852,33.285682678222656
0,768016,-3.437028646469116,42.38984680175781,7.891541481018066,10.79033374786377
0,768016,19.611196517944336,22.002500534057617,-17.864587783813477,20.530691146850586
0,768016,-10.696417808532715,-34.01017761230469,-12.718677520751953,22.312108993530273
0,768016,-14.866668701171875,11.342751502990723,7.467129707336426,-22.720834732055664
0,768016,19.944856643676758,1.3029104471206665,-10.682613372802734,-11.649971008300781
0,768016,-8.84962272644043,-29.287443161010742,11.25771713256836,13.356246948242188
0,768017,-12.396839141845703,31.776668548583984,16.415761947631836,-3.8408424854278564
0,768017,26.30449104309082,21.671571731567383,-8.683157920837402,11.02346134185791
0,768017,10.786097526550293,-19.306974411010742,17.122028350830078,-16.042125701904297
0,768017,-4.073117256164551,5.56248664855957,-15.547737121582031,-56.25831604003906
0,768017,0.0837709903717041,-16.136524200439453,-21.854162216186523,3.7002146244049072
0,768017,8.524212837219238,-17.80805778503418,41.515384674072266,0.22524984180927277
0,768018,4.6207594871521,16.403535842895508,1.0637688636779785,-54.86979293823242
0,768018,-10.316486358642578,8.24821949005127,-27.381864547729492,-8.748658180236816
0,768019,2.486422300338745,-6.087993144989014,9.948116302490234,25.816001892089844
0,768019,-6.894822597503662,-12.168173789978027,-14.538640975952148,-27.119646072387695
0,768019,-10.216911315917969,0.10609143227338791,-21.368492126464844,-26.963552474975586
0,768020,7.605228424072266,19.387622833251953,15.611556053161621,30.688018798828125
0,768020,-4.516427516937256,2.9559316635131836,11.286959648132324,4.739253997802734
0,768020,-4.120179653167725,-8.96550464630127,-11.453397750854492,-20.642887115478516
0,768021,-5.103178977966309,-19.81796646118164,-17.435937881469727,-60.06800079345703
0,768022,-25.87640380859375,7.7975358963012695,3.2391293048858643,-254.09397888183594
0,768024,8.939018249511719,63.58966064453125,37.86991500854492,-71.2672119140625
0,768026,55.10736083984375,-6.656368255615234,27.93991470336914,434.35516357421875
0,768028,33.25160217285156,-75.15402221679688,13.683408737182617,262.0085754394531
0,768031,-11.636673927307129,-54.76689910888672,-25.621370315551758,-114.35650634765625
0,768032,-36.1590576171875,0.66795814037323,-46.763671875,-117.17595672607422
0,768035,-8.449338912963867,74.1789779663086,26.782445907592773,-212.76861572265625
0,768036,1.2722783088684082,38.75796127319336,38.48158264160156,-54.24189376831055
0,768039,-3.4803597927093506,-10.684576988220215,-7.896361351013184,303.8002624511719
0,768040,-3.1537435054779053,-6.799711227416992,-35.47777557373047,128.2574920654297
0,768043,-32.427303314208984,-4.158227443695068,-25.6376895904541,-157.5520477294922
0,768044,0.027089737355709076,18.8861026763916,16.230735778808594,-131.10348510742188
0,768174,37.47794723510742,-37.35259246826172,18.070714950561523,29.036521911621094
0,768174,10.070816993713379,-24.5469913482666,-12.664713859558105,91.93376922607422
0,768174,-16.3083438873291,59.693397521972656,-12.87856388092041,-62.37900161743164
0,768175,-6.584939956665039,-9.371805191040039,-7.512521743774414,-31.99278450012207
0,768175,-8.754617691040039,-46.756778717041016,3.8714165687561035,66.61958312988281
0,768175,5.127414226531982,15.471527099609375,23.863801956176758,8.400314331054688
0,768175,28.5108642578125,13.313175201416016,-7.342376232147217,15.926283836364746
0,768175,-0.5968177914619446,-29.42350196838379,-27.10556411743164,28.453584671020508
0,768175,-18.99128532409668,1.5690016746520996,7.474345684051514,-23.19420051574707
0,768176,-11.439908981323242,21.989336013793945,19.388824462890625,-37.01473617553711
0,768176,-4.525949954986572,-7.316009044647217,-8.648253440856934,-21.293001174926758
0,768176,-15.053810119628906,6.407775402069092,-16.320741653442383,-51.917518615722656
0,768176,-4.555687427520752,20.10873794555664,8.983800888061523,-35.965492248535156
0,768176,30.12059211730957,17.80647850036621,17.92926025390625,8.538233757019043
0,768176,21.882450103759766,-9.483260154724121,8.751567840576172,9.45515251159668
0,768177,-7.856919765472412,-19.917308807373047,9.661219596862793,28.45182991027832
0,768177,3.3445780277252197,8.611021041870117,2.2857089042663574,33.859859466552734
0,768177,15.574650764465332,-12.199777603149414,-10.842720985412598,13.108312606811523
0,768177,-8.327730178833008,-28.467754364013672,-4.087001800537109,7.467284202575684
0,768177,-11.363523483276367,17.615468978881836,12.022103309631348,3.212217092514038
0,768177,-1.606260061264038,28.07027816772461,15.967794418334961,-11.589495658874512
0,768178,-1.777449131011963,3.0018248558044434,-10.62632942199707,-16.353973388671875
0,768178,1.211251974105835,10.756946563720703,-13.284674644470215,-13.008334159851074
0,768178,21.141298294067383,-4.1770501136779785,12.809457778930664,16.124547958374023
0,768178,5.511319637298584,-3.5287842750549316,-9.482687950134277,24.911134719848633
0,768178,-28.562957763671875,-2.480037212371826,-8.80444049835205,-18.861570358276367
0,768179,17.069486618041992,-26.205787658691406,7.087322235107422,-14.258028984069824
0,768179,17.930950164794922,-1.0273289680480957,-5.289864540100098,10.059297561645508
0,768179,-31.067506790161133,16.801128387451172,1.2994104623794556,-1.861045241355896
0,768179,-0.6396165490150452,0.6016914248466492,-3.987009048461914,-38.02096176147461
0,768179,15.617844581604004,-14.988768577575684,-17.179689407348633,-32.028446197509766
0,768179,-15.748383522033691,-14.012060165405273,3.634260416030884,20.623214721679688
0,768179,-27.671493530273438,8.682038307189941,21.45944595336914,26.918840408325195
0,768180,-1.9470871686935425,17.080183029174805,-4.534791946411133,10.498499870300293
0,768180,9.157159805297852,-5.8746867179870605,-9.526381492614746,22.891820907592773
0,768180,-7.989904403686523,4.47126579284668,8.749541282653809,19.412134170532227
0,768180,9.789935111999512,8.774675369262695,-10.36571216583252,6.976199626922607
0,768180,25.20435905456543,-14.406668663024902,-6.485376834869385,10.383137702941895
0,768181,2.479036331176758,-1.0867739915847778,20.61946678161621,-13.587718963623047
0,768181,-11.967552185058594,13.545093536376953,14.344864845275879,3.4795162677764893
0,768181,-3.1907846927642822,4.491578578948975,2.504845380783081,33.90324401855469
0,768181,0.13641968369483948,4.780431270599365,-12.81881046295166,-21.173002243041992
0,768181,2.140141010284424,-7.103041172027588,-6.736338138580322,-27.79852867126465
0,768181,-2.0282561779022217,2.5234456062316895,4.5705084800720215,18.44453239440918
0,768182,-0.6953647136688232,23.373516082763672,-10.992473602294922,4.9772210121154785
0,768182,-6.569556713104248,-15.52953815460205,2.0240273475646973,2.045041561126709
0,768182,-10.570450782775879,-30.95290184020996,3.4113075733184814,18.043785095214844
0,768182,9.751598358154297,1.749987006187439,-8.05037784576416,-14.683141708374023
0,768182,3.49479079246521,9.42998218536377,0.49010443687438965,-22.40847396850586
0,768182,-5.345297336578369,-0.05710691958665848,-5.941677570343018,19.21808624267578
0,768183,2.954648971557617,1.4437168836593628,-8.9111328125,-0.13721294701099396
0,768183,21.11982536315918,-17.720422744750977,9.418516159057617,-15.99181842803955
0,768183,6.502025127410889,-7.3992180824279785,9.856341361999512,21.12674903869629
0,768183,-25.23676109313965,24.631649017333984,1.6754094362258911,0.26205384731292725
0,768183,9.724888801574707,-10.55990219116211,-4.367750644683838,-27.928483963012695
0,768183,21.79560089111328,-6.9453020095825195,-12.499566078186035,11.283358573913574
0,768184,-6.925588130950928,23.47384262084961,5.632657051086426,10.57183837890625
0,768184,13.739506721496582,-3.5116302967071533,9.638967514038086,-17.503143310546875
0,768184,1.874211311340332,-0.2539374828338623,-7.696889877319336,-3.512981653213501
0,768184,-23.75775146484375,13.828295707702637,-4.700475692749023,3.568171739578247
0,768184,-5.290826320648193,-12.144966125488281,-9.893486976623535,-4.240840911865234
0,768184,8.796207427978516,-10.048675537109375,-5.391502380371094,-0.4333815276622772
0,768185,-3.0873830318450928,1.9653068780899048,15.74467658996582,5.472991943359375
0,768185,-19.5772705078125,-9.562504768371582,4.779770374298096,-5.793815612792969
0,768185,5.65833044052124,7.335367202758789,-2.655306100845337,-1.7485650777816772
0,768186,2.992487907409668,-25.262582778930664,-5.398146152496338,0.7193397879600525
0,768186,-0.7189007997512817,-26.4808349609375,-5.3293657302856445,-14.530754089355469
0,768187,12.28382396697998,22.48541831970215,3.821241617202759,1.917367696762085
0,768187,-5.726006031036377,12.912931442260742,10.049262046813965,-0.5379545092582703
0,768187,-13.796327590942383,-7.54714298248291,-7.16841459274292,-25.38097381591797
0,768187,0.5785728096961975,-11.255586624145508,-10.434301376342773,-9.228212356567383
0,768188,14.84219741821289,2.6830074787139893,17.386207580566406,22.04357147216797
0,768190,19.829086303710938,-14.40804386138916,9.070406913757324,63.05686569213867
0,768192,-2.952404260635376,31.28707504272461,48.80484390258789,7.628326416015625
0,768194,-19.46892547607422,61.53749084472656,25.197935104370117,-77.09037017822266
0,768196,-18.19245719909668,-24.188655853271484,-80.45710754394531,-52.249366760253906
0,768198,-3.1579267978668213,-8.187051773071289,0.5744646787643433,4.850707530975342
0,768200,19.62364387512207,34.15412521362305,46.66831970214844,27.11573600769043
0,768202,-19.795726776123047,8.004364013671875,-11.58484935760498,-20.074628829956055
0,768204,-20.7528133392334,-18.62403106689453,-19.452896118164062,0.4068181812763214
0,768206,19.312965393066406,-43.360443115234375,-44.749210357666016,65.08226776123047
0,768208,42.830238342285156,-32.17202377319336,-10.000082015991211,120.12104034423828
0,768210,37.7755241394043,-6.439291954040527,41.86376190185547,69.91212463378906
0,768212,-31.881755828857422,16.91301155090332,24.546703338623047,-169.8056182861328
0,768214,-30.454872131347656,22.55047035217285,-26.669715881347656,-157.76492309570312
0,768216,6.060771465301514,30.557655334472656,-25.15214729309082,71.6747817993164
0,768218,-26.8272647857666,5.290342330932617,14.122694969177246,69.01329803466797
0,768220,-3.025958299636841,-37.401309967041016,4.797214508056641,3.3250350952148438
0,768222,31.96058464050293,10.618348121643066,10.081830978393555,-30.266399383544922
0,768224,-4.925093650817871,50.51057815551758,5.496590614318848,-35.589622497558594
0,768226,-12.832042694091797,-6.884371757507324,-13.21548843383789,28.1041202545166
0,768229,24.3314208984375,-42.1529426574707,22.582843780517578,75.9349136352539
0,768230,29.340421676635742,-40.46599197387695,3.8690690994262695,77.57624053955078
0,768371,-5.237100124359131,-6.279262542724609,-29.10621452331543,-75.86588287353516
0,768371,-17.63966941833496,28.509248733520508,16.83060646057129,-80.40604400634766
0,768371,3.0059309005737305,-13.00490665435791,19.742088317871094,61.71696853637695
0,768372,4.463883399963379,-23.224748611450195,-20.85582733154297,48.17462921142578
0,768372,-11.232646942138672,16.64077377319336,-0.03662282973527908,-0.4995152950286865
0,768372,-3.4494950771331787,20.222761154174805,14.126396179199219,-38.3099250793457
0,768372,-6.762168884277344,-0.4711105525493622,-1.9055747985839844,-49.83824157714844
0,768372,-23.596920013427734,-1.6045769453048706,-5.085737228393555,-37.25672912597656
0,768372,-3.2381770610809326,34.01960372924805,-15.57183837890625,-30.660213470458984
0,768373,-9.988907814025879,29.018085479736328,-4.184340953826904,-13.948801040649414
0,768373,-28.08905029296875,-23.18988609313965,-7.857470512390137,24.282032012939453
0,768373,11.826532363891602,-16.59100914001465,-19.455358505249023,42.998268127441406
0,768373,32.4102783203125,12.829957962036133,14.189876556396484,24.786165237426758
0,768373,18.192380905151367,7.146327972412109,29.595712661743164,8.786249160766602
0,768373,-3.610187530517578,-23.20596694946289,-1.888382911682129,-2.166759729385376
0,768374,-3.94633412361145,-4.898656368255615,-11.698290824890137,6.5543670654296875
0,768374,15.482321739196777,25.895061492919922,-3.5280959606170654,-0.491915225982666
0,768374,1.4618669748306274,-7.882575511932373,-4.439836025238037,-40.30867385864258
0,768374,-4.849148273468018,-7.228091239929199,-4.381616115570068,-29.76470184326172
0,768374,0.05812470614910126,7.950336933135986,2.1011247634887695,14.31321907043457
0,768375,-13.832182884216309,-5.340108871459961,7.503110885620117,28.029495239257812
0,768375,1.1613595485687256,-3.202359437942505,2.492349624633789,1.5425951480865479
0,768375,11.813163757324219,-12.06275463104248,-2.0997190475463867,-2.2179267406463623
0,768375,3.3591442108154297,2.138291597366333,-13.32983112335205,19.506019592285156
0,768375,0.511141836643219,0.9501054883003235,-10.038956642150879,12.29452896118164
0,768375,-2.814950466156006,-12.366312026977539,13.379112243652344,-3.8345704078674316
0,768376,2.9380388259887695,20.393978118896484,23.238012313842773,-21.524890899658203
0,768376,-19.295475006103516,4.558586597442627,6.426154613494873,-9.188523292541504
0,768376,-3.325545072555542,-18.593555450439453,-8.126520156860352,7.135776996612549
0,768376,19.694236755371094,4.641197681427002,5.969676494598389,3.1197304725646973
0,768376,-15.188028335571289,24.474422454833984,0.9542655348777771,-5.9096245765686035
0,768376,-2.242784023284912,11.087813377380371,-28.14967918395996,4.404477119445801
0,768377,4.585575580596924,-9.504094123840332,0.3821759819984436,25.96737289428711
0,768377,2.7693581581115723,-22.039920806884766,31.250417709350586,-0.6458803415298462
0,768377,9.742127418518066,-28.351579666137695,5.028744220733643,-13.964400291442871
0,768377,-5.266658782958984,1.254199743270874,-20.804431915283203,0.08037753403186798
0,768377,-4.8376030921936035,18.301589965820312,-10.116120338439941,12.996073722839355
0,768377,-5.574214935302734,5.817678451538086,5.269106864929199,3.0890393257141113
0,768378,-1.6275544166564941,-7.7749528884887695,11.23153018951416,-18.953367233276367
0,768378,-1.434207558631897,4.937410354614258,8.408746719360352,-9.362091064453125
0,768378,2.9330902099609375,18.25444221496582,-14.504779815673828,-6.871402740478516
0,768378,9.606717109680176,-1.3680589199066162,-20.804622650146484,7.964030742645264
0,768378,6.715214252471924,-10.964235305786133,-2.571913957595825,12.626124382019043
0,768378,-1.322231411933899,-14.484856605529785,27.47310447692871,16.69074821472168
0,768379,7.050057411193848,4.086955547332764,7.203323841094971,15.674487113952637
0,768379,7.194027423858643,21.52100944519043,-32.98206329345703,-17.758378982543945
0,768379,-15.67752456665039,-11.114919662475586,3.3439671993255615,-24.45519256591797
0,768379,-7.462873458862305,-15.401073455810547,15.966248512268066,-1.643053412437439
0,768379,-7.209428787231445,9.605216026306152,-5.50547456741333,15.708614349365234
0,768379,-10.592635154724121,6.096732139587402,16.726318359375,-8.829607009887695
0,768380,11.985491752624512,-0.00898095965385437,-1.2369147539138794,-26.999624252319336
0,768380,6.578743934631348,-19.079607009887695,-14.225473403930664,8.138765335083008
0,768380,-12.98082160949707,-11.789426803588867,4.200488567352295,35.589088439941406
0,768380,6.489823818206787,41.739776611328125,2.9768259525299072,-4.268854141235352
0,768380,22.977699279785156,29.258255004882812,20.574472427368164,-27.24645233154297
0,768380,7.085231781005859,-48.824668884277344,0.6249677538871765,-2.004333734512329
0,768381,-27.552352905273438,-27.75575065612793,-29.394399642944336,9.364524841308594
0,768381,-12.835506439208984,62.366756439208984,-2.598942756652832,-13.329513549804688
0,768381,30.069168090820312,16.4810733795166,21.589637756347656,-17.657041549682617
0,768381,-4.623501300811768,-43.60297393798828,0.4424600601196289,-2.333778142929077
0,768381,-19.568117141723633,-4.173890113830566,-17.31818199157715,1.9237030744552612
0,768381,-2.3631691932678223,2.98136305809021,5.474761009216309,22.667089462280273
0,768382,2.115341901779175,-4.373536586761475,-8.085777282714844,5.857606410980225
0,768382,11.051443099975586,6.801425457000732,-6.895280361175537,-11.920361518859863
0,768382,-12.932832717895508,-3.974440336227417,6.6899847984313965,1.1875560283660889
0,768382,-2.448960781097412,9.989130020141602,-17.211994171142578,-1.2597922086715698
0,768382,15.104119300842285,10.778733253479004,17.02777671813965,22.93328285217285
0,768382,-2.319359064102173,-9.522289276123047,23.261550903320312,18.307371139526367
0,768383,7.017796039581299,-5.985738754272461,-21.739910125732422,-43.80634307861328
0,768383,9.136141777038574,-11.908860206604004,-19.819808959960938,10.142622947692871
0,768384,-0.7226040363311768,11.818827629089355,-8.511693000793457,67.6028060913086
0,768384,0.5233591198921204,5.43694543838501,-4.155228137969971,7.184134483337402
0,768384,-6.49568510055542,-32.112449645996094,25.33025360107422,-27.25407600402832
0,768385,-20.506391525268555,15.433260917663574,33.621421813964844,8.240097045898438
0,768385,4.944026470184326,24.841156005859375,-3.2608675956726074,11.285452842712402
0,768385,24.22579574584961,-39.52508544921875,-13.291191101074219,-19.697383880615234
0,768385,0.8840985298156738,-9.693605422973633,4.475332736968994,6.7676849365234375
0,768386,5.199874401092529,-1.4411754608154297,-0.37947824597358704,30.08552360534668
0,768388,12.22156810760498,-28.450288772583008,-29.747682571411133,54.97043228149414
0,768390,32.563011169433594,18.117774963378906,26.430742263793945,34.45213317871094
0,768392,14.760507583618164,19.2093563079834,48.45171356201172,-78.09111785888672
0,768394,-67.87027740478516,19.812971115112305,-39.53973388671875,-117.48391723632812
0,768396,-36.99491500854492,30.748472213745117,-12.077162742614746,-17.152589797973633
0,768398,23.313465118408203,-1.0372518301010132,1.5693055391311646,12.809109687805176
0,768400,12.615655899047852,-14.008993148803711,-20.40156364440918,-21.815820693969727
0,768402,-14.25284481048584,2.701451301574707,6.02459716796875,-25.201642990112305
0,768404,-37.65380859375,26.03702163696289,10.961981773376465,10.41104507446289
0,768406,24.84572982788086,-13.512552261352539,-9.180294036865234,94.89225769042969
0,768408,43.59718704223633,-43.186004638671875,-24.696910858154297,71.45237731933594
0,768410,-8.30083179473877,-10.436203002929688,55.36886215209961,-2.8020694255828857
0,768412,-20.85411262512207,0.11081864684820175,38.72714614868164,-78.10528564453125
0,768414,-16.341108322143555,28.488168716430664,-67.0788345336914,-83.06906127929688
0,768416,5.1597208976745605,25.092905044555664,-17.05789566040039,23.45961570739746
0,768418,16.64118003845215,-16.07113265991211,31.7394962310791,52.436119079589844
0,768420,6.528622627258301,-18.188007354736328,-14.250151634216309,25.019638061523438
0,768422,-24.36635398864746,5.5585198402404785,-7.369124412536621,-30.411388397216797
0,768424,-20.205951690673828,23.32282066345215,2.777048349380493,-54.86119079589844
0,768426,4.889205455780029,-15.039717674255371,11.674887657165527,62.287841796875
0,768428,18.780607223510742,-35.76735305786133,49.16595458984375,99.22158813476562
0,768431,36.822872161865234,-13.598952293395996,-13.959395408630371,-37.7135009765625
0,768432,29.71425437927246,19.94855308532715,-27.700265884399414,-69.67379760742188
0,768583,-69.47627258300781,74.3920669555664,-36.765350341796875,-96.49667358398438
0,768583,-83.4795913696289,17.330297470092773,-58.45849609375,-52.355567932128906
0,768584,62.25065231323242,-63.12654113769531,45.64451599121094,137.535888671875
0,768584,43.681068420410156,-17.375019073486328,22.33766746520996,50.209022521972656
0,768584,-12.934290885925293,-1.0563021898269653,-10.669727325439453,-57.168418884277344
0,768584,5.063037872314453,8.90103816986084,13.014049530029297,-16.137487411499023
0,768584,-17.55256462097168,34.00320816040039,-19.5451717376709,-5.251006603240967
0,768584,0.9909656643867493,3.723400115966797,11.639707565307617,4.5379486083984375
0,768585,9.585525512695312,-14.311277389526367,23.112293243408203,11.855024337768555
0,768585,-4.145578861236572,2.633209705352783,-3.9407126903533936,42.14970397949219
0,768585,18.577054977416992,-11.6463623046875,8.675865173339844,43.625816345214844
0,768585,26.711658477783203,-29.275726318359375,22.359024047851562,37.92732620239258
0,768585,6.811814785003662,-10.308892250061035,13.57470703125,19.313800811767578
0,768586,11.105365753173828,-6.131499290466309,-14.808708190917969,-12.664548873901367
0,768586,2.0984745025634766,2.8113651275634766,-9.770044326782227,-15.356131553649902
0,768586,-22.663658142089844,1.7889822721481323,19.657224655151367,-38.91215896606445
0,768586,-8.689668655395508,15.37756061553955,-15.295247077941895,-58.93345260620117
0,768586,-7.42283821105957,31.21345329284668,-32.185150146484375,-25.139122009277344
0,768586,-32.704586029052734,-14.647567749023438,1.470863699913025,16.5838680267334
0,768587,-15.853437423706055,-33.97148513793945,7.569784164428711,23.756067276000977
0,768587,31.491626739501953,7.161152362823486,5.1715779304504395,17.286088943481445
0,768587,24.827972412109375,14.662915229797363,-6.427107334136963,10.3381986618042
0,768587,-5.60986852645874,-14.404821395874023,-2.6638224124908447,1.427066683769226
0,768587,-17.475093841552734,-2.3232405185699463,12.679266929626465,17.586374282836914
0,768587,-4.071986198425293,11.229015350341797,-0.9836093783378601,8.896954536437988
0,768588,22.399585723876953,3.6529862880706787,-7.8841962814331055,-35.805301666259766
0,768588,-3.2995522022247314,8.379769325256348,-13.993639945983887,-19.638097763061523
0,768588,-28.66649055480957,8.688584327697754,6.6939592361450195,4.533347129821777
0,768588,4.998228073120117,7.312620639801025,16.601951599121094,-9.898226737976074
0,768588,23.653383255004883,-9.665677070617676,-14.653945922851562,14.065592765808105
0,768588,-4.035545825958252,-17.045795440673828,18.51772117614746,27.209640502929688
0,768589,-1.9484912157058716,8.495607376098633,10.089762687683105,7.572899341583252
0,768589,10.025968551635742,-2.7545268535614014,-15.084141731262207,-6.829272747039795
0,768589,-0.46704310178756714,-28.735307693481445,18.067785263061523,-4.540640830993652
0,768589,-5.602964878082275,1.2668050527572632,-7.545100212097168,-14.975613594055176
0,768589,-17.756492614746094,13.215960502624512,6.146454334259033,-34.46699905395508
0,768589,-5.319876194000244,10.606697082519531,13.26563835144043,-13.162819862365723
0,768590,9.0875825881958,13.554143905639648,-29.854284286499023,5.3791632652282715
0,768590,-4.58883810043335,-16.658519744873047,-3.671023368835449,2.748469114303589
0,768590,-8.449015617370605,4.528026580810547,15.341602325439453,-9.227494239807129
0,768590,15.079625129699707,27.21400260925293,-2.021019697189331,-6.802585124969482
0,768590,20.770889282226562,4.503693580627441,-4.259598731994629,-1.251721739768982
0,768590,-17.404117584228516,-20.00456428527832,-1.3334437608718872,20.659313201904297
0,768591,-2.174177885055542,-16.777219772338867,-3.2960853576660156,18.874608993530273
0,768591,13.128121376037598,34.95973205566406,1.189530372619629,-18.595134735107422
0,768591,-18.410295486450195,24.296323776245117,8.090978622436523,-0.3616287112236023
0,768591,-2.3651020526885986,1.4827755689620972,-11.60915470123291,-4.983776092529297
0,768591,9.671753883361816,-8.694908142089844,-13.151300430297852,-23.96302604675293
0,768591,-1.3393402099609375,-24.131210327148438,5.920170307159424,16.240856170654297
0,768592,-6.787265300750732,14.554009437561035,6.320323944091797,26.387523651123047
0,768592,-2.2474372386932373,-3.811239004135132,5.785520553588867,-6.5193657875061035
0,768592,21.095626831054688,-28.34308624267578,5.966166973114014,10.46623706817627
0,768592,-0.5197047591209412,20.889009475708008,4.530755043029785,11.50599479675293
0,768592,-15.792266845703125,13.394128799438477,-10.833215713500977,-20.07187271118164
0,768593,-2.931788682937622,-23.297765731811523,-15.022994995117188,-9.969711303710938
0,768593,-7.1049723625183105,7.7804131507873535,-1.4376271963119507,-3.735548734664917
0,768593,-6.7507004737854,-0.044570330530405045,8.890844345092773,10.36390209197998
0,768593,-10.011120796203613,-10.884015083312988,16.492305755615234,2.4621589183807373
0,768593,2.3184821605682373,11.936498641967773,0.6780433058738708,-26.295133590698242
0,768593,19.68877410888672,-5.2328691482543945,-15.196125030517578,1.2451047897338867
0,768594,16.119422912597656,-2.000701904296875,-19.30975341796875,13.393086433410645
0,768594,-6.85388708114624,-6.8706865310668945,-1.7023749351501465,16.621368408203125
0,768594,-13.098943710327148,-11.033197402954102,26.102291107177734,26.88907814025879
0,768594,8.51606559753418,15.009063720703125,3.8771567344665527,-5.211296081542969
0,768594,2.939767599105835,2.122781276702881,-5.75070858001709,-5.716889381408691
0,768594,-4.173773765563965,12.553874969482422,-5.2707953453063965,-6.319344997406006
0,768595,8.378544807434082,18.471906661987305,-16.761425018310547,-17.58425521850586
0,768595,6.499927997589111,-30.728206634521484,-7.914769649505615,4.606446266174316
0,768595,-8.218466758728027,-13.2810697555542,6.895850658416748,0.7282658815383911
0,768595,-9.175559043884277,6.818175792694092,8.030882835388184,-11.60461711883545
0,768595,2.252689838409424,-13.234619140625,-3.4825823307037354,16.147796630859375
0,768595,-0.056349050253629684,19.60036849975586,10.977422714233398,13.212410926818848
0,768596,11.646174430847168,12.699049949645996,1.1212949752807617,-19.843521118164062
0,768596,4.453380107879639,-24.525524139404297,-3.511770009994507,-9.899086952209473
0,768596,-14.562540054321289,5.072506427764893,8.194839477539062,-8.154460906982422
0,768597,-8.412138938903809,3.3949878215789795,-17.307554244995117,-9.017213821411133
0,768597,3.240731954574585,-5.29534387588501,-7.469196319580078,16.68961524963379
0,768597,5.55980920791626,-4.786150932312012,16.298927307128906,16.81631851196289
0,768598,-3.203089475631714,-11.119948387145996,5.098707675933838,-3.446897506713867
0,768598,7.3317742347717285,18.343414306640625,-12.63364028930664,14.220694541931152
0,768598,-6.358097076416016,28.591543197631836,14.076387405395508,12.255902290344238
0,768598,-3.793177843093872,-9.887354850769043,9.722407341003418,-5.7505364418029785
0,768599,7.490163326263428,-36.96659469604492,-34.33158493041992,2.8582265377044678
0,768601,-25.466094970703125,-3.610499382019043,0.3640652000904083,-51.926246643066406
0,768602,-11.104996681213379,30.19889259338379,24.9820499420166,-16.513620376586914
0,768605,35.40693283081055,31.93328857421875,35.67881774902344,119.66307830810547
0,768606,37.96080780029297,-23.50322914123535,-20.7633056640625,46.89663314819336
0,768609,9.712055206298828,-100.68049621582031,-76.21480560302734,-15.788065910339355
0,768610,-21.9593505859375,-42.60770797729492,12.7384672164917,0.5998966693878174
0,768613,-41.038272857666016,90.20964050292969,60.20475769042969,-124.37322235107422
0,768614,5.174257278442383,81.54767608642578,36.95590591430664,-56.6784553527832
0,768617,28.143327713012695,-11.653680801391602,-17.17259979248047,78.58866882324219
0,768618,-3.2727246284484863,-22.53594398498535,-46.23686981201172,1.0009762048721313
0,768621,-4.852378845214844,4.59137487411499,3.8229241371154785,-52.99677658081055
0,768622,-34.384300231933594,24.88813018798828,17.87078857421875,-51.448848724365234
0,768625,-5.600856304168701,11.424948692321777,-6.84458589553833,58.23674392700195
0,768626,51.38606643676758,-59.7491455078125,5.555121421813965,122.37295532226562
0,768629,26.91203498840332,-58.365482330322266,11.705766677856445,41.81937789916992
0,768630,15.017982482910156,24.35317611694336,1.3342033624649048,-8.577274322509766
0,768633,-53.42087173461914,60.88554763793945,-33.72150421142578,-126.24343872070312
0,768634,-57.2757453918457,19.53304100036621,-14.865937232971191,-85.39141082763672
0,768637,44.94374084472656,-26.75676155090332,26.465007781982422,83.3207778930664
0,768638,10.157575607299805,-14.281740188598633,3.4925708770751953,48.684688568115234
0,768640,-14.83378791809082,9.478001594543457,13.530168533325195,-7.581523895263672
0,768642,-9.696638107299805,14.54799747467041,2.3082499504089355,-73.19166564941406
0,768644,-10.131814956665039,19.61003303527832,-33.858001708984375,-52.90135955810547
0,768646,18.223974227905273,-31.60540199279785,-35.07099533081055,118.76825714111328
0,768648,-2.5669431686401367,-60.92741394042969,26.651548385620117,64.98580169677734
0,768810,35.001930236816406,-2.873729705810547,57.67054748535156,-31.260299682617188
0,768810,34.10234451293945,21.233444213867188,-4.816018104553223,33.68168258666992
0,768810,-16.5318660736084,5.380916595458984,-27.01053810119629,6.694269180297852
0,768810,-7.357235908508301,-14.573809623718262,5.5592451095581055,-10.716306686401367
0,768810,1.844854474067688,-12.521245002746582,11.305335998535156,15.909581184387207
0,768810,10.277307510375977,6.946058750152588,0.7020918726921082,-16.94244384765625
0,768811,-12.918045043945312,14.599862098693848,1.4459364414215088,-39.180084228515625
0,768811,-24.664518356323242,23.678972244262695,-4.00237512588501,-49.33332061767578
0,768811,-12.796639442443848,10.011284828186035,-2.1352643966674805,-36.209415435791016
0,768811,-4.498281002044678,40.09077835083008,-0.688506543636322,-30.42143440246582
0,768811,4.370063304901123,33.22199630737305,-13.352275848388672,-21.048830032348633
0,768811,-16.034963607788086,-35.29255294799805,-22.332292556762695,18.836944580078125
0,768812,-8.49377155303955,-18.919816970825195,8.648598670959473,13.565333366394043
0,768812,9.969527244567871,-17.85529136657715,17.163768768310547,9.000543594360352
0,768812,3.617553234100342,-17.01960563659668,-13.821212768554688,43.5159912109375
0,768812,-1.1804888248443604,4.971253871917725,0.5011810064315796,29.05940055847168
0,768812,6.939398288726807,-7.979046821594238,10.773916244506836,-8.080784797668457
0,768813,5.033754825592041,16.39299774169922,9.99796199798584,-37.22823715209961
0,768813,-0.23409874737262726,36.64955139160156,4.9996490478515625,-31.551054000854492
0,768813,5.347477912902832,7.09934663772583,-14.44700813293457,11.77241039276123
0,768813,-27.596939086914062,-22.080209732055664,-0.33633679151535034,14.81326961517334
0,768813,-22.069738388061523,-16.171667098999023,1.6875121593475342,13.115264892578125
0,768813,31.44603157043457,9.700352668762207,-9.13243579864502,13.457864761352539
0,768814,37.56964874267578,-1.4645777940750122,4.636263370513916,18.469331741333008
0,768814,-2.426337957382202,-14.26081657409668,-5.433008193969727,3.273284673690796
0,768814,-10.1836576461792,3.18782114982605,-0.9835350513458252,-3.136701822280884
0,768814,11.817107200622559,3.0226542949676514,8.574136734008789,13.381278038024902
0,768814,-4.3785400390625,0.4437808692455292,-4.4040350914001465,-28.429481506347656
0,768814,-12.592670440673828,-2.050685167312622,13.038047790527344,-15.57944393157959
0,768815,-3.170781135559082,7.0742034912109375,14.656759262084961,16.65779685974121
0,768815,7.616442680358887,37.94833755493164,-1.7332476377487183,-6.253521919250488
0,768815,-3.074183702468872,9.91420841217041,-23.86117935180664,-10.465867042541504
0,768815,-32.6104621887207,-53.13600158691406,-20.49560546875,12.250998497009277
0,768815,6.915071964263916,-22.097166061401367,-0.7824861407279968,21.23748779296875
0,768815,27.993375778198242,29.09222984313965,0.3255460858345032,-11.83076286315918
0,768816,-7.407013416290283,-2.220304489135742,21.406291961669922,10.077728271484375
0,768816,13.462723731994629,-24.93968391418457,-3.514913558959961,14.630569458007812
0,768816,3.43955659866333,-10.422469139099121,-12.859334945678711,-16.71087074279785
0,768816,-10.509400367736816,25.033639907836914,13.998693466186523,-3.4814293384552
0,768816,15.796010971069336,26.062646865844727,-7.9112677574157715,-7.575729846954346
0,768816,-9.962021827697754,-27.135700225830078,-6.38210391998291,8.942229270935059
0,768817,-10.413498878479004,-19.804655075073242,-8.414749145507812,-7.712582588195801
0,768817,14.868474960327148,28.08479881286621,-4.882197380065918,-34.5478630065918
0,768817,-9.396450996398926,6.858448505401611,27.824235916137695,32.83686447143555
0,768817,-15.744576454162598,-26.451805114746094,4.505120754241943,38.071983337402344
0,768817,15.811915397644043,11.800385475158691,-25.739410400390625,-15.376526832580566
0,768817,21.2817325592041,3.770145893096924,-12.90052318572998,-18.925052642822266
0,768818,-6.1321001052856445,-25.682735443115234,-2.6198439598083496,-0.8881543874740601
0,768818,-31.708341598510742,15.882487297058105,9.179120063781738,5.744896411895752
0,768818,-7.772996425628662,12.954221725463867,32.59536361694336,-14.928304672241211
0,768818,31.350357055664062,-0.0016896843444555998,5.265475749969482,-20.87937355041504
0,768818,-1.9418350458145142,0.4351705014705658,-21.58881378173828,-17.262041091918945
0,768818,-22.80459213256836,-14.75476360321045,5.955920696258545,8.52321720123291
0,768819,-2.1871941089630127,-9.858907699584961,16.567401885986328,33.46207046508789
0,768819,6.0611114501953125,19.859073638916016,-1.4430766105651855,1.3997236490249634
0,768819,14.537811279296875,17.228822708129883,-10.976340293884277,-21.451513290405273
0,768819,-13.309816360473633,-27.324918746948242,14.385433197021484,9.452564239501953
0,768819,-10.953718185424805,3.47426176071167,17.682188034057617,28.307636260986328
0,768820,-0.050618305802345276,26.779077529907227,-4.7803826332092285,5.432122230529785
0,768820,-3.5366897583007812,-6.266193389892578,-4.876121520996094,-23.061141967773438
0,768820,23.447019577026367,-26.22025489807129,-4.153695106506348,-0.7811097502708435
0,768820,3.766014337539673,-15.015819549560547,16.86644744873047,37.639129638671875
0,768820,-11.392045974731445,46.748046875,12.495667457580566,-16.080385208129883
0,768820,8.768716812133789,14.199073791503906,-32.576236724853516,-34.39372253417969
0,768820,-6.368564128875732,-43.02935028076172,-7.00045108795166,20.43525505065918
0,768821,-14.591268539428711,11.828580856323242,22.704792022705078,9.148038864135742
0,768821,18.996522903442383,28.86545753479004,-4.313523292541504,-32.23961639404297
0,768821,17.547746658325195,-17.686033248901367,-20.90904426574707,-20.27540397644043
0,768821,-27.197750091552734,-27.90580940246582,-19.26192855834961,22.39773178100586
0,768821,-17.747793197631836,32.453529357910156,14.497315406799316,5.697403430938721
0,768821,19.659658432006836,11.458952903747559,14.797000885009766,-20.8468074798584
0,768822,7.384017467498779,-43.61711883544922,-27.27330207824707,10.377612113952637
0,768822,0.5617069005966187,18.653623580932617,11.096186637878418,29.899492263793945
0,768822,6.2875566482543945,30.5026912689209,24.078792572021484,-0.5472318530082703
0,768822,-5.258194923400879,-32.57829666137695,-11.445477485656738,-3.222219228744507
0,768822,-8.944482803344727,-17.153865814208984,11.439537048339844,15.317935943603516
0,768823,17.7026309967041,27.610960006713867,-12.841856002807617,-18.268396377563477
0,768823,22.227909088134766,5.267353534698486,-7.916505813598633,18.354005813598633
0,768823,-13.852091789245605,-17.58237648010254,26.86446762084961,38.68309783935547
0,768823,-3.510664939880371,-8.598014831542969,-18.196823120117188,-23.425411224365234
0,768824,8.316082954406738,2.936629295349121,-24.469263076782227,33.061527252197266
0,768824,2.5369818210601807,5.4614033699035645,3.899070978164673,60.4795036315918
0,768825,11.717301368713379,-6.9840006828308105,18.961824417114258,-28.55141830444336
0,768825,2.855935573577881,-4.700557231903076,-2.6811916828155518,-32.86994171142578
0,768825,-18.220325469970703,8.870475769042969,-23.517044067382812,-4.689822673797607
0,768825,-7.791918754577637,-1.8511196374893188,9.139754295349121,-30.39118003845215
0,768825,-1.0192656517028809,-20.934972763061523,5.319154739379883,1.9462530612945557
0,768825,-4.567360877990723,-3.062145948410034,-8.711464881896973,18.629993438720703
0,768827,12.374549865722656,-3.6459786891937256,-1.54562509059906,-28.994565963745117
0,768828,6.028449058532715,-37.75139617919922,17.763633728027344,6.359228610992432
0,768831,1.3247431516647339,-1.5343443155288696,20.244970321655273,12.648789405822754
0,768832,-39.15087127685547,36.27114486694336,-14.93139934539795,-88.01676177978516
0,768835,-31.973264694213867,38.954010009765625,-0.0005594194517470896,-90.217529296875
0,768836,38.08851623535156,25.09305763244629,-7.186547756195068,19.461030960083008
0,768839,-9.623826026916504,-1.4435160160064697,-33.45522689819336,70.63745880126953
0,768840,-26.383243560791016,-1.129054307937622,10.653419494628906,-1.943616509437561
0,768843,15.40481185913086,3.1400153636932373,34.51077651977539,-49.345523834228516
0,768844,-2.7774553298950195,20.914592742919922,-9.895451545715332,49.0136833190918
0,768847,23.407407760620117,-44.405582427978516,-16.047760009765625,107.02681732177734
0,768848,48.601375579833984,-68.8730239868164,24.98050308227539,48.71897888183594
0,768850,15.063232421875,19.719348907470703,18.088577270507812,-4.338064670562744
0,768852,-43.58845138549805,42.25034713745117,-14.45836353302002,-97.27777862548828
0,768854,-32.42841720581055,26.339160919189453,-21.9431209564209,-66.88562774658203
0,768856,25.802692413330078,-3.6849634647369385,0.7803362011909485,61.898868560791016
0,768858,-3.974297523498535,-19.37213706970215,6.767036437988281,2.1966946125030518
0,768860,-8.283496856689453,-14.717329978942871,9.536541938781738,-55.63874435424805
0,768862,-6.372994422912598,29.42583656311035,-9.511650085449219,-46.56521987915039
0,768864,-17.142868041992188,37.14146423339844,-10.812176704406738,61.33964920043945
0,768866,11.344995498657227,-29.424074172973633,12.379817008972168,124.25080871582031
0,768868,26.590639114379883,-51.38254165649414,-16.4224853515625,3.7450857162475586
0,768870,20.05982208251953,-34.79126739501953,6.395371437072754,-23.762746810913086
0,768872,-17.173978805541992,41.440547943115234,36.628910064697266,-64.48925018310547
0,768874,-22.837087631225586,60.193389892578125,7.057566165924072,-55.18971252441406
0,768877,6.366824626922607,-29.32561683654785,-51.20410919189453,44.8765983581543
0,769049,47.521644592285156,-95.1727294921875,-35.8350715637207,122.42439270019531
0,769049,21.45475196838379,-47.478607177734375,42.83936309814453,114.01394653320312
0,769049,-26.445878982543945,77.48990631103516,31.892749786376953,-108.60100555419922
0,769049,-0.31267666816711426,52.23957824707031,-14.759537696838379,-142.87449645996094
0,769049,-27.715991973876953,-16.86502456665039,-29.661060333251953,1.050531029701233
0,769049,-32.143863677978516,30.28513526916504,14.556714057922363,-1.544793725013733
0,769050,18.05904769897461,18.934612274169922,18.971263885498047,-16.29652976989746
0,769050,6.463303565979004,-29.528650283813477,-6.703634738922119,25.080686569213867
0,769050,-9.803173065185547,3.846708297729492,7.272582054138184,39.3287353515625
0,769050,10.994869232177734,18.63787269592285,-5.709424018859863,8.69256591796875
0,769050,14.078189849853516,-41.35898208618164,12.211735725402832,-15.953328132629395
0,769050,-8.840649604797363,-14.695960998535156,21.262638092041016,-23.731830596923828
0,769051,-20.071508407592773,56.85404968261719,-5.134932994842529,-15.752206802368164
0,769051,-13.205307006835938,19.241254806518555,-6.1933465003967285,-16.56216049194336
0,769051,9.108467102050781,-24.955381393432617,-22.887331008911133,-20.73710823059082
0,769051,11.414539337158203,-5.931649208068848,-21.65052604675293,-3.6576437950134277
0,769051,-10.345868110656738,29.252592086791992,12.072644233703613,16.804248809814453
0,769051,-3.1394236087799072,-2.7117626667022705,15.988593101501465,21.012374877929688
0,769052,13.381916999816895,-18.370159149169922,-9.249468803405762,7.711471080780029
0,769052,2.9533824920654297,-2.0897510051727295,-8.398660659790039,14.2984037399292
0,769052,2.7409439086914062,-21.176332473754883,9.1702880859375,16.283470153808594
0,769052,0.96509850025177,3.0839669704437256,1.9761842489242554,-6.218883991241455
0,769052,-1.801383376121521,0.6357085704803467,-2.674217462539673,-11.33303451538086
0,769052,-11.69328498840332,-9.717930793762207,-9.587867736816406,-9.433835983276367
0,769053,-13.175362586975098,21.514467239379883,7.1936445236206055,-6.319041728973389
0,769053,20.89911651611328,21.70134735107422,16.663293838500977,-7.306599140167236
0,769053,3.238647699356079,-2.9132277965545654,-16.259164810180664,0.6857062578201294
0,769053,-22.225282669067383,-32.5958366394043,-16.209348678588867,22.40082550048828
0,769053,14.00955867767334,-18.237028121948242,-4.00515604019165,18.07752227783203
0,769054,19.367990493774414,9.778014183044434,-10.357306480407715,-10.60673999786377
0,769054,-8.419076919555664,-3.597752571105957,2.802309274673462,-9.612336158752441
0,769054,-8.981335639953613,1.9624085426330566,31.125930786132812,15.207376480102539
0,769054,-12.580374717712402,12.747761726379395,3.2336387634277344,-3.6196842193603516
0,769054,3.936539649963379,0.7086176872253418,-25.009645462036133,-22.06305694580078
0,769054,20.298824310302734,8.991323471069336,24.583560943603516,-10.2850923538208
0,769055,-6.068123817443848,-16.538198471069336,5.283958911895752,7.42907190322876
0,769055,-3.766299247741699,-12.605710983276367,-19.100181579589844,25.45160484313965
0,769055,2.9476327896118164,38.61727523803711,22.110578536987305,-3.4400298595428467
0,769055,2.447145938873291,-7.381822109222412,-15.259560585021973,-6.085145950317383
0,769055,3.5105013847351074,-30.200956344604492,-9.162860870361328,15.348652839660645
0,769055,-16.294397354125977,6.3319573402404785,29.706157684326172,-2.532865524291992
0,769056,17.001739501953125,-8.721052169799805,-18.83421516418457,-8.311144828796387
0,769056,8.61872673034668,7.420287609100342,-16.885780334472656,-4.2964653968811035
0,769056,-26.09440040588379,52.17245864868164,4.52786922454834,11.090641975402832
0,769056,20.24651336669922,-7.868309497833252,-17.358421325683594,-1.3147029876708984
0,769056,-5.129643440246582,-44.609859466552734,6.892029285430908,-13.919987678527832
0,769056,-27.207704544067383,11.462638854980469,22.575273513793945,15.907766342163086
0,769057,31.384145736694336,14.688739776611328,-9.47332763671875,11.687850952148438
0,769057,2.5488383769989014,-17.607141494750977,-17.189552307128906,-7.443887710571289
0,769057,-25.321882247924805,-19.276533126831055,22.435054779052734,-3.961191415786743
0,769057,22.936336517333984,21.968505859375,18.16655731201172,-7.067661762237549
0,769057,11.97917652130127,15.316100120544434,-25.40626335144043,8.237722396850586
0,769057,-14.862287521362305,-10.78643798828125,16.85509490966797,3.1686878204345703
0,769058,6.693373203277588,19.84221839904785,20.45915985107422,-16.820480346679688
0,769058,5.555980205535889,-2.73699688911438,-24.664152145385742,0.40316998958587646
0,769058,-12.68691349029541,-29.790231704711914,-10.051855087280273,1.5236153602600098
0,769058,-16.966209411621094,3.893080711364746,5.362218856811523,6.629269123077393
0,769058,-1.8879261016845703,8.60869312286377,7.588151454925537,10.059805870056152
0,769058,18.24451446533203,-17.222780227661133,-14.57113265991211,0.48761463165283203
0,769059,-3.4208104610443115,3.848416805267334,4.574235439300537,12.31550121307373
0,769059,-4.749034404754639,15.994627952575684,13.42031478881836,-1.6535745859146118
0,769059,6.407473564147949,-21.7186279296875,-27.01917839050293,-28.587263107299805
0,769059,-5.570549011230469,-3.404177665710449,9.815423011779785,-3.50642466545105
0,769059,11.214923858642578,20.094295501708984,30.720821380615234,-1.1063122749328613
0,769059,8.46699047088623,2.704244375228882,-22.75458335876465,-14.580378532409668
0,769060,-6.321013927459717,-4.5193705558776855,-9.564732551574707,-0.02345983311533928
0,769060,-25.275386810302734,-22.326187133789062,27.76426124572754,-7.698989391326904
0,769060,-23.425724029541016,20.419912338256836,-4.340248107910156,6.084355354309082
0,769060,35.95746612548828,46.61568832397461,-8.881680488586426,1.0594525337219238
0,769060,20.944189071655273,-23.227989196777344,12.116765975952148,-18.72226333618164
0,769060,-31.422298431396484,-24.72534942626953,-4.7206549644470215,9.037081718444824
0,769061,2.445056676864624,22.02564239501953,-22.527477264404297,12.32496452331543
0,769061,16.07137680053711,-6.945452690124512,-12.282629013061523,0.6474829912185669
0,769061,-28.400392532348633,-21.984100341796875,6.495615005493164,0.8796164393424988
0,769061,-10.648354530334473,12.5531005859375,15.14160442352295,6.683341026306152
0,769061,27.869407653808594,2.939466714859009,7.507246017456055,21.89140510559082
0,769061,6.670104503631592,-0.9749299883842468,-3.084372043609619,11.182106971740723
0,769062,6.81963586807251,10.40368938446045,11.926636695861816,-24.923809051513672
0,769062,10.636834144592285,5.757750034332275,1.516695499420166,-9.201423645019531
0,769062,-15.977883338928223,-3.5524747371673584,-20.317768096923828,30.632272720336914
0,769062,-10.307151794433594,-18.393747329711914,3.305760622024536,8.895586967468262
0,769062,11.113418579101562,0.6388077735900879,19.66240882873535,-3.5217883586883545
0,769062,16.162538528442383,3.1019527912139893,-6.030518054962158,9.052840232849121
0,769063,-3.038996458053589,-6.8729400634765625,-20.320035934448242,8.215296745300293
0,769063,-17.540241241455078,-0.7116328477859497,-4.358856201171875,-9.851534843444824
0,769063,2.7019615173339844,-4.8167572021484375,5.483541011810303,-9.949122428894043
0,769064,15.450974464416504,-9.895943641662598,-5.307281494140625,37.557071685791016
0,769064,-3.5546557903289795,-0.2108297049999237,-12.946476936340332,14.71738338470459
0,769065,-3.664954662322998,18.332271575927734,3.7402164936065674,-33.11819076538086
0,769065,3.884981632232666,-4.839921951293945,6.942703723907471,-12.027360916137695
0,769065,-16.23493194580078,-10.76425838470459,3.3216872215270996,-9.207961082458496
0,769065,-0.3424542546272278,-7.584878921508789,7.169899940490723,8.454941749572754
0,769065,27.179893493652344,-13.290677070617676,9.37387466430664,20.33584213256836
0,769065,2.161271095275879,15.376630783081055,-1.5896016359329224,-12.098084449768066
0,769067,-13.360739707946777,7.472907543182373,-8.07258415222168,16.8986759185791
0,769068,21.42218017578125,-32.253543853759766,-6.978572845458984,29.11313247680664
0,769071,6.556884288787842,-5.934482097625732,28.70410919189453,-56.09719467163086
0,769072,-35.418766021728516,42.014198303222656,42.69050598144531,-86.96184539794922
0,769075,-22.082721710205078,44.082340240478516,-48.15699005126953,-21.027008056640625
0,769076,10.380038261413574,14.892111778259277,-39.530818939208984,12.309333801269531
0,769078,5.2346038818359375,-17.541810989379883,38.08488082885742,0.30040115118026733
0,769080,-5.505116939544678,-2.4826061725616455,28.004793167114258,7.872892379760742
0,769082,11.514517784118652,14.374786376953125,-33.515743255615234,-0.3861193060874939
0,769084,-21.167409896850586,-3.4039881229400635,-59.74262619018555,23.574045181274414
0,769086,-15.754117965698242,-31.196199417114258,9.917923927307129,66.62247467041016
0,769088,60.355072021484375,-46.61943817138672,54.63142395019531,71.83263397216797
0,769090,33.303321838378906,-13.7328519821167,17.53424072265625,47.82839584350586
0,769092,-51.25439453125,30.70210838317871,-11.120014190673828,-119.38467407226562
0,769094,-30.735376358032227,36.537845611572266,-0.3574768900871277,-105.03781127929688
0,769096,-0.2912716865539551,0.7718232870101929,-14.20406723022461,80.44193267822266
0,769098,11.767426490783691,-20.985702514648438,-22.509458541870117,42.86439514160156
0,769100,-0.3890886902809143,0.29084891080856323,7.8368964195251465,-78.0896224975586
0,769102,-22.62957763671875,22.107091903686523,25.37248420715332,-65.90643310546875
0,769104,26.92224884033203,6.971032619476318,-0.7526286840438843,75.168701171875
0,769106,11.343558311462402,-30.614858627319336,-18.892318725585938,74.36555480957031
0,769109,13.020576477050781,-17.093692779541016,22.475833892822266,29.084228515625
0,769110,43.736061096191406,1.091645359992981,11.732285499572754,-8.954596519470215
0,769113,-48.182281494140625,30.52217674255371,-37.64646530151367,-109.41561889648438
0,769114,-47.666561126708984,21.373804092407227,-6.988045692443848,-12.03331184387207
1,769381,14.180327415466309,-19.038591384887695,4.281573295593262,28.993364334106445
1,769382,4.036482334136963,14.373711585998535,-16.544870376586914,-19.895923614501953
1,769385,26.307804107666016,-39.149906158447266,21.916507720947266,94.15009307861328
1,769386,24.870521545410156,-41.071571350097656,24.710010528564453,67.99004364013672
1,769389,-5.282085418701172,9.862507820129395,-21.750734329223633,-27.575153350830078
1,769390,-19.65941047668457,-4.750355243682861,-5.638212203979492,-55.871036529541016
1,769393,-39.394039154052734,69.85791778564453,25.904268264770508,-143.95310974121094
1,769394,-12.724979400634766,49.09050750732422,-5.749688625335693,-29.933734893798828
1,769397,33.63054656982422,-29.777284622192383,-34.014949798583984,114.86009216308594
1,769408,34.91835021972656,-60.961280822753906,-0.38860654830932617,112.2664566040039
1,769408,6.6126532554626465,-63.31083297729492,20.299362182617188,103.6992416381836
1,769408,-5.702145576477051,26.209354400634766,11.453678131103516,-41.73896026611328
1,769408,13.002519607543945,36.45769119262695,8.948844909667969,-89.30901336669922
1,769408,-8.97818374633789,0.7715535759925842,-11.295469284057617,-30.995603561401367
1,769408,-23.378936767578125,20.7384090423584,-6.729337215423584,-33.95368957519531
1,769410,-2.4703574180603027,24.857505798339844,17.85025978088379,-13.596660614013672
1,769413,-24.175477981567383,31.403423309326172,2.162431478500366,-61.088714599609375
1,769414,-38.50357437133789,16.563806533813477,-22.517507553100586,-52.90644073486328
1,769417,24.477310180664062,-11.4204683303833,-3.464080333709717,34.0948600769043
1,769418,16.61368179321289,-21.47603416442871,8.926497459411621,19.311864852905273
1,769421,-26.915727615356445,-6.802550792694092,4.660369873046875,-52.00619125366211
1,769422,14.566752433776855,21.04107093811035,1.5603861808776855,-25.266494750976562
1,769425,19.829774856567383,-25.62784194946289,-20.752029418945312,136.30477905273438
1,769426,15.532483100891113,-43.419189453125,-7.136366844177246,125.02245330810547
1,769429,35.076332092285156,-24.076988220214844,30.639820098876953,-8.309810638427734
1,769430,-5.413481712341309,-19.308244705200195,12.714948654174805,-50.10490417480469
1,769433,-50.13547897338867,48.90929412841797,-8.550403594970703,-80.15760803222656
1,769458,-14.458537101745605,42.901451110839844,0.6367990970611572,-17.053298950195312
1,769458,22.560640335083008,-46.16559982299805,-7.65669059753418,71.78961181640625
1,769459,21.681222915649414,-13.571831703186035,0.5705844759941101,34.235626220703125
1,769459,-6.764364719390869,23.292570114135742,0.1511031836271286,-33.0511589050293
1,769459,-26.5689754486084,-5.902465343475342,13.457655906677246,-26.747865676879883
1,769459,7.063705921173096,29.928213119506836,22.10310173034668,-28.53714370727539
1,769459,8.564751625061035,28.31241798400879,-28.41225242614746,-34.03777313232422
1,769459,-14.74165153503418,-15.875576972961426,-30.694528579711914,-8.682113647460938
1,769460,-0.2597218155860901,7.8463873863220215,8.911785125732422,9.71650505065918
1,769460,9.742096900939941,6.637056827545166,0.34010136127471924,28.422239303588867
1,769460,-1.3210923671722412,-38.54281997680664,-17.04109001159668,39.994117736816406
1,769460,13.356452941894531,-21.33003044128418,0.3613094091415405,22.20641326904297
1,769460,27.405948638916016,8.879748344421387,0.39470335841178894,-12.942028045654297
1,769462,-10.027473449707031,-6.058532238006592,-11.975225448608398,1.2163161039352417
1,769462,-24.309127807617188,-0.8033636808395386,18.840864181518555,11.793795585632324
1,769465,8.074338912963867,11.762279510498047,19.6981258392334,24.911405563354492
1,769466,14.040763854980469,-25.19472885131836,-40.038551330566406,47.089569091796875
1,769469,8.290064811706543,-56.08350372314453,-4.160228252410889,19.77483367919922
1,769470,4.2638020515441895,-7.0560221672058105,45.31950378417969,-31.691621780395508
1,769473,-46.35345458984375,67.27867889404297,6.797279357910156,-88.87020874023438
1,769474,-24.847558975219727,40.66090393066406,-16.54120445251465,-33.00521469116211
1,769477,40.178558349609375,-8.289715766906738,6.286964416503906,31.253013610839844
1,769478,9.46750545501709,-1.6180754899978638,29.542322158813477,5.318944454193115
1,769481,-21.532516479492188,10.651689529418945,-15.913939476013184,-31.522844314575195
1,769482,-7.306553363800049,14.13634967803955,-31.406375885009766,-60.22172546386719
1,769485,23.37114715576172,-11.485190391540527,7.985304832458496,67.8382568359375
1,769522,-12.6173734664917,26.83335304260254,16.927392959594727,15.65280532836914
1,769522,-49.38862609863281,50.16093444824219,-6.533882141113281,-149.20054626464844
1,769523,24.599878311157227,-37.9854621887207,-18.187705993652344,50.59856414794922
1,769523,24.107481002807617,-58.914772033691406,-0.9311565160751343,112.52139282226562
1,769523,-16.353038787841797,2.271132707595825,-1.3217147588729858,10.40870189666748
1,769523,32.27241134643555,3.398164749145508,-14.850255966186523,27.732654571533203
1,769523,32.149269104003906,-41.538143157958984,10.513204574584961,21.767505645751953
1,769523,-24.80720329284668,-24.49724578857422,35.07237243652344,3.650117874145508
1,769524,-26.62166404724121,30.35137939453125,0.7545313835144043,-27.887399673461914
1,769524,9.531959533691406,27.16334342956543,-11.151917457580566,-29.592090606689453
1,769524,4.341312885284424,-15.66968822479248,4.580933570861816,-7.9984450340271
1,769524,-0.8020896315574646,7.7821149826049805,2.495859146118164,3.0347912311553955
1,769524,18.553329467773438,11.27620792388916,-1.807541012763977,1.9421870708465576
1,769524,5.108708381652832,-24.62224769592285,-3.842712163925171,4.9332170486450195
1,769525,-23.479684829711914,-5.886141300201416,8.496307373046875,33.92353820800781
1,769525,5.474565505981445,10.348230361938477,6.594732284545898,20.530290603637695
1,769525,30.671436309814453,3.7366220951080322,-21.211977005004883,-21.135940551757812
1,769525,-19.555509567260742,-9.321741104125977,-9.17863655090332,-13.510904312133789
1,769525,-24.090280532836914,-5.517582416534424,2.2548673152923584,-4.728381633758545
1,769527,12.799602508544922,0.04346989840269089,6.719001770019531,1.4510266780853271
1,769527,22.523595809936523,4.40359354019165,10.28540325164795,15.127214431762695
1,769528,1.4373031854629517,-10.71182918548584,-4.220337390899658,-3.1204111576080322
1,769531,-20.88898277282715,-9.352513313293457,28.601451873779297,-47.90528106689453
1,769532,-12.316269874572754,40.32628631591797,2.3531410694122314,-64.87834930419922
1,769535,-25.793970108032227,44.826622009277344,-33.6864013671875,-9.94085693359375
1,769536,14.29672908782959,6.376581192016602,18.171531677246094,43.70144271850586
1,769539,28.73275375366211,-33.904300689697266,-4.543015480041504,7.472838878631592
1,769540,-45.46013259887695,-20.387434005737305,-34.021018981933594,-64.17989349365234
1,769543,-28.92350196838379,37.18391036987305,-25.601171493530273,-15.415386199951172
1,769544,23.95068359375,12.550405502319336,-14.795182228088379,79.95111846923828
1,769547,43.828304290771484,-61.37980651855469,55.78785705566406,109.01224517822266
1,769548,37.66407775878906,-33.324989318847656,41.675086975097656,44.813968658447266
1,769551,-11.854568481445312,40.77460861206055,-27.539194107055664,-104.0939712524414
1,769552,-44.48616409301758,31.624492645263672,-24.001827239990234,-86.39517211914062
1,769603,-54.275962829589844,12.416316986083984,-24.969566345214844,22.023386001586914
1,769603,-0.7565323710441589,8.97545337677002,-13.479546546936035,11.7335205078125
1,769603,77.78572082519531,-30.11119842529297,34.68717575073242,28.704858779907227
1,769603,21.045392990112305,-21.642154693603516,26.829696655273438,13.880518913269043
1,769603,-38.25886917114258,22.12369728088379,0.4282654821872711,-26.903533935546875
1,769603,-13.339559555053711,17.052099227905273,19.72193717956543,-13.059218406677246
1,769604,1.5979830026626587,6.221819877624512,0.5885001420974731,-8.182321548461914
1,769604,9.01110553741455,8.871601104736328,-25.422670364379883,-0.8801422119140625
1,769604,11.150287628173828,-18.195568084716797,-7.046426296234131,7.7372636795043945
1,769604,6.187891006469727,-47.38199234008789,-1.621329426765442,51.5088996887207
1,769604,8.726469993591309,-17.984756469726562,4.6468939781188965,67.65877532958984
1,769604,19.52348518371582,14.487201690673828,14.218039512634277,12.39962387084961
1,769605,2.7695577144622803,9.541813850402832,21.613479614257812,-23.989656448364258
1,769605,-2.260490655899048,-10.960289001464844,0.2254047393798828,-6.921453952789307
1,769605,-0.44299355149269104,-8.614277839660645,-30.065746307373047,-26.102643966674805
1,769605,-23.649545669555664,16.04668617248535,-14.856698989868164,-44.60160446166992
1,769605,-27.99875259399414,12.950302124023438,-0.19895923137664795,2.182682514190674
1,769606,-8.274243354797363,12.862656593322754,-6.3053364753723145,9.68765926361084
1,769606,14.3429594039917,-1.7562254667282104,4.4394426345825195,3.74070143699646
1,769606,22.353389739990234,-26.524906158447266,5.637125492095947,18.075773239135742
1,769606,9.41611385345459,-14.668994903564453,-15.138381958007812,11.730080604553223
1,769606,-12.86056137084961,-1.784162163734436,2.4549012184143066,5.692437648773193
1,769606,-4.551119327545166,12.909838676452637,14.031492233276367,-3.438260555267334
1,769607,4.349823951721191,1.8658374547958374,-6.964365482330322,-11.08859634399414
1,769607,-15.913631439208984,-7.9905104637146,14.616909980773926,-9.264986991882324
1,769608,7.068191051483154,10.090579986572266,15.787939071655273,-23.815340042114258
1,769608,13.756852149963379,-8.426782608032227,-23.8979549407959,-35.28335952758789
1,769608,-16.93515396118164,-2.456181764602661,13.51681137084961,-5.2727742195129395
1,769610,-19.57392692565918,14.68825626373291,18.990385055541992,-14.812725067138672
1,769612,-12.961149215698242,34.70397186279297,-4.5609941482543945,-62.67491149902344
1,769614,16.935914993286133,46.81915283203125,6.1745734214782715,-6.281985282897949
1,769616,11.798377990722656,3.336097478866577,-26.597530364990234,60.90443801879883
1,769618,-5.0383830070495605,-29.615800857543945,-20.73524284362793,28.030202865600586
1,769620,-12.864578247070312,-19.01313018798828,10.694538116455078,-50.252281188964844
1,769622,-25.987579345703125,34.391510009765625,-0.04368995130062103,-57.260536193847656
1,769624,23.19721794128418,1.9384576082229614,-2.3474044799804688,98.08956146240234
1,769626,41.371482849121094,-50.25061798095703,-7.091746807098389,134.74888610839844
1,769628,27.44062042236328,-43.714656829833984,-14.477022171020508,29.544893264770508
1,769630,13.370838165283203,-15.84164810180664,41.51399230957031,-16.20886993408203
1,769632,-52.32143783569336,46.35712814331055,25.287193298339844,-111.8790054321289
1,769634,-37.612117767333984,23.349374771118164,-62.51924514770508,-54.23521423339844
1,769636,25.359785079956055,-18.571361541748047,-18.316877365112305,80.12863159179688
1,769699,10.557093620300293,-8.852363586425781,50.31949996948242,-11.360143661499023
1,769699,-4.135761260986328,-5.351849555969238,14.626713752746582,-40.21427536010742
1,769699,-0.051331985741853714,9.341907501220703,-12.855117797851562,23.040132522583008
1,769699,-18.549846649169922,25.730018615722656,5.007186412811279,-34.59637451171875
1,769699,-14.779911994934082,26.02556800842285,-10.556680679321289,-43.82859420776367
1,769700,10.51181697845459,-4.352325439453125,-23.760780334472656,13.193339347839355
1,769700,5.406108379364014,-14.214174270629883,6.406070232391357,18.52211570739746
1,769700,-5.710442066192627,-1.3473938703536987,7.634457111358643,17.074800491333008
1,769700,10.515485763549805,-26.295867919921875,-4.405048370361328,30.378952026367188
1,769700,25.67938804626465,-13.91819953918457,13.773880958557129,30.255048751831055
1,769700,0.011816530488431454,7.184898853302002,-2.20454478263855,9.597429275512695
1,769701,-14.216676712036133,-0.9002747535705566,-8.984278678894043,-8.767810821533203
1,769701,-11.666509628295898,8.6950044631958,13.866044998168945,-15.669300079345703
1,769701,-8.583349227905273,16.425235748291016,3.568514347076416,-16.276426315307617
1,769701,15.202643394470215,1.348892092704773,-7.480100154876709,-24.623014450073242
1,769701,4.992778301239014,1.2232580184936523,-16.236780166625977,5.35070276260376
1,769701,-17.68045997619629,6.46958589553833,-11.800395011901855,22.03034782409668
1,769702,6.526961326599121,-16.25074577331543,11.065207481384277,1.0564996004104614
1,769702,7.713051795959473,-27.52138900756836,2.362083911895752,16.901334762573242
1,769702,5.198164463043213,-1.4445703029632568,16.506919860839844,31.80072021484375
1,769702,17.711273193359375,6.637157917022705,27.8004093170166,3.943791151046753
1,769702,-0.6145731806755066,-6.584318161010742,-9.154260635375977,-22.03779411315918
1,769703,12.915759086608887,18.227497100830078,-18.383249282836914,-7.153818130493164
1,769703,5.039968967437744,9.958251953125,-3.731067180633545,3.734827995300293
1,769703,-35.49795913696289,-6.405236721038818,-2.228012800216675,-3.8405263423919678
1,769703,-11.919172286987305,11.79594898223877,-4.639373779296875,-16.15315055847168
1,769703,20.36785125732422,-12.05478572845459,8.273387908935547,8.996596336364746
1,769703,11.179481506347656,-23.534082412719727,7.583400249481201,36.16300582885742
1,769704,10.6903076171875,15.680758476257324,-20.52411651611328,-4.569395542144775
1,769704,-10.310611724853516,-1.549479365348816,-2.927588701248169,-10.42652416229248
1,769704,-9.80431842803955,-12.864749908447266,34.97339630126953,2.0520639419555664
1,769705,28.84694480895996,-4.391414165496826,13.53015422821045,22.04037094116211
1,769705,13.835721969604492,-8.371137619018555,-18.25686264038086,18.211572647094727
1,769706,-13.234861373901367,23.694976806640625,-17.67848014831543,-39.35416030883789
