Aktueller Finger,timestamp_ms,sensor_0,sensor_1,sensor_2,sensor_3
0,272524,-12.206034660339355,-7.907827854156494,10.724251747131348,15.08774471282959
0,272525,-29.677900314331055,-6.924449443817139,27.950918197631836,19.60298728942871
0,272529,20.417871475219727,-26.544689178466797,-30.510814666748047,-4.209229946136475
0,272529,58.25672912597656,-7.579064846038818,-47.513282775878906,7.982125759124756
0,272532,-67.88268280029297,60.2181282043457,41.2608528137207,2.5627481937408447
0,272533,-72.0550537109375,5.519465446472168,51.99322509765625,-31.2380313873291
0,272536,48.6386833190918,-34.850460052490234,-14.442258834838867,-17.80690574645996
0,272537,56.6600456237793,-2.955641746520996,-52.773681640625,9.442320823669434
0,272540,3.7632253170013428,-3.869658946990967,22.176101684570312,21.80999183654785
0,272541,-1.2975833415985107,4.31402587890625,55.48965072631836,25.037689208984375
0,272544,7.619314193725586,15.63361644744873,-42.49139404296875,0.12736482918262482
0,272545,46.56129455566406,0.702758252620697,-45.99423599243164,-13.629773139953613
0,272548,-41.37112808227539,-14.861045837402344,74.63610076904297,-13.945748329162598
0,272549,-78.68079376220703,16.837913513183594,52.55133056640625,-0.33704710006713867
0,272552,28.662904739379883,35.0782356262207,-108.08594512939453,15.225667953491211
0,272553,-0.8295347690582275,-38.92403030395508,-61.76394271850586,-16.772869110107422
0,272556,43.78470230102539,-24.62051010131836,79.04289245605469,-7.694428443908691
0,272557,11.93134593963623,12.419808387756348,24.103544235229492,7.234971046447754
0,272560,-38.352760314941406,-11.207467079162598,-31.652990341186523,-5.04538106918335
0,272561,18.475744247436523,35.23286056518555,-1.0929011106491089,13.077754974365234
0,272564,-22.274253845214844,2.2116217613220215,-17.27046012878418,-4.573272705078125
0,272565,-43.92337417602539,-29.773155212402344,-9.072080612182617,2.233635187149048
0,272568,9.38228988647461,-0.2829732596874237,28.115310668945312,-0.9951744079589844
0,272569,21.67308807373047,-16.91781234741211,-3.3720741271972656,-3.18414568901062
0,272572,-29.18416404724121,11.09028148651123,2.839473009109497,7.564785480499268
0,272573,36.29780197143555,33.87495422363281,42.93574905395508,-4.887788772583008
0,272576,93.09767150878906,-24.375276565551758,8.101762771606445,11.640617370605469
0,272577,24.066396713256836,-11.274027824401855,-17.01006317138672,1.0039631128311157
0,272580,-88.18821716308594,37.40080642700195,-31.49917221069336,-20.576570510864258
0,272581,-66.73151397705078,-4.312330722808838,-2.9142701625823975,6.074141979217529
0,272584,21.560468673706055,-19.627031326293945,-28.315673828125,-6.997454643249512
0,272585,-17.700590133666992,13.501260757446289,-40.6283073425293,-13.532440185546875
0,272588,-5.213100433349609,5.5671162605285645,97.64258575439453,38.047088623046875
0,272589,58.911216735839844,-28.5411434173584,88.28778839111328,-7.329785346984863
0,272592,57.81757354736328,20.65119743347168,-52.93543243408203,-20.49916648864746
0,272593,-16.595619201660156,19.582456588745117,-122.82469940185547,40.779266357421875
0,272596,-62.439735412597656,-44.83997344970703,-10.398624420166016,0.8622711300849915
0,272597,-18.448040008544922,-14.301412582397461,82.03190612792969,-45.62904357910156
0,272600,19.229652404785156,14.381084442138672,27.972440719604492,-7.212018966674805
0,272601,1.4338719844818115,25.731327056884766,-2.073859214782715,-9.006492614746094
0,272604,18.37370491027832,17.42589569091797,-31.316240310668945,27.21687126159668
0,272605,6.4640350341796875,-9.38305377960205,-31.87639045715332,71.06214141845703
0,272608,-40.03776168823242,-33.38264083862305,-18.59047508239746,-60.65273666381836
0,272609,23.255470275878906,-2.2760112285614014,20.501541137695312,-60.63492965698242
0,272612,53.46099853515625,58.1403694152832,54.42803955078125,67.13697814941406
0,272613,-19.59130096435547,-7.422084808349609,25.645509719848633,23.144023895263672
0,272616,-86.30130767822266,-42.4527473449707,-4.15529727935791,-19.747526168823242
0,272617,-7.470244884490967,7.904416084289551,-31.632055282592773,3.085510730743408
0,272620,119.27928924560547,22.277748107910156,-38.9680061340332,-3.8363239765167236
0,272621,12.443453788757324,5.443972110748291,15.741368293762207,-2.6799821853637695
0,272624,-74.32587432861328,-38.89487075805664,36.890625,7.062615871429443
0,272625,23.89551544189453,-23.10440444946289,-5.8093719482421875,-23.97393798828125
0,272628,-3.4318933486938477,12.552876472473145,-40.627559661865234,-51.25507736206055
0,272629,-38.912357330322266,13.615471839904785,7.48188591003418,16.915157318115234
0,272632,42.471134185791016,25.11020278930664,50.24200439453125,64.5997085571289
0,272633,-3.700681686401367,-15.773908615112305,-49.861019134521484,-4.5885138511657715
0,272636,-3.298736333847046,-18.775829315185547,-48.315128326416016,-12.93853759765625
0,272637,40.52063751220703,6.092678546905518,49.7494010925293,-6.084110260009766
0,272640,-78.7563705444336,-19.39560317993164,31.79346466064453,-24.89841651916504
0,272895,-7.5756659507751465,-1.6904551982879639,-38.58266830444336,50.8922233581543
0,272896,55.47380828857422,22.60481834411621,-11.03905200958252,8.84931468963623
0,272899,-14.668519020080566,45.28376388549805,37.54318618774414,-48.02806854248047
0,272900,60.3756103515625,26.736780166625977,-10.38437271118164,19.010339736938477
0,272903,-24.748310089111328,-5.58137321472168,-4.973901271820068,-12.779011726379395
0,272904,-87.96904754638672,-7.473398208618164,19.618680953979492,-41.23054885864258
0,273748,4.076297760009766,-41.29108810424805,-7.894124507904053,25.849609375
0,273748,-12.110127449035645,-22.833003997802734,-4.42266321182251,62.613380432128906
0,273749,-10.867079734802246,7.558091640472412,4.216072082519531,-12.724467277526855
0,273752,30.665225982666016,-17.493236541748047,2.090759038925171,-64.18927001953125
0,273753,26.205923080444336,-7.489725589752197,-0.923140287399292,3.572204828262329
0,273756,-0.3214494585990906,23.926769256591797,-14.698304176330566,23.862062454223633
0,273757,13.175509452819824,12.596989631652832,16.7814884185791,23.91864776611328
0,273760,4.709596157073975,27.487014770507812,10.558419227600098,42.83928298950195
0,273761,27.17862319946289,28.372194290161133,-41.7828254699707,-41.33884048461914
0,273764,11.962623596191406,-32.32206726074219,15.235608100891113,-58.14353561401367
0,273765,-66.90288543701172,-27.72020721435547,43.538516998291016,38.73701095581055
0,273768,14.136180877685547,-1.392854928970337,-27.005874633789062,24.53382682800293
0,273769,21.402685165405273,-19.68177604675293,-29.917190551757812,-21.768321990966797
0,273772,-52.36665344238281,-11.14574909210205,15.694507598876953,-1.7030785083770752
0,273773,-7.801079750061035,30.14725112915039,16.31301498413086,22.570039749145508
0,273776,47.45594787597656,-0.7861721515655518,-16.864877700805664,-30.158483505249023
0,273777,34.642066955566406,-21.902311325073242,-9.970840454101562,-0.4237917363643646
0,273780,-8.941678047180176,40.358062744140625,11.322404861450195,27.60748863220215
0,273781,-12.45531940460205,21.418804168701172,6.462541103363037,-43.56789016723633
0,273784,-8.258217811584473,-25.429676055908203,4.1913838386535645,14.21851634979248
0,273785,-1.8591818809509277,-12.212549209594727,-30.483642578125,40.48905944824219
0,273788,-21.36758804321289,-3.900214672088623,-9.22916316986084,-5.246572017669678
0,273789,-1.3122540712356567,1.0093491077423096,36.355262756347656,-22.57246971130371
0,273792,28.412067413330078,-0.15202584862709045,-4.969196319580078,-19.479103088378906
0,273793,-7.4012532234191895,-3.6806066036224365,4.579893112182617,8.682778358459473
0,273796,-43.90460205078125,0.6747353076934814,19.122407913208008,-11.39777946472168
0,273797,-15.783210754394531,2.914551019668579,-20.163434982299805,-18.455215454101562
0,273800,60.756019592285156,12.130545616149902,-40.18403625488281,71.36835479736328
0,273801,29.85801887512207,6.6233229637146,-12.145956039428711,43.757972717285156
0,273804,-24.3769474029541,2.748645782470703,97.25395202636719,-70.3501205444336
0,273805,19.54929542541504,8.423135757446289,96.99128723144531,-44.7595329284668
0,273808,0.9568279385566711,-15.343457221984863,-101.1910171508789,6.746921062469482
0,273809,-15.307114601135254,-16.795129776000977,-142.49745178222656,47.858123779296875
0,273812,-7.401055812835693,16.859283447265625,25.833229064941406,18.99220085144043
0,273813,-53.60293960571289,2.336066246032715,56.813236236572266,-39.55323028564453
0,273816,18.28475570678711,-25.324504852294922,4.995589256286621,-0.006207084283232689
0,273817,57.49408721923828,-10.941365242004395,19.02276611328125,3.9515464305877686
0,273820,-14.451451301574707,29.685245513916016,44.3915901184082,-23.34415054321289
0,273821,-1.1791343688964844,35.18238067626953,10.624164581298828,-10.806471824645996
0,273824,9.357422828674316,-24.36953353881836,-62.179195404052734,36.720401763916016
0,273825,-84.95849609375,-37.71805191040039,-40.79087448120117,43.303306579589844
0,273828,-1.5633578300476074,0.6652374863624573,38.881290435791016,-23.309558868408203
0,273829,79.08930206298828,10.302474975585938,34.55024337768555,-43.01435470581055
0,273832,-51.79730224609375,4.1629180908203125,-48.55474853515625,9.507503509521484
0,273833,-53.16965866088867,27.166229248046875,-16.726778030395508,26.441770553588867
0,273836,111.64337158203125,4.598753452301025,15.403546333312988,-10.400683403015137
0,273837,90.4262924194336,-43.72213363647461,-58.277244567871094,-15.501110076904297
0,273840,-121.29704284667969,19.432262420654297,78.44119262695312,38.252384185791016
0,273841,-57.672080993652344,46.639102935791016,159.55819702148438,12.69051742553711
0,273844,66.74871063232422,-25.64653205871582,-95.49576568603516,-56.31917953491211
0,273845,27.562347412109375,-31.663068771362305,-165.23329162597656,-6.528933048248291
0,273848,-18.424903869628906,-2.0482594966888428,-7.803042888641357,4.678139686584473
0,273849,-1.4507293701171875,15.905030250549316,64.39216613769531,-24.551071166992188
0,273852,-10.926002502441406,-0.5651262402534485,112.85093688964844,60.77022933959961
0,273853,-38.96574401855469,-9.668468475341797,43.030269622802734,55.44427490234375
0,273856,36.16279602050781,39.63710021972656,-64.01567840576172,-63.899085998535156
0,273857,1.3524980545043945,-22.710861206054688,-78.06315612792969,-33.757286071777344
0,273860,20.6679744720459,-42.39235305786133,-48.502376556396484,21.716615676879883
0,273861,62.06114959716797,24.50186538696289,21.736928939819336,-7.475701808929443
0,273864,-52.81106948852539,2.6605641841888428,38.508636474609375,11.312840461730957
0,273865,-65.33633422851562,4.173328399658203,16.987037658691406,26.506542205810547
0,273868,-0.04274235665798187,6.294415473937988,17.055706024169922,-17.481761932373047
0,273870,21.67738914489746,-18.306608200073242,12.510375022888184,-12.559122085571289
0,273871,1.9446965456008911,7.393804550170898,-10.10486125946045,6.3886919021606445
0,273874,8.701634407043457,38.467247009277344,1.8874621391296387,-14.30643081665039
0,273875,24.36738395690918,-19.74180030822754,-1.9487229585647583,1.38607919216156
0,273878,-26.84372901916504,-37.22551345825195,-28.412494659423828,-3.3080556392669678
0,273879,-31.756717681884766,9.7720947265625,-32.965763092041016,-22.672542572021484
0,273882,52.58238983154297,47.11651611328125,14.93596363067627,-5.52506160736084
0,273883,28.494089126586914,32.99091339111328,52.01974868774414,15.185108184814453
0,273886,-55.666683197021484,-78.09732055664062,13.998047828674316,66.65476989746094
0,273887,-15.774603843688965,-15.007003784179688,6.949183464050293,47.24971389770508
0,273890,49.466766357421875,45.79977035522461,-46.245357513427734,-73.72325134277344
0,273892,33.8570442199707,-25.063688278198242,-57.89561080932617,-64.73946380615234
0,273894,-31.21791648864746,-17.527055740356445,37.27875900268555,47.13182830810547
0,273895,-28.042709350585938,7.86066198348999,29.207256317138672,25.14833641052246
0,273898,-12.970053672790527,25.16886329650879,-29.505102157592773,-17.863473892211914
0,273899,-16.830055236816406,3.674213171005249,-30.02419090270996,12.82641887664795
0,273902,5.9394049644470215,-15.327629089355469,32.44569778442383,1.1958566904067993
0,273903,42.019203186035156,-6.950634479522705,48.1180419921875,-9.778517723083496
0,273906,4.012446403503418,16.13082504272461,-12.010724067687988,-31.686800003051758
0,273907,-3.812067747116089,14.228205680847168,-25.2374324798584,-13.243085861206055
0,273910,-6.639853477478027,-7.433377742767334,-2.4675674438476562,40.645286560058594
0,273911,9.84642505645752,0.03270024433732033,33.38762283325195,-4.997769832611084
0,273914,72.24488830566406,4.067540645599365,37.32382583618164,0.971259593963623
0,273915,-104.58627319335938,-23.424489974975586,-45.10829162597656,1.405921459197998
0,273918,-34.308494567871094,-36.74522399902344,-114.71263885498047,-16.07219886779785
0,273919,96.97132873535156,19.749534606933594,17.788471221923828,42.16336441040039
0,273922,-38.29612350463867,35.46826934814453,157.2146453857422,-8.003631591796875
0,273923,-35.51932144165039,-13.393561363220215,28.388172149658203,-34.74263000488281
0,273926,-48.97262191772461,-1.243261456489563,-138.892333984375,13.325783729553223
0,273927,28.709821701049805,12.257737159729004,-110.58272552490234,-13.435796737670898
0,273930,111.51110076904297,-12.927693367004395,101.9100112915039,-0.003622843883931637
0,273931,7.207023620605469,22.551246643066406,206.82379150390625,36.6330680847168
0,273934,-107.42015838623047,-2.1726813316345215,-52.37729263305664,-10.717729568481445
0,273935,-64.03785705566406,-46.83012771606445,-142.50009155273438,-10.885784149169922
0,273938,113.27580261230469,5.243044376373291,26.532684326171875,-18.56300163269043
0,273939,72.34735870361328,27.615251541137695,-18.683984756469727,-22.419574737548828
0,273942,-55.965572357177734,13.792302131652832,1.9936394691467285,49.98390579223633
0,273943,-86.04964447021484,-22.71807289123535,30.026309967041016,17.231496810913086
0,273946,-9.972139358520508,-16.22091293334961,-43.678470611572266,-7.929462432861328
0,273947,65.40811157226562,32.334171295166016,15.5191011428833,9.38457202911377
0,273950,8.028656005859375,9.276229858398438,5.514434814453125,-24.911617279052734
0,273951,-7.428722381591797,-17.33544158935547,-19.050283432006836,-28.30082893371582
0,273954,5.702922344207764,12.939188957214355,28.79082489013672,-33.03846740722656
0,273955,-13.675909996032715,14.069894790649414,8.779611587524414,-27.971967697143555
0,273958,-13.337508201599121,-29.23906707763672,1.9091688394546509,90.58129119873047
0,273959,21.384014129638672,-12.68360710144043,8.641868591308594,150.80555725097656
0,273962,33.42377471923828,44.71244812011719,4.853857040405273,-8.17945671081543
0,273963,4.08140754699707,-7.921230316162109,7.650132656097412,-142.45545959472656
0,273966,-26.950733184814453,-52.970741271972656,-26.965835571289062,-141.16229248046875
0,273967,-17.053220748901367,5.671961784362793,-25.33400535583496,-36.2850456237793
0,273970,-2.457150459289551,15.734028816223145,14.070036888122559,96.98045349121094
0,273971,3.2659647464752197,1.2862943410873413,-11.882920265197754,168.2503204345703
0,273974,24.195955276489258,19.542333602905273,24.83827018737793,86.76322174072266
0,273975,-22.158184051513672,12.053019523620605,58.992313385009766,-160.78598022460938
0,273978,7.359246253967285,-23.761770248413086,-53.966331481933594,-59.83247375488281
0,273979,21.428829193115234,-6.831084728240967,-35.84491729736328,140.916748046875
0,273982,-60.71001434326172,-1.4479202032089233,6.075325965881348,-64.7863540649414
0,273983,8.60612964630127,-6.535270690917969,-21.543493270874023,-135.54092407226562
0,273986,44.88770294189453,5.295173168182373,62.29063415527344,6.174388885498047
0,273987,-23.220378875732422,-10.291975975036621,52.41291427612305,57.39959716796875
0,273990,-17.595722198486328,29.396982192993164,17.41931915283203,86.17634582519531
0,273991,17.930469512939453,14.811440467834473,-89.69635009765625,20.65897560119629
0,273994,36.31922149658203,-20.678125381469727,-123.40876770019531,-97.95467376708984
0,273995,-1.1739124059677124,22.669946670532227,133.35362243652344,12.99842357635498
0,273998,-76.96439361572266,-32.429840087890625,85.51641845703125,80.82228088378906
0,273999,-2.3661131858825684,-30.51909828186035,-106.96177673339844,-38.497528076171875
0,274002,84.07855987548828,60.63422775268555,-42.67496871948242,-70.03780364990234
0,274003,-9.017205238342285,-10.5166015625,33.580081939697266,-64.66732025146484
0,274006,-26.850528717041016,-31.701894760131836,7.335163593292236,29.834300994873047
0,274007,24.657896041870117,14.122292518615723,-27.4334659576416,90.9534683227539
0,274010,-3.8107802867889404,-3.318889856338501,12.365898132324219,177.12648010253906
0,274011,-15.01452922821045,7.775965690612793,23.78221321105957,60.51766586303711
0,274014,-12.957106590270996,2.044196367263794,13.402607917785645,-254.73194885253906
0,274015,-1.6877856254577637,-4.042557239532471,36.89042282104492,-107.86257934570312
0,274018,-6.70674467086792,10.683920860290527,36.87571716308594,-13.005475044250488
0,274019,-22.306379318237305,0.866982102394104,-28.47706413269043,-20.05852508544922
0,274022,35.510581970214844,-8.029817581176758,-91.47235107421875,219.7805938720703
0,274023,52.71805953979492,-10.629423141479492,-17.266521453857422,140.36895751953125
0,274026,3.2848665714263916,7.470352649688721,121.2694091796875,-234.4283905029297
0,274027,-33.86146926879883,24.350744247436523,29.872493743896484,-164.4936981201172
0,274030,-48.53875732421875,-38.368064880371094,-155.64556884765625,127.18495178222656
0,274031,36.04059982299805,-0.7875187993049622,-9.745223045349121,28.11838722229004
0,274034,47.566429138183594,26.326921463012695,68.01726531982422,40.98137664794922
0,274035,-65.43290710449219,-31.609384536743164,-41.77581024169922,100.03468322753906
0,274038,2.854217767715454,28.327486038208008,20.190126419067383,-90.16753387451172
0,274039,76.00235748291016,16.608938217163086,27.86082649230957,-72.62161254882812
0,274042,-80.77970123291016,-25.014535903930664,2.6633849143981934,24.562026977539062
0,274043,-78.6732177734375,8.197142601013184,23.765289306640625,-71.15060424804688
0,274046,39.88146209716797,-2.219202756881714,-15.314178466796875,47.819881439208984
0,274047,16.526155471801758,-8.261914253234863,-40.01019287109375,203.6848907470703
0,274050,97.40108489990234,10.71826171875,-17.63416290283203,7.6758928298950195
0,274053,9.73465633392334,-2.478877067565918,59.76804733276367,-137.9261932373047
0,274053,-130.2443084716797,-25.37209129333496,52.500732421875,-104.75367736816406
0,274055,25.71424102783203,-25.059995651245117,-45.53117370605469,-81.84403228759766
0,274058,5.4550580978393555,11.284415245056152,-15.568549156188965,-12.856919288635254
0,274059,-15.864848136901855,55.01036834716797,-7.943617343902588,3.4630959033966064
0,274062,68.95697784423828,3.550276517868042,-39.359283447265625,117.8564453125
0,274063,25.59754753112793,-37.53468322753906,26.226091384887695,478.351318359375
0,274066,-16.086196899414062,12.913097381591797,41.08259201049805,54.237335205078125
0,274067,-49.67900848388672,21.69376564025879,-5.725942134857178,-480.6006774902344
0,274070,13.35843276977539,-10.220064163208008,-67.91195678710938,-255.9327392578125
0,274071,40.00290298461914,-12.739084243774414,-55.460975646972656,74.9896240234375
0,274074,-7.3867597579956055,0.8860125541687012,30.532068252563477,170.9628448486328
0,274075,-75.2054672241211,-36.53725814819336,72.48600006103516,-112.0124740600586
0,274078,-38.331016540527344,10.184723854064941,71.34310913085938,201.67552185058594
0,274079,53.229286193847656,83.59598541259766,-7.641597747802734,301.4628601074219
0,274082,83.68628692626953,-25.588048934936523,-39.24197006225586,-395.7889404296875
0,274083,83.30630493164062,-61.340423583984375,-24.012311935424805,-261.33740234375
0,274086,-107.41293334960938,24.522525787353516,-28.813732147216797,219.36151123046875
0,274087,-13.38654899597168,-2.8661224842071533,21.675886154174805,155.0955810546875
0,274090,-25.196842193603516,-2.2935144901275635,33.8734130859375,-92.27523040771484
0,274091,-158.07681274414062,36.92195510864258,-55.29832458496094,-100.93318939208984
0,274094,119.94953155517578,-0.08724883198738098,22.56548309326172,94.76820373535156
0,274095,97.23006439208984,-5.808734893798828,116.3458251953125,102.89044189453125
0,274098,-2.6716644763946533,-32.34019088745117,-137.47573852539062,-7.577821731567383
0,274099,13.074070930480957,-20.998043060302734,-98.40596771240234,-45.44932174682617
0,274102,-66.65836334228516,53.4912223815918,142.71578979492188,-88.30218505859375
0,274103,-34.387298583984375,-2.225983142852783,-3.7537026405334473,-77.73944091796875
0,274106,-39.310386657714844,-39.63267517089844,-54.74736404418945,63.089874267578125
0,274107,-15.422550201416016,0.2893217206001282,55.07151412963867,66.49662780761719
0,274110,70.49412536621094,-11.570209503173828,-21.91341781616211,-43.288150787353516
0,274111,76.41400146484375,24.453397750854492,5.8613362312316895,2.775766611099243
0,274114,108.73278045654297,43.44935607910156,75.85469818115234,119.93656158447266
0,274115,43.07020568847656,-34.31330490112305,-86.24730682373047,30.31411361694336
0,274118,-235.16006469726562,-11.084071159362793,-85.32538604736328,-17.922626495361328
0,274119,-177.79908752441406,33.913612365722656,61.52306365966797,-42.28305435180664
0,274122,167.96664428710938,-22.244054794311523,44.33718490600586,-306.61865234375
0,274123,75.87601470947266,-5.775811195373535,-24.290613174438477,-269.7208557128906
0,274126,-62.055171966552734,17.34054946899414,14.006670951843262,422.8117370605469
0,274127,34.44035339355469,-12.578038215637207,26.91584014892578,560.2579345703125
0,274130,-28.51457405090332,-11.444314956665039,-37.044097900390625,-311.71771240234375
0,274131,-50.063228607177734,37.97883987426758,38.56303787231445,-353.4951171875
0,274134,18.92940330505371,13.491449356079102,98.84870147705078,206.20518493652344
0,274135,54.486480712890625,-75.87973022460938,-88.32200622558594,188.8822784423828
0,274138,58.502593994140625,-2.830515146255493,-112.46768188476562,-93.26929473876953
0,274139,-61.4293098449707,49.095367431640625,66.07335662841797,-146.33152770996094
0,274142,3.4926795959472656,-11.863394737243652,104.89152526855469,73.69778442382812
0,274143,94.78653717041016,5.327139377593994,35.66048812866211,81.18257904052734
0,274146,-78.77596282958984,10.55901050567627,-152.53102111816406,-68.84507751464844
0,274147,-31.194015502929688,-10.007414817810059,-121.35230255126953,-67.08409881591797
0,274150,8.370211601257324,-21.656864166259766,88.82676696777344,-78.22470092773438
0,274151,-68.43948364257812,16.12847328186035,110.35057067871094,-66.34488677978516
0,274154,46.14150619506836,39.98872375488281,-10.983419418334961,127.11782836914062
0,274155,59.52033615112305,-25.43018341064453,-142.78570556640625,77.12495422363281
0,274158,52.66310501098633,-34.39359664916992,-26.29889678955078,-73.43720245361328
0,274159,-14.723018646240234,-8.070080757141113,93.70085906982422,-3.6923630237579346
0,274162,-123.9834976196289,13.465047836303711,29.46101951599121,25.342472076416016
0,274163,6.633785724639893,25.882158279418945,15.847553253173828,79.1435775756836
0,274166,109.66925811767578,-3.630542039871216,27.484487533569336,46.88602066040039
0,274167,-32.416141510009766,-35.79810333251953,-49.30906295776367,-98.75613403320312
0,274170,-89.90275573730469,6.254652976989746,-40.87836456298828,-120.8925552368164
0,274171,54.470462799072266,27.66064453125,40.6517448425293,73.69689178466797
0,274174,46.20396423339844,3.0225119590759277,9.08531379699707,190.76124572753906
0,274175,-54.20464324951172,3.554255247116089,8.061493873596191,-67.27100372314453
0,274178,-39.106353759765625,-28.24529266357422,-26.36789894104004,-231.18023681640625
0,274179,5.425924777984619,7.265584945678711,-11.278766632080078,10.689194679260254
0,274182,36.04981231689453,48.75857162475586,65.0128402709961,218.97006225585938
0,274183,8.089555740356445,-26.707120895385742,-24.734907150268555,22.490259170532227
0,274186,-25.044261932373047,-27.42363929748535,-33.78225326538086,34.68781661987305
0,274187,80.56795501708984,30.111738204956055,23.40480613708496,50.56062698364258
0,274190,48.949161529541016,14.169387817382812,37.9807014465332,-411.5774841308594
0,274191,-119.45179748535156,-20.44508934020996,47.141883850097656,-123.34190368652344
0,274194,-49.973812103271484,-12.197794914245605,-124.93244934082031,340.2593078613281
0,274195,57.76225280761719,-18.571468353271484,-134.09153747558594,-138.12644958496094
0,274198,4.563817501068115,-8.205108642578125,203.02835083007812,65.84144592285156
0,274199,1.3183263540267944,39.31758499145508,188.41465759277344,421.9064025878906
0,274202,31.347766876220703,-0.34035778045654297,-194.04620361328125,-120.81000518798828
0,274203,-42.770835876464844,-17.675718307495117,-174.48707580566406,-279.3436279296875
0,274206,-25.566085815429688,-8.07087516784668,72.16292572021484,-138.18777465820312
0,274207,37.95515823364258,-0.055499739944934845,38.81425094604492,-82.40704345703125
0,274210,25.75328826904297,47.81564712524414,19.31437110900879,278.96331787109375
0,274211,-48.715457916259766,-9.446917533874512,105.76436614990234,316.4932861328125
0,274214,17.43232536315918,-27.00848960876465,35.951988220214844,-162.01397705078125
0,274215,83.48867797851562,24.735088348388672,-100.94210052490234,-175.07203674316406
0,274218,-74.61173248291016,-26.0006160736084,-120.77452850341797,-42.21133804321289
0,274219,-61.04804611206055,-11.526388168334961,15.273957252502441,-53.50835418701172
0,274222,40.97645568847656,40.05561447143555,73.1006088256836,45.324188232421875
0,274223,69.7363510131836,4.379855155944824,-15.890572547912598,94.27940368652344
0,274228,-33.25996017456055,-54.53185272216797,20.17243003845215,32.98088073730469
0,274228,-53.572200775146484,-27.286972045898438,45.68231964111328,-58.264835357666016
0,274229,31.716876983642578,60.231903076171875,17.38486671447754,21.3691349029541
0,274232,89.71541595458984,31.321674346923828,1.7916615009307861,43.854209899902344
0,274233,27.82883644104004,-23.696434020996094,-68.04396057128906,-29.17572021484375
0,274236,-111.06436157226562,1.1513267755508423,-45.18304443359375,-21.237810134887695
0,274237,-23.10252571105957,-25.669557571411133,-34.144256591796875,-83.10257720947266
0,274240,-41.941551208496094,-29.89411735534668,23.769500732421875,-166.25820922851562
0,274241,-25.98706817626953,45.63837814331055,90.53498840332031,13.314422607421875
0,274244,125.02201080322266,6.883031368255615,12.814652442932129,295.9675598144531
0,274245,32.53037643432617,-7.017216682434082,16.83485984802246,150.67312622070312
0,274248,-86.07952880859375,13.933652877807617,-1.391469955444336,-128.2488555908203
0,274249,59.786537170410156,-14.899490356445312,-75.05279541015625,-66.85417938232422
0,274252,12.235811233520508,-3.5766799449920654,-81.33969116210938,-260.5421142578125
0,274253,-133.47265625,-21.04568862915039,-3.8218908309936523,-223.4830322265625
0,274256,21.2922306060791,5.322888374328613,95.6158676147461,567.6978149414062
0,274257,49.432437896728516,33.46785354614258,37.388153076171875,440.5519104003906
0,274260,-9.548501014709473,-17.44655990600586,-33.792789459228516,-431.16192626953125
0,274261,-38.07182312011719,-12.230076789855957,80.85921478271484,-350.5154724121094
0,274264,20.35797882080078,39.718448638916016,104.5660171508789,146.6729736328125
0,274265,158.63487243652344,1.9084868431091309,-132.9476318359375,104.55731964111328
0,274268,-22.434633255004883,-38.33961868286133,-167.02757263183594,-4.124420166015625
0,274269,-163.1537628173828,-9.392772674560547,24.81884002685547,78.28524780273438
0,274272,-22.628311157226562,14.704630851745605,92.9201889038086,-28.708410263061523
0,274273,55.701419830322266,0.7882494926452637,68.66477966308594,-129.33108520507812
0,274276,63.80091094970703,-3.314894914627075,-24.664052963256836,1.326234221458435
0,274277,11.817709922790527,11.729545593261719,-96.19775390625,60.82136535644531
0,274280,-7.698234558105469,13.718709945678711,-79.22151184082031,-1.2794246673583984
0,274281,-87.22969055175781,-6.202404975891113,4.6176042556762695,-3.0734968185424805
0,274284,-59.02967071533203,-43.44444274902344,93.60707092285156,-58.81489562988281
0,274285,133.16473388671875,18.70731544494629,86.05253601074219,-30.002248764038086
0,274288,8.828697204589844,34.77524185180664,182.77825927734375,98.1004409790039
0,274289,-3.070728302001953,-8.104720115661621,6.183001518249512,110.10214233398438
0,274292,27.729570388793945,-0.00854887068271637,-366.9327392578125,77.94207763671875
0,274293,-128.12945556640625,-27.94070816040039,-69.10416412353516,-70.12930297851562
0,274296,60.90159225463867,9.08786678314209,210.2969512939453,-328.86248779296875
0,274297,86.07191467285156,12.888008117675781,26.15192413330078,-317.4748840332031
0,274300,-65.849609375,-39.04130172729492,-53.39936828613281,363.62127685546875
0,274301,11.745880126953125,30.864391326904297,-8.373679161071777,545.3106689453125
0,274304,-68.44792938232422,34.211273193359375,46.648372650146484,-254.22552490234375
0,274305,-73.26239013671875,-31.36790657043457,39.79420471191406,-215.4224395751953
0,274308,149.0830841064453,-18.10173988342285,-76.66680145263672,218.01243591308594
0,274309,10.734326362609863,-9.376626968383789,-64.60792541503906,-65.41281127929688
0,274312,-150.88973999023438,13.424749374389648,46.42448425292969,-259.7721252441406
0,274313,80.86800384521484,18.492521286010742,5.409506797790527,-68.5033950805664
0,274316,83.52018737792969,22.22519302368164,36.99436569213867,299.7201232910156
0,274317,55.76541519165039,-4.740339756011963,59.65271759033203,244.4318084716797
0,274320,5.064200401306152,-51.013099670410156,-27.284194946289062,-224.89312744140625
0,274321,-117.5789566040039,32.37314987182617,14.874781608581543,-177.1281280517578
0,274324,-26.652938842773438,49.39345932006836,-7.643868446350098,54.207763671875
0,274325,-0.5040426254272461,-33.1085319519043,-61.48295593261719,16.23247718811035
0,274328,52.91929626464844,-63.94393539428711,-89.42106628417969,-63.45478057861328
0,274329,1.7788366079330444,-5.361751079559326,-52.44816207885742,80.38574981689453
0,274332,-92.95683288574219,54.434654235839844,118.08444213867188,275.7640075683594
0,274333,-28.727134704589844,0.04205452278256416,77.00929260253906,-124.47341918945312
0,274336,94.11162567138672,-45.94072723388672,-15.613128662109375,-290.9156188964844
0,274337,26.737131118774414,-4.201968193054199,-9.999716758728027,125.92453002929688
0,274340,-91.58253479003906,66.91535949707031,-2.469749689102173,63.48332214355469
0,274341,59.90185546875,35.83278274536133,-3.08829927444458,-15.541007995605469
0,274344,53.198280334472656,-45.66386413574219,-35.745792388916016,42.476341247558594
0,274345,-52.56160354614258,-38.05738067626953,-31.890825271606445,-103.82298278808594
0,274348,4.88663911819458,3.2116289138793945,19.765047073364258,18.80124855041504
0,274349,-8.01279354095459,45.48338317871094,84.48461151123047,132.1882781982422
0,274352,4.474671363830566,2.579638957977295,-0.8234349489212036,-29.929275512695312
0,274353,35.98434829711914,-59.41241455078125,-83.03697204589844,-197.0469207763672
0,274356,-51.77034378051758,21.54300880432129,19.007659912109375,-0.9173981547355652
0,274357,15.613119125366211,14.692845344543457,56.998634338378906,77.53884887695312
0,274360,126.36991119384766,-20.90218162536621,12.919700622558594,-32.88695526123047
0,274361,-51.59226608276367,42.782283782958984,76.93252563476562,140.70263671875
0,274364,-161.4949188232422,-12.863143920898438,-94.4240951538086,13.077692985534668
0,274365,-25.476743698120117,-48.03904724121094,-293.3171691894531,-119.36172485351562
0,274368,149.25257873535156,1.0362499952316284,79.03312683105469,52.74077224731445
0,274369,196.00106811523438,31.78324317932129,266.31280517578125,96.76631164550781
0,274372,-137.3057403564453,31.878326416015625,2.3242032527923584,-72.34567260742188
0,274373,-260.7838439941406,-2.0259923934936523,-0.3736080229282379,-41.23659133911133
0,274376,67.13961029052734,-9.68547248840332,-31.807552337646484,147.745849609375
0,274377,115.5147705078125,-10.5669584274292,-100.47527313232422,-6.274479389190674
0,274380,31.208311080932617,-12.487468719482422,55.86246871948242,-197.86062622070312
0,274381,12.012615203857422,-22.10038948059082,-50.66986846923828,-180.520751953125
0,274384,-88.88428497314453,0.990104079246521,-102.41568756103516,62.18029022216797
0,274385,-23.22810935974121,29.08563995361328,86.07418823242188,184.35240173339844
0,274388,40.4576301574707,-12.344321250915527,94.53047180175781,4.553989410400391
0,274389,-8.016317367553711,-7.75261926651001,3.2116177082061768,17.023252487182617
0,274392,-19.285110473632812,23.278329849243164,-29.263586044311523,94.76642608642578
0,274393,0.1750010848045349,3.1423897743225098,-13.74924373626709,37.36679458618164
0,274396,7.6096954345703125,-13.1511812210083,-24.89555549621582,-106.97359466552734
0,274397,32.10913848876953,-20.197864532470703,-16.159074783325195,-155.14031982421875
0,274400,85.823974609375,26.43097496032715,32.635135650634766,143.97903442382812
0,274401,-18.759572982788086,34.880062103271484,22.185569763183594,128.43594360351562
0,274404,-102.37149810791016,-30.159996032714844,-4.89775276184082,-36.99445343017578
0,274405,-13.432572364807129,-19.121553421020508,48.14120864868164,-43.32299041748047
0,274408,113.17884826660156,38.76945877075195,49.90194320678711,-249.7178955078125
0,274409,8.975594520568848,2.1385562419891357,-102.87834930419922,-79.40962982177734
0,274415,-52.78740310668945,-39.51907730102539,-103.34410095214844,235.3472442626953
0,274415,78.234130859375,16.70319175720215,59.53940963745117,118.2445297241211
0,274416,-93.13306427001953,7.83357572555542,39.595584869384766,-35.07767868041992
0,274417,-137.6553955078125,-37.01394271850586,-23.922780990600586,-67.08982849121094
0,274420,89.73507690429688,-10.644576072692871,-35.07889938354492,-30.26714324951172
0,274421,92.8350830078125,44.25321960449219,-18.443584442138672,69.24031066894531
0,274424,11.410160064697266,-24.593006134033203,44.94892501831055,-19.944259643554688
0,274425,-8.691923141479492,-28.326051712036133,168.83299255371094,-82.32084655761719
0,274428,-120.59520721435547,83.40625762939453,163.24742126464844,12.14478588104248
0,274429,-63.75456237792969,-8.94951343536377,-290.51318359375,-53.65599822998047
0,274432,104.92707061767578,-55.95977020263672,-311.32666015625,23.80685043334961
0,274433,14.966678619384766,17.948200225830078,229.79466247558594,106.6682357788086
0,274436,-8.10994815826416,11.62031364440918,203.1252899169922,-23.742813110351562
0,274437,48.7409553527832,-18.39862060546875,-93.58805847167969,5.6062188148498535
0,274440,81.70608520507812,14.855433464050293,-83.67028045654297,25.369415283203125
0,274441,-15.159438133239746,48.38639450073242,16.68543243408203,7.17948055267334
0,274444,-166.342041015625,-43.831722259521484,11.678974151611328,-7.591935634613037
0,274445,-7.53555965423584,-94.71280670166016,-46.470672607421875,-138.4754180908203
0,274448,79.14092254638672,42.100791931152344,35.79371643066406,8.458348274230957
0,274449,14.365041732788086,98.2429428100586,63.5584716796875,135.6628875732422
0,274452,20.718544006347656,-42.56349182128906,-42.28963851928711,-31.253202438354492
0,274453,3.326303005218506,-38.18991470336914,19.722618103027344,10.447173118591309
0,274456,-30.57134437561035,35.33084487915039,51.189273834228516,16.375896453857422
0,274457,-28.77840805053711,10.192778587341309,-32.90751266479492,-26.48137664794922
0,274460,5.808446884155273,5.445947647094727,-34.706905364990234,4.265634059906006
0,274461,4.908550262451172,-13.142716407775879,-18.160884857177734,-36.94440460205078
0,274464,22.685993194580078,-17.31039810180664,-15.925990104675293,-10.574376106262207
0,274465,16.367843627929688,19.10487174987793,8.228811264038086,37.11395263671875
0,274468,-45.415931701660156,1.7414026260375977,12.069103240966797,17.749652862548828
0,274469,1.4432759284973145,-39.530242919921875,0.4156571328639984,-23.813690185546875
0,274472,81.71270751953125,13.21262264251709,20.082469940185547,46.822139739990234
0,274473,21.78812026977539,34.160911560058594,-3.2120723724365234,10.560778617858887
0,274476,-110.63841247558594,-29.03984832763672,-27.263256072998047,-90.72606658935547
0,274477,-74.76573944091797,-11.183247566223145,-1.330689549446106,9.450302124023438
0,274480,57.288455963134766,29.420284271240234,76.9116439819336,41.23910140991211
0,274481,63.567100524902344,-16.75290870666504,68.1600341796875,-33.783905029296875
0,274484,14.184579849243164,-11.804622650146484,-72.07997131347656,-25.577075958251953
0,274485,-15.121866226196289,53.71525192260742,-66.75270080566406,43.602569580078125
0,274488,-78.53327178955078,6.39669132232666,-26.144472122192383,35.88066864013672
0,274489,-36.428733825683594,-51.99901580810547,13.209936141967773,-30.36345863342285
0,274492,105.37825775146484,-5.304257392883301,47.16202926635742,-8.293137550354004
0,274493,30.5791015625,12.699975967407227,-36.99929428100586,24.707292556762695
0,274496,-84.11730194091797,-9.228192329406738,-42.05012893676758,-73.99577331542969
0,274497,-41.58577346801758,8.28929328918457,11.632448196411133,-65.03314208984375
0,274500,173.2067413330078,20.977497100830078,64.931640625,144.87696838378906
0,274501,126.70698547363281,-0.8162140846252441,81.04048919677734,59.31361389160156
0,274504,-188.6795654296875,-22.921621322631836,-4.378637790679932,-81.8665542602539
0,274505,-65.16378784179688,-16.761659622192383,-74.22234344482422,39.192996978759766
0,274508,41.60634231567383,-9.716391563415527,-70.01251220703125,19.017637252807617
0,274509,-17.971920013427734,-2.7266902923583984,18.725313186645508,-31.522871017456055
0,274512,8.347162246704102,58.19503402709961,44.66291046142578,-31.830829620361328
0,274513,-47.770748138427734,17.585115432739258,-30.650686264038086,-54.235713958740234
0,274516,28.520156860351562,-44.652427673339844,88.64130401611328,-0.6817728877067566
0,274517,78.276123046875,3.1452102661132812,126.86682891845703,23.065135955810547
0,274520,-42.147029876708984,17.846248626708984,-219.13671875,58.424049377441406
0,274521,-62.7381477355957,-22.695558547973633,-278.083251953125,6.2916975021362305
0,274524,-25.5941104888916,-36.67204284667969,158.9971923828125,-66.78821563720703
0,274525,18.1405086517334,44.409828186035156,243.87062072753906,-2.4666008949279785
0,274528,82.78047180175781,36.43394088745117,-44.836116790771484,9.61095905303955
0,274529,41.896263122558594,-32.78661346435547,-55.91897201538086,48.26401138305664
0,274532,-31.14214515686035,3.592317819595337,35.060420989990234,29.034204483032227
0,274533,-31.38510513305664,-0.8631340861320496,-3.831115245819092,-75.50870513916016
0,274536,-9.68795394897461,-39.53533172607422,-9.685824394226074,-16.961336135864258
0,274537,-23.224306106567383,10.468437194824219,-6.607418060302734,66.42644500732422
0,274540,-2.9084208011627197,40.975616455078125,-11.791508674621582,68.35509490966797
0,274541,55.35749053955078,9.88797378540039,15.286164283752441,-71.81302642822266
0,274544,-10.787150382995605,-32.60416030883789,-9.528904914855957,-127.03782653808594
0,274545,-35.384033203125,-23.144412994384766,-40.50778579711914,78.35303497314453
0,274548,16.42969512939453,19.757658004760742,13.88647174835205,39.415592193603516
0,274549,12.581276893615723,4.798583984375,34.78367233276367,-52.7656364440918
0,274552,0.8961395621299744,7.137393474578857,7.79445743560791,70.9482650756836
0,274553,-4.767702579498291,1.3648161888122559,-18.225418090820312,31.662857055664062
0,274556,39.783592224121094,-10.005531311035156,-22.72471046447754,-48.67049026489258
0,274557,15.433708190917969,-22.631620407104492,1.1235105991363525,-9.536334991455078
0,274560,-64.2703628540039,7.045739650726318,35.262535095214844,8.273185729980469
0,274561,-37.734580993652344,47.604984283447266,14.041378021240234,-4.586015224456787
0,274564,-136.96438598632812,-16.186235427856445,-21.634395599365234,8.496631622314453
0,274565,40.0593376159668,-13.599831581115723,-38.18384552001953,-21.158313751220703
0,274568,306.3495788574219,20.974445343017578,-49.213619232177734,-24.36128807067871
0,274569,-61.01422119140625,-15.984160423278809,44.9267463684082,15.520052909851074
0,274572,-155.9017333984375,4.3026580810546875,113.77518463134766,23.59500503540039
0,274573,21.596691131591797,30.159149169921875,57.108489990234375,19.127323150634766
0,274576,38.94829559326172,-34.373207092285156,-178.29039001464844,-56.03822708129883
0,274577,14.450787544250488,-44.300785064697266,-105.98716735839844,-13.556840896606445
0,274580,-13.32247257232666,30.36533546447754,228.18455505371094,65.11672973632812
0,274581,85.7238540649414,24.95711326599121,37.4454231262207,-18.671255111694336
0,274584,38.145938873291016,-36.24317932128906,-197.48243713378906,-38.919158935546875
0,274585,-16.854841232299805,-20.338993072509766,-7.488068103790283,45.586483001708984
0,274588,-161.32394409179688,47.004154205322266,121.80290985107422,21.74871253967285
0,274590,-70.779541015625,36.32479476928711,-19.375524520874023,-38.51495361328125
0,274591,195.20431518554688,-26.037593841552734,-61.95478057861328,-4.673107624053955
0,274594,-83.47844696044922,-0.5664480328559875,28.489774703979492,-8.341154098510742
0,274595,-120.8334732055664,-14.888415336608887,-1.7806490659713745,21.26339340209961
0,274598,87.13720703125,-37.77592086791992,-13.236681938171387,41.77523422241211
0,274599,-0.3601434528827667,13.618700981140137,12.521929740905762,-101.6164321899414
0,274602,-5.954010963439941,34.314857482910156,17.589136123657227,-72.66696166992188
0,274603,45.36602783203125,22.031763076782227,18.7471866607666,138.40859985351562
0,274606,-23.47467803955078,-33.496337890625,-16.595535278320312,108.13308715820312
0,274607,-19.43074607849121,-16.21306800842285,-4.50804328918457,-38.46526336669922
0,274610,70.19114685058594,-7.198204040527344,16.278858184814453,-115.08990478515625
0,274611,15.34133529663086,-15.539168357849121,12.858137130737305,-66.56227111816406
0,274615,-28.414966583251953,32.452545166015625,-1.1620256900787354,97.0427017211914
0,274616,-0.8128513097763062,4.630356311798096,-12.985987663269043,71.14260864257812
0,274617,-8.768277168273926,-0.28636685013771057,-12.308026313781738,-23.413599014282227
0,274620,-17.713855743408203,20.208528518676758,-20.189802169799805,-77.09028625488281
0,274621,11.944342613220215,13.683090209960938,21.57844352722168,11.882889747619629
0,274624,16.2176570892334,-22.60004997253418,11.45277214050293,56.873600006103516
0,274625,-18.16556739807129,-19.18946075439453,-23.315387725830078,-75.1865463256836
0,274628,-7.418526649475098,14.282514572143555,9.356819152832031,24.087017059326172
0,274629,12.51597785949707,6.658703327178955,18.09679412841797,36.31230545043945
0,274632,18.141380310058594,11.804397583007812,6.734986305236816,-3.4837429523468018
0,274633,-19.195287704467773,-33.9997673034668,-26.002914428710938,27.850893020629883
0,274636,21.02656364440918,-3.520024299621582,-20.56109619140625,-64.98509979248047
0,274637,5.392180442810059,33.62981033325195,22.998897552490234,-56.12659454345703
0,274640,-92.8448486328125,-18.834993362426758,-1.147728443145752,83.59395599365234
0,274641,20.251623153686523,-2.9630937576293945,-3.152620792388916,79.91156005859375
0,274644,80.29849243164062,-3.306645393371582,6.190997123718262,-20.798828125
0,274645,3.194300651550293,8.450230598449707,20.470458984375,8.520121574401855
0,274648,-43.19814682006836,11.051606178283691,4.28445291519165,-109.72098541259766
0,274649,-9.501192092895508,-19.085857391357422,-52.93851852416992,-113.08407592773438
0,274652,49.67912292480469,4.50886344909668,50.58694839477539,145.24240112304688
0,274653,11.075796127319336,-4.469438552856445,14.795269966125488,80.28414154052734
0,274656,-79.05659484863281,5.347614288330078,-89.82852935791016,-91.75770568847656
0,274657,-61.53383255004883,25.101093292236328,27.96630096435547,-55.63475036621094
0,274660,93.06108093261719,-13.314889907836914,51.1083869934082,30.175416946411133
0,274661,47.96245574951172,-29.62134552001953,-12.435704231262207,85.49565887451172
0,274664,-61.623023986816406,-19.14999008178711,-19.961578369140625,19.89863395690918
0,274665,-33.51465606689453,28.96753692626953,2.6798934936523438,-68.45301818847656
0,274668,9.563167572021484,39.5472297668457,-46.071197509765625,-1.4288314580917358
0,274669,70.62186431884766,-23.858779907226562,-14.357269287109375,40.94846725463867
0,274672,13.24133014678955,1.131255030632019,102.44052124023438,0.9887697100639343
0,274673,-28.178035736083984,4.049414157867432,27.192588806152344,-23.628141403198242
0,274676,0.43614059686660767,-21.021968841552734,-37.30159378051758,-71.85942077636719
0,274677,-37.75062561035156,3.899965286254883,-48.623294830322266,-19.596261978149414
0,274680,5.887975692749023,-11.02367115020752,-29.22108268737793,89.76119232177734
0,274681,50.704036712646484,38.22453308105469,57.21852493286133,67.02899169921875
0,274684,-26.612096786499023,-7.053594589233398,8.763622283935547,-62.17674255371094
0,274685,-44.88692855834961,-71.71456909179688,-43.65793991088867,-20.48679542541504
0,274688,20.688709259033203,44.688568115234375,18.169401168823242,74.1961669921875
0,274689,20.97399139404297,40.517066955566406,9.56525993347168,-70.56787109375
0,274692,-13.591811180114746,-20.969953536987305,-18.651628494262695,-82.32992553710938
0,274693,-14.850507736206055,-7.436120510101318,9.258505821228027,56.545894622802734
0,274696,4.48702335357666,-14.735579490661621,6.185948848724365,42.183414459228516
0,274697,10.024826049804688,-2.053530693054199,4.086362361907959,0.6569152474403381
0,274700,12.971813201904297,35.58890151977539,19.6280460357666,2.6890456676483154
0,274701,19.35762596130371,20.765716552734375,-0.012896060012280941,-18.370752334594727
0,274704,-18.343374252319336,-47.33759689331055,-16.175546646118164,-42.72802734375
0,274705,-26.618892669677734,-10.01023006439209,-4.689826011657715,-19.279123306274414
0,274708,15.263277053833008,36.24198913574219,-2.590529680252075,31.635068893432617
0,274709,3.2257080078125,-20.050840377807617,-11.279433250427246,26.16530990600586
0,274712,-58.875831604003906,-12.839451789855957,-13.013851165771484,17.794435501098633
0,274713,33.744659423828125,19.506322860717773,-5.457394599914551,12.445764541625977
0,274716,106.83590698242188,-6.405060768127441,45.937313079833984,7.520256519317627
0,274717,-40.50872802734375,-1.965975284576416,67.64811706542969,41.072139739990234
0,274720,-64.68855285644531,30.875926971435547,-69.66338348388672,-56.146175384521484
0,274721,31.517536163330078,-11.179693222045898,-85.01993560791016,-90.75145721435547
0,274724,6.919369220733643,-37.91930389404297,71.55207061767578,75.24494934082031
0,274725,-40.324581146240234,11.839116096496582,27.12822723388672,39.15348434448242
0,274728,43.7235107421875,8.908195495605469,-21.63446617126465,-70.53365325927734
0,274729,47.918601989746094,-6.330297470092773,38.46757507324219,-17.5893611907959
0,274732,3.924213171005249,5.132421970367432,-19.33453369140625,35.70990753173828
0,274733,-17.602935791015625,1.6405484676361084,-86.80177307128906,22.58725929260254
0,274736,-142.22000122070312,11.308320045471191,-5.02968692779541,-16.883825302124023
0,274737,-23.212509155273438,0.9811933040618896,79.35084533691406,20.461410522460938
0,274740,140.53378295898438,-16.631317138671875,-10.420495986938477,73.23213195800781
0,274741,7.616384029388428,13.70296859741211,-9.596179008483887,-43.091270446777344
0,274744,-73.86966705322266,11.820812225341797,27.835533142089844,-150.32603454589844
0,274745,-32.97834396362305,-26.377290725708008,-31.30083656311035,-1.0774506330490112
0,274748,18.642593383789062,-10.47614574432373,10.428438186645508,101.515380859375
0,274749,104.18415069580078,21.50829315185547,20.848569869995117,24.534683227539062
0,274752,15.450216293334961,4.005159378051758,-11.39042854309082,-12.114222526550293
0,274753,-113.92706298828125,-30.106273651123047,-14.8621187210083,-6.2289042472839355
0,274756,-5.664504051208496,-20.09079933166504,-10.163875579833984,23.966815948486328
0,274757,62.9176139831543,23.07713508605957,29.136754989624023,26.259506225585938
0,274760,12.175090789794922,40.75068664550781,9.184127807617188,-57.3795051574707
0,274761,5.699565410614014,10.585859298706055,-28.526391983032227,-31.58053970336914
0,274764,-30.556142807006836,-18.805763244628906,-9.983022689819336,24.97911834716797
0,274765,16.53785514831543,-25.46225929260254,27.885425567626953,9.546578407287598
0,274768,74.86903381347656,-0.9872336983680725,24.21514129638672,-24.84273338317871
0,274769,-77.91465759277344,30.248382568359375,-20.908775329589844,-71.11226654052734
0,274772,-87.77748107910156,-1.4751973152160645,-30.141027450561523,106.23200225830078
0,274773,53.35383605957031,-16.851730346679688,-11.295647621154785,218.39610290527344
0,274776,37.267093658447266,-14.036665916442871,25.318721771240234,-42.450721740722656
0,274777,-4.540346145629883,-28.43235969543457,19.95680046081543,-239.55604553222656
0,274780,6.985922336578369,38.26096725463867,1.9374830722808838,-98.55484771728516
0,274781,-11.079036712646484,48.07896041870117,-7.77393913269043,98.84237670898438
0,274784,-9.090264320373535,-37.83941650390625,-31.89331817626953,70.00121307373047
0,274785,-6.754207134246826,-38.64025115966797,5.562833309173584,-3.391120195388794
0,274788,3.8760733604431152,18.716447830200195,30.018695831298828,12.842561721801758
0,274789,7.20170783996582,36.29771423339844,-16.639902114868164,-19.557828903198242
0,274792,-15.47913646697998,-11.659529685974121,-10.52198600769043,-46.021034240722656
0,274793,-35.31426239013672,-21.313961029052734,36.2923698425293,-2.8870279788970947
0,274796,30.654001235961914,4.664851665496826,-19.639358520507812,19.818710327148438
0,274797,96.49038696289062,-18.333431243896484,-47.90192794799805,10.63027286529541
0,274800,-19.00665283203125,21.542789459228516,36.15370178222656,-4.377681255340576
0,274801,-47.67433166503906,44.195884704589844,56.61829376220703,11.767500877380371
0,274804,-13.993779182434082,-27.9632625579834,-40.973846435546875,38.55265426635742
0,274805,-16.995525360107422,-14.342979431152344,-52.78501510620117,11.451141357421875
0,274808,11.749171257019043,-0.9351153373718262,6.79268217086792,-16.126310348510742
0,274809,17.645910263061523,-25.953773498535156,5.947149753570557,-24.588594436645508
0,274812,8.435033798217773,33.57088851928711,41.93410110473633,-10.407782554626465
0,274813,6.839200496673584,11.306400299072266,47.31889724731445,-14.445850372314453
0,274816,-55.99065399169922,-44.80329132080078,5.6292009353637695,-15.44074821472168
0,274817,-62.79119873046875,39.62714767456055,-16.42473030090332,34.36458969116211
0,274820,104.13890075683594,29.93346405029297,-68.26925659179688,35.186546325683594
0,274821,73.13493347167969,-45.644256591796875,-50.97480010986328,-19.20128631591797
0,274824,-89.77706909179688,-5.577353477478027,41.86565017700195,-5.713830471038818
0,274825,-30.60950469970703,2.5470144748687744,39.597816467285156,32.2132682800293
0,274830,50.79618453979492,-21.65254020690918,-13.053250312805176,-32.058197021484375
0,274830,15.281745910644531,23.189634323120117,-15.201606750488281,-25.244613647460938
0,274832,-11.555389404296875,45.92998504638672,10.773265838623047,-17.139894485473633
0,274833,-25.32718276977539,-48.55230712890625,-12.862750053405762,-49.20866012573242
0,274836,26.372304916381836,-27.307422637939453,-22.31585121154785,57.961524963378906
0,274837,63.50844192504883,47.33015441894531,16.457834243774414,88.97311401367188
0,274840,-108.76686096191406,10.837373733520508,87.34090423583984,-8.582610130310059
0,274841,-70.17256927490234,-14.816951751708984,34.71778106689453,-66.44258117675781
0,274844,80.17969512939453,-38.80093002319336,-112.82451629638672,-64.49285125732422
0,274845,1.788147211074829,16.81443214416504,-27.03009033203125,68.41896057128906
0,274848,35.80734634399414,17.31281280517578,60.75160598754883,76.95431518554688
0,274849,38.682579040527344,-9.39162826538086,-3.4721193313598633,-76.04718780517578
0,274852,-46.830223083496094,41.02642059326172,-36.37251663208008,-19.922639846801758
0,274853,-42.03484344482422,-11.641082763671875,-13.914512634277344,44.337745666503906
0,274856,-9.295083045959473,-30.14481544494629,90.76702880859375,5.774765491485596
0,274857,15.806315422058105,-1.8352075815200806,46.90092849731445,16.32990837097168
0,274860,23.238937377929688,-6.639602184295654,-168.20843505859375,-37.27011489868164
0,274861,85.46176147460938,11.323138236999512,-44.072757720947266,-68.94818878173828
0,274864,25.193452835083008,-5.2166595458984375,149.79481506347656,35.57272720336914
0,274865,-67.07295227050781,21.76845359802246,34.86410903930664,50.231964111328125
0,274868,-79.52515411376953,9.124456405639648,-50.41778564453125,16.32405662536621
0,274869,-111.89651489257812,-39.883506774902344,-6.857095241546631,1.6984957456588745
0,274872,103.9646224975586,10.952974319458008,-16.71533203125,-48.168067932128906
0,274873,134.40054321289062,12.974894523620605,-38.312931060791016,-50.166961669921875
0,274876,-53.07967758178711,3.076371908187866,12.727145195007324,10.188200950622559
0,274877,-50.16917037963867,-5.203545570373535,-9.778059959411621,50.498130798339844
0,274880,-40.592552185058594,-10.580953598022461,-18.747976303100586,47.45042419433594
0,274881,41.47364807128906,-2.0717811584472656,45.2407112121582,5.26047420501709
0,274884,63.20777893066406,-16.32767105102539,61.45036697387695,-52.80596923828125
0,274885,-64.35161590576172,5.240612983703613,32.85740661621094,-17.495874404907227
0,274888,-46.50028991699219,34.25479507446289,-55.6467170715332,17.496532440185547
0,274889,60.26932144165039,24.674224853515625,-81.7459945678711,-13.888456344604492
0,274892,23.897403717041016,-26.676849365234375,8.882192611694336,5.116804122924805
0,274893,-25.65123748779297,-21.24633026123047,33.83639144897461,48.199710845947266
0,274896,24.31960105895996,-11.49639892578125,3.1640450954437256,-42.81886672973633
0,274897,-3.908156394958496,5.633350372314453,26.52545928955078,-62.7833251953125
0,274900,-21.928014755249023,37.13031005859375,25.44325828552246,63.932430267333984
0,274901,21.906288146972656,-3.477750778198242,-36.75770568847656,64.9019775390625
0,274904,-40.111331939697266,-28.680299758911133,-53.5728645324707,-38.54441452026367
0,274905,-8.990507125854492,-12.2197847366333,17.90213394165039,-82.17174530029297
0,274908,52.80888366699219,14.844742774963379,52.399253845214844,37.62742233276367
0,274909,13.892194747924805,-0.052616190165281296,-0.1584956794977188,57.7796630859375
0,274912,-15.904706001281738,-10.163941383361816,-14.495113372802734,-78.80536651611328
0,274913,-17.77825164794922,31.52104949951172,-0.9979763031005859,5.779911518096924
0,274916,4.217715740203857,4.1889472007751465,6.082857608795166,128.80030822753906
0,274917,-27.80625343322754,-38.20770263671875,13.0172700881958,19.359729766845703
0,274920,-1.6938942670822144,3.9437921047210693,-29.171342849731445,-148.65118408203125
0,274921,18.170618057250977,35.68394088745117,-44.40180587768555,-85.93827056884766
0,274924,-18.53384780883789,2.462343215942383,13.285783767700195,136.8887939453125
0,274925,10.111512184143066,-21.088109970092773,19.79863929748535,80.47467803955078
0,274928,-26.78388214111328,-5.233768463134766,16.942893981933594,-69.86905670166016
0,274929,32.12956619262695,1.3542933464050293,24.97587013244629,-38.20810317993164
0,274932,77.59095764160156,30.090023040771484,-46.86511993408203,-13.171432495117188
0,274933,-67.87974548339844,13.683246612548828,-53.30157470703125,5.2167463302612305
0,274936,5.814119815826416,-59.573001861572266,113.04034423828125,14.946374893188477
0,274937,96.20743560791016,-27.740985870361328,129.1290740966797,3.9714486598968506
0,274940,-113.86447143554688,50.54724884033203,-136.93582153320312,8.58396053314209
0,274941,-79.88986206054688,27.130420684814453,-162.59889221191406,3.702948570251465
0,274944,112.08167266845703,-43.60323715209961,81.5098876953125,-29.928661346435547
0,274945,9.055702209472656,-27.36455535888672,65.4657974243164,-2.0991129875183105
0,274948,-52.1153450012207,22.789247512817383,-37.88926696777344,24.147201538085938
0,274949,-19.564329147338867,38.78183364868164,20.530061721801758,-32.0926513671875
0,274952,40.903873443603516,16.929536819458008,13.783617973327637,27.292747497558594
0,274953,17.331411361694336,-42.74386978149414,-59.87175750732422,90.13335418701172
0,274956,-72.32294464111328,-38.942169189453125,-7.613391399383545,-56.05915451049805
0,274957,-18.34496307373047,27.837604522705078,115.509033203125,-126.3509750366211
0,274960,96.5136489868164,31.745532989501953,-24.896465301513672,51.0592155456543
0,274961,82.26057434082031,-10.625904083251953,-128.16957092285156,84.86294555664062
0,274964,-115.1980209350586,22.37272071838379,76.06751251220703,-41.77641677856445
0,274965,-25.407567977905273,19.525188446044922,72.87272644042969,-14.297431945800781
0,274968,101.85704040527344,-60.131996154785156,-41.77030944824219,51.728431701660156
0,274969,14.002286911010742,-22.744783401489258,35.66944122314453,9.167497634887695
0,274972,-36.20111083984375,41.121524810791016,-9.05484676361084,-33.894554138183594
0,274973,-101.51207733154297,7.994051933288574,-89.6256332397461,-8.853837013244629
0,274976,-9.228615760803223,-20.063140869140625,0.9369849562644958,-30.42917251586914
0,274977,28.44964027404785,-18.393770217895508,10.949984550476074,-43.40958023071289
0,274980,16.835065841674805,23.66350746154785,22.89883804321289,35.5958137512207
0,274981,47.34736633300781,13.10009479522705,55.60089874267578,40.21479797363281
0,274984,-39.075809478759766,-35.2438850402832,-19.447853088378906,8.447729110717773
0,274985,-47.39140701293945,5.965382099151611,-47.399253845214844,11.046346664428711
0,274988,44.822078704833984,17.872018814086914,-4.05991792678833,-3.5583999156951904
0,274989,75.77251434326172,-24.32536506652832,10.101943969726562,-5.0958662033081055
0,274992,-20.120450973510742,2.5562002658843994,-5.54060173034668,6.161531448364258
0,274993,-78.4375991821289,51.48797607421875,49.20881652832031,8.901040077209473
0,274996,-20.367734909057617,1.1460915803909302,20.4915714263916,-27.873065948486328
0,274997,52.13710021972656,-26.632246017456055,-35.808292388916016,-27.167499542236328
0,275000,78.77261352539062,2.5931060314178467,0.5773049592971802,49.53568649291992
0,275001,-8.600922584533691,-7.574005126953125,-29.221830368041992,26.679780960083008
0,275004,-95.56450653076172,-17.938108444213867,-11.103821754455566,-59.164329528808594
0,275005,-16.95106315612793,-3.364447593688965,26.886436462402344,-43.230674743652344
0,275008,44.43418502807617,6.159092426300049,3.6001667976379395,37.841224670410156
0,275009,12.209797859191895,9.56999397277832,-0.6369017362594604,23.735193252563477
0,275012,-11.803254127502441,9.51788330078125,0.30449801683425903,-55.567909240722656
0,275013,-34.307430267333984,-9.481562614440918,11.02818489074707,-3.4644076824188232
0,275016,39.576202392578125,6.012663841247559,-6.56218957901001,47.066131591796875
0,275017,91.41727447509766,13.744817733764648,-34.946861267089844,40.04804611206055
0,275020,-54.7468376159668,12.040482521057129,-0.8228132724761963,-1.111446738243103
0,275021,-59.308197021484375,2.533571243286133,26.591564178466797,-60.365150451660156
0,275024,11.263816833496094,-40.96489715576172,55.9796142578125,7.596522331237793
0,275025,-71.48117065429688,-25.094871520996094,36.61800765991211,26.532825469970703
0,275028,59.35057067871094,34.1279296875,-110.80811309814453,-21.48594093322754
0,275029,88.27814483642578,30.889822006225586,-85.94171142578125,-27.32509994506836
0,275032,-60.76192092895508,-2.2298758029937744,61.43634033203125,3.837204933166504
0,275033,-27.466285705566406,-25.221975326538086,18.49587631225586,49.84644317626953
0,275036,-19.8153133392334,-18.866851806640625,73.87824249267578,6.207420825958252
0,275037,17.54784393310547,20.97959327697754,133.4476776123047,-14.793734550476074
0,275040,65.17535400390625,-5.273989677429199,-135.9432830810547,-19.08971405029297
0,275041,-10.855318069458008,8.389904022216797,-176.86154174804688,-25.330026626586914
0,275044,-74.8532943725586,11.358514785766602,84.99227905273438,27.693368911743164
0,275045,-2.184140682220459,-26.116079330444336,73.99803161621094,44.019126892089844
0,275048,84.02726745605469,-2.071624755859375,-47.880218505859375,11.287538528442383
0,275049,23.12565040588379,15.298344612121582,15.005648612976074,-38.24826431274414
0,275052,-63.64151382446289,12.312797546386719,21.7745361328125,-24.485549926757812
0,275053,26.673078536987305,-17.906644821166992,-70.3607406616211,-12.306077003479004
0,275057,14.777640342712402,-19.674365997314453,24.80573272705078,11.99759578704834
0,275058,-111.0007095336914,-0.6107156872749329,56.261234283447266,36.109832763671875
0,275059,44.422523498535156,11.551251411437988,-36.16969680786133,-12.892730712890625
0,275062,120.9239273071289,23.677913665771484,10.054702758789062,16.108007431030273
0,275063,-51.38145446777344,6.46495246887207,11.62057876586914,-0.20967793464660645
0,275066,-89.51934051513672,-28.181015014648438,-13.669191360473633,-49.20781326293945
0,275067,24.909090042114258,-10.348516464233398,19.199609756469727,11.231417655944824
0,275070,10.225729942321777,18.703367233276367,-0.8015329241752625,22.534517288208008
0,275071,-18.259937286376953,11.550321578979492,-14.194966316223145,-3.751171350479126
0,275074,32.81619644165039,-11.099783897399902,20.312116622924805,7.442142963409424
0,275075,26.864532470703125,-49.356773376464844,-1.3267021179199219,5.806731700897217
0,275078,-10.994485855102539,10.842307090759277,-94.48822784423828,-1.9693446159362793
0,275079,-75.01988983154297,78.61503601074219,-49.79765319824219,-19.985572814941406
0,275082,8.791300773620605,1.7194201946258545,160.47491455078125,-23.949626922607422
0,275083,87.05398559570312,-52.222679138183594,138.20016479492188,25.21465301513672
0,275086,46.48969650268555,9.644545555114746,-74.0460433959961,18.716157913208008
0,275087,-71.60003662109375,31.001394271850586,-124.10382080078125,-35.74570083618164
0,275090,-89.79063415527344,-17.664113998413086,-43.99722671508789,-7.096656799316406
0,275091,76.82532501220703,-37.380882263183594,7.9534454345703125,28.819114685058594
0,275094,47.027000427246094,3.8147172927856445,25.602947235107422,12.174311637878418
0,275095,-26.736337661743164,28.71923065185547,33.28709030151367,-13.743490219116211
0,275098,-26.703922271728516,-6.795288562774658,-3.5001559257507324,-1.5119446516036987
0,275099,-0.19025149941444397,1.8397622108459473,-13.861581802368164,6.539435863494873
0,275102,25.270151138305664,8.361873626708984,-3.1082253456115723,-18.667457580566406
0,275103,-18.7794132232666,-20.329418182373047,10.438547134399414,6.840139865875244
0,275106,-38.02777099609375,-26.883150100708008,-28.89097785949707,20.001041412353516
0,275107,-3.0046675205230713,5.814248085021973,-21.299673080444336,-15.666167259216309
0,275110,64.84064483642578,36.803924560546875,93.25782012939453,-6.678760528564453
0,275111,-4.987226963043213,42.230567932128906,76.84234619140625,22.2596378326416
0,275114,-43.861717224121094,9.543848037719727,-36.526710510253906,8.410822868347168
0,275115,79.99102783203125,-73.90760040283203,-61.17060089111328,-13.692647933959961
0,275118,-25.63158416748047,-36.16051483154297,-40.90333938598633,-22.650686264038086
0,275119,-89.85552215576172,38.584415435791016,-13.504589080810547,-0.02238447032868862
0,275122,34.162296295166016,23.9591064453125,16.57012367248535,22.732511520385742
0,275123,-39.20988082885742,17.523372650146484,-0.09138346463441849,19.35123634338379
0,275126,51.03666305541992,-15.640007972717285,-3.9604055881500244,0.4464394152164459
0,275127,110.11833953857422,-29.16155433654785,25.63858413696289,-31.813989639282227
0,275130,-75.96210479736328,-3.0407509803771973,53.066104888916016,-22.979476928710938
0,275131,-29.54591178894043,12.6395902633667,-11.579648971557617,0.8175128102302551
0,275134,3.402501106262207,22.287853240966797,-55.311500549316406,28.419466018676758
0,275135,-38.200164794921875,-24.992042541503906,4.812743186950684,1.512567400932312
0,275138,37.28995132446289,-31.236101150512695,16.667749404907227,-41.0058708190918
0,275139,44.061466217041016,40.75536346435547,-4.028017044067383,13.994865417480469
0,275142,-23.149288177490234,38.93195724487305,-9.131051063537598,30.66281509399414
0,275143,-31.474441528320312,-43.04123306274414,-10.760676383972168,15.114114761352539
0,275146,-58.55350112915039,-22.35503578186035,-17.471595764160156,12.828877449035645
0,275147,1.731671929359436,36.57808303833008,1.5434775352478027,-30.417158126831055
0,275150,226.30203247070312,-2.1792373657226562,82.88080596923828,-34.353187561035156
0,275151,112.82160186767578,4.125163555145264,67.94039916992188,14.6290922164917
0,275154,-250.2762908935547,-16.724449157714844,-113.63911437988281,53.664794921875
0,275155,-191.78433227539062,-22.153154373168945,-81.16340637207031,63.29888153076172
0,275158,69.21607208251953,37.182403564453125,77.3338394165039,-47.247596740722656
0,275159,100.06623077392578,0.08201408386230469,-7.684850692749023,-114.0805435180664
0,275162,49.21823501586914,6.260905742645264,9.915271759033203,-2.7680115699768066
0,275163,40.689483642578125,2.2637321949005127,31.81772232055664,49.78445053100586
0,275166,-61.235477447509766,-48.58856964111328,-57.206085205078125,40.19701385498047
0,275167,-111.14498901367188,-2.4087114334106445,16.679224014282227,-5.959378242492676
0,275170,22.18313980102539,49.22161865234375,32.427242279052734,-37.90998840332031
0,275171,18.30591583251953,21.009401321411133,-32.10044479370117,-11.336633682250977
0,275174,20.585634231567383,-42.61724090576172,-18.33867073059082,2.582899808883667
0,275175,75.73353576660156,-27.106386184692383,28.341970443725586,23.197839736938477
0,275178,5.112736225128174,24.991676330566406,14.777162551879883,11.891136169433594
0,275179,-17.296358108520508,8.496575355529785,-20.440555572509766,1.138361930847168
0,275182,2.778980016708374,1.8715764284133911,8.37143611907959,-0.41099968552589417
0,275183,-20.890335083007812,8.06491756439209,24.63799285888672,-2.7784831523895264
0,275186,-34.21657943725586,-30.713300704956055,-25.63249397277832,-8.845404624938965
0,275187,8.761773109436035,-10.770824432373047,-28.440397262573242,-6.74465274810791
0,275190,12.963115692138672,46.765869140625,49.30741500854492,3.5814313888549805
0,275191,-18.47027015686035,33.092960357666016,21.6328182220459,-20.31017303466797
0,275194,8.41671371459961,-19.24304962158203,-64.60848999023438,16.291873931884766
0,275195,7.868699073791504,-51.868629455566406,-27.139503479003906,28.8892822265625
0,275198,-10.72265625,-31.97207260131836,31.090028762817383,-36.478736877441406
0,275199,38.029823303222656,48.56511306762695,36.20166778564453,12.324256896972656
0,275202,16.999683380126953,31.958101272583008,-5.125090599060059,23.506399154663086
0,275203,-33.75630569458008,-39.48360061645508,-23.266170501708984,-28.17185401916504
0,275206,-23.110605239868164,-1.897068738937378,10.938011169433594,-4.441110134124756
0,275207,-19.201753616333008,-1.788983941078186,-1.600365400314331,1.1929748058319092
0,275210,38.118568420410156,-1.2874149084091187,-31.14096450805664,21.297637939453125
0,275211,4.845646858215332,29.251996994018555,-15.41109561920166,4.654417514801025
0,275214,-30.70659637451172,5.07110071182251,6.516695976257324,1.966401219367981
0,275215,71.41059112548828,-21.05792808532715,36.262996673583984,-7.522118091583252
0,275218,-6.907764911651611,-23.677488327026367,47.94160842895508,-59.17155075073242
0,275219,-61.467132568359375,26.378870010375977,-2.1423912048339844,46.76691436767578
0,275222,-37.07109069824219,38.71702575683594,-8.833916664123535,54.133296966552734
0,275223,-40.936988830566406,-34.17882537841797,-13.233330726623535,-75.77002716064453
0,275226,123.8875732421875,-35.199615478515625,-43.761043548583984,5.219311237335205
0,275227,51.8972282409668,16.73565673828125,-8.562167167663574,65.26289367675781
0,275230,-79.75066375732422,31.286468505859375,-13.96238899230957,-14.113395690917969
0,275231,15.288421630859375,-0.15480034053325653,-35.659934997558594,-30.36073875427246
0,275234,-54.663516998291016,-12.139374732971191,103.28085327148438,-24.815950393676758
0,275235,-43.96674346923828,-7.799776554107666,184.1875,27.097105026245117
0,275238,110.0237808227539,-19.005197525024414,-125.41918182373047,0.18918068706989288
0,275239,21.198293685913086,37.567108154296875,-251.0443878173828,-72.97344207763672
0,275242,-42.59744644165039,12.313655853271484,88.14234161376953,57.85160827636719
0,275243,35.51290512084961,-33.01994323730469,128.0790252685547,67.25031280517578
0,275246,-17.450420379638672,4.249392509460449,-29.07029151916504,-62.623382568359375
0,275247,-75.0921630859375,1.968939185142517,-11.182672500610352,-15.01087760925293
0,275250,-27.34497833251953,-13.600336074829102,-28.870203018188477,29.243181228637695
0,275251,27.33156967163086,17.67974090576172,-26.80043601989746,-1.0924367904663086
0,275254,28.583154678344727,24.021503448486328,54.77060317993164,-8.88533878326416
0,275255,33.627479553222656,-30.48653793334961,20.415542602539062,-3.2341020107269287
0,275258,2.4491899013519287,-14.871034622192383,-19.2420654296875,32.31334686279297
0,275259,-23.266263961791992,6.726918697357178,-8.484573364257812,-2.909287929534912
0,275262,25.957849502563477,11.064435005187988,-23.666046142578125,-49.12714767456055
0,275263,38.5445556640625,7.431075096130371,35.24711227416992,-1.1715731620788574
0,275266,-47.00811767578125,-28.882644653320312,23.70628547668457,10.094353675842285
0,275267,-52.631004333496094,-0.34570392966270447,-29.399417877197266,37.68671798706055
0,275270,33.367435455322266,31.11286163330078,-3.9765784740448,10.184855461120605
0,275271,31.808086395263672,-2.9529173374176025,-25.439777374267578,-50.12236785888672
0,275274,14.907013893127441,-19.7569522857666,-15.750136375427246,14.206411361694336
0,275275,-14.276871681213379,13.805928230285645,50.92236328125,12.289145469665527
0,275278,-7.427864074707031,16.051393508911133,35.803768157958984,-4.755929946899414
0,275279,-10.59557056427002,-13.18659496307373,0.7728670239448547,24.68349266052246
0,275282,-56.02180099487305,-2.1417477130889893,-30.50921058654785,-6.575570106506348
0,275283,16.199769973754883,13.309252738952637,-83.05685424804688,-27.659597396850586
0,275286,59.05256271362305,-18.394081115722656,19.381587982177734,4.835675239562988
0,275287,1.20595121383667,-32.97438049316406,101.69385528564453,23.23692512512207
0,275290,-8.1683988571167,33.22209167480469,-45.293548583984375,-29.718969345092773
0,275291,-24.80489730834961,26.3442440032959,-42.70699691772461,-11.466459274291992
1,275297,-2.069622755050659,-35.024906158447266,33.340293884277344,30.097797393798828
1,275297,28.413576126098633,-2.8096938133239746,-20.33063316345215,-20.168027877807617
1,275298,-27.287662506103516,16.32213020324707,-29.579084396362305,-22.95792579650879
1,275299,15.482863426208496,3.8057265281677246,5.463954448699951,4.693490982055664
1,275302,12.964096069335938,-7.913435459136963,84.79071807861328,42.185611724853516
1,275303,-87.7540512084961,-7.608475685119629,59.55043029785156,69.47830963134766
1,275306,14.897501945495605,-2.695901393890381,-107.1227798461914,-39.50091552734375
1,275307,103.24810028076172,-10.051615715026855,-47.1390380859375,-75.19892120361328
1,275310,-24.342247009277344,12.49818229675293,87.20854949951172,-45.428680419921875
1,275311,-41.037662506103516,21.58299446105957,-30.453184127807617,-12.235579490661621
1,275566,85.92887115478516,25.43318748474121,-52.90300750732422,118.62306213378906
1,275568,-13.922391891479492,-5.661661624908447,38.864627838134766,17.274951934814453
1,275569,-134.1339111328125,-53.842430114746094,0.7205435633659363,-68.08316802978516
1,275572,14.541467666625977,-41.8530387878418,5.015492916107178,25.650114059448242
1,275573,45.88688278198242,-9.95715618133545,30.84037208557129,2.2222254276275635
1,275576,-26.65018653869629,52.32282257080078,-26.229663848876953,-21.040111541748047
1,275577,21.26303482055664,53.28960037231445,-23.27567481994629,6.843292713165283
1,276356,22.622255325317383,10.82254409790039,8.202540397644043,29.91083335876465
1,276357,37.203128814697266,-8.994243621826172,-11.468255043029785,-4.005804061889648
1,276360,21.634653091430664,11.908395767211914,84.4046859741211,-39.88957595825195
1,276361,24.359560012817383,7.200903415679932,68.82514190673828,14.50322151184082
1,276364,8.568857192993164,-65.69389343261719,-126.5700912475586,40.20952606201172
1,276365,-142.56015014648438,-36.30531692504883,-57.811561584472656,6.016250133514404
1,276368,-54.43949508666992,8.176003456115723,42.446773529052734,-19.723630905151367
1,276369,56.014286041259766,19.957664489746094,-14.548194885253906,-51.45646286010742
1,276372,36.90165710449219,29.348543167114258,22.694705963134766,-23.02413558959961
1,276373,37.22955322265625,-13.133345603942871,42.92910385131836,22.142473220825195
1,276376,0.8520709872245789,1.3532497882843018,-8.491869926452637,35.981849670410156
1,276377,-19.509740829467773,38.125308990478516,6.65824556350708,41.594520568847656
1,276380,-39.599815368652344,-63.96942901611328,-36.954952239990234,-39.719764709472656
1,276382,-25.847497940063477,-9.7205810546875,-53.736602783203125,-32.23588562011719
1,276383,35.62181091308594,87.11249542236328,42.38610076904297,45.861419677734375
1,276386,49.920780181884766,-39.013370513916016,20.499422073364258,-9.965459823608398
1,276387,44.13134002685547,-13.988792419433594,-7.867602825164795,-26.857465744018555
1,276390,-30.4945125579834,17.612348556518555,-0.15150336921215057,4.77079439163208
1,276391,-55.198638916015625,-44.592620849609375,-23.099552154541016,11.909872055053711
1,276394,46.965877532958984,9.556241035461426,5.166717529296875,62.73171615600586
1,276395,-16.63669776916504,47.925018310546875,47.72715377807617,35.836639404296875
1,276398,-47.06928253173828,-14.748493194580078,24.428678512573242,-82.31700897216797
1,276399,18.61353874206543,-21.053850173950195,-49.170997619628906,-82.6103515625
1,276402,18.346769332885742,22.974977493286133,-34.41498565673828,25.826160430908203
1,276403,75.3641128540039,9.314827919006348,35.981258392333984,46.588706970214844
1,276407,-66.67530822753906,-17.810300827026367,16.937976837158203,21.214046478271484
1,276407,-172.00843811035156,-13.847620964050293,-6.8997907638549805,7.760608196258545
1,276410,116.10533142089844,12.243905067443848,-22.01518440246582,-60.6746826171875
1,276411,134.5455322265625,6.564461708068848,-31.126314163208008,-17.531272888183594
1,276414,-78.58997344970703,-8.162434577941895,29.63077735900879,35.70159149169922
1,276415,-34.376895904541016,2.3138697147369385,31.631757736206055,-16.289615631103516
1,276418,43.963829040527344,14.315130233764648,2.2564589977264404,21.525653839111328
1,276419,6.907360553741455,-2.7859947681427,27.69243812561035,39.46798324584961
1,276422,-59.08035659790039,-17.364370346069336,-52.004825592041016,-26.989416122436523
1,276423,-27.43478012084961,-6.9803547859191895,-80.88868713378906,-40.84115982055664
1,276426,46.91484451293945,-8.212396621704102,49.945430755615234,42.04454040527344
1,276427,6.522207736968994,-17.75970458984375,47.545127868652344,26.275279998779297
1,276430,9.75278377532959,24.39561653137207,30.74211311340332,-71.52061462402344
1,276431,19.66912269592285,27.732421875,1.5804450511932373,-0.4892898201942444
1,276434,-46.2078971862793,-22.656455993652344,-81.32897186279297,54.050777435302734
1,276435,-13.308910369873047,0.5991445779800415,-13.913890838623047,2.3267621994018555
1,276438,50.217769622802734,27.07245445251465,63.496063232421875,-30.024154663085938
1,276439,-6.194995403289795,10.675251960754395,19.645160675048828,-28.448911666870117
1,276442,-21.481569290161133,-33.7733154296875,-51.60199737548828,40.070655822753906
1,276443,31.251832962036133,-22.325698852539062,-3.445490837097168,42.22327423095703
1,276446,-2.0765957832336426,11.755912780761719,26.545875549316406,-28.873157501220703
1,276447,-9.28864574432373,-23.23298454284668,-14.755935668945312,-13.205867767333984
1,276450,-46.14236831665039,6.304971694946289,-0.06330156326293945,0.5587152242660522
1,276451,1.4599976539611816,45.302513122558594,-29.141498565673828,-13.967083930969238
1,276454,73.819091796875,10.221814155578613,41.48037338256836,4.924671649932861
1,276455,-24.257463455200195,-39.51961898803711,87.67668151855469,27.766765594482422
1,276458,-37.42763900756836,4.24619722366333,-71.28492736816406,-18.057458877563477
1,276459,18.771223068237305,42.9417724609375,-70.89418029785156,-33.32607650756836
1,276462,-8.352950096130371,-24.217243194580078,39.32309341430664,33.34309387207031
1,276463,-17.597896575927734,-27.276622772216797,4.771170139312744,6.885416030883789
1,276466,33.28054428100586,10.428558349609375,-18.343074798583984,-45.506370544433594
1,276467,41.993858337402344,6.752536296844482,43.076194763183594,-6.501458168029785
1,276470,3.817542552947998,6.202536582946777,-27.034347534179688,48.4329719543457
1,276471,-51.274959564208984,8.977190971374512,-57.32329559326172,23.099538803100586
1,276473,-21.073102951049805,-24.4315128326416,24.826492309570312,-5.730316638946533
1,276476,44.61189270019531,-8.147801399230957,27.554597854614258,-9.692070007324219
1,276477,19.34090805053711,30.13062858581543,35.381229400634766,-19.761314392089844
1,276480,-54.44158172607422,3.3961541652679443,-19.86005401611328,-20.427722930908203
1,276481,-38.16763687133789,-24.00922203063965,-30.56534767150879,-23.142196655273438
1,276484,96.91667175292969,14.12672233581543,84.30812072753906,56.412574768066406
1,276485,12.746719360351562,7.867682456970215,20.598739624023438,58.2473258972168
1,276488,-114.76284790039062,-34.05142593383789,-88.02751159667969,-57.486515045166016
1,276489,0.3495509624481201,8.589277267456055,-1.340868592262268,-28.10816192626953
1,276492,8.518472671508789,29.441503524780273,66.31491088867188,22.987430572509766
1,276493,-4.690263748168945,-26.528133392333984,-27.501493453979492,-7.053547382354736
1,276496,112.89551544189453,-35.46441650390625,-76.06622314453125,7.139120101928711
1,276497,41.137107849121094,30.885696411132812,4.512063980102539,0.9790798425674438
1,276500,-94.5213394165039,29.987031936645508,35.41652297973633,-34.70221710205078
1,276501,-36.630271911621094,4.905238628387451,17.621065139770508,18.9014892578125
1,276504,16.33808708190918,-32.56832504272461,-31.44716453552246,86.63924407958984
1,276505,-23.77032470703125,-3.05024790763855,-3.327059745788574,10.465149879455566
1,276508,-7.462286949157715,43.79491424560547,59.90218734741211,-108.93205261230469
1,276509,63.154972076416016,-29.27290916442871,-7.147700309753418,-38.30153274536133
1,276512,74.13253021240234,-7.822056770324707,-20.525379180908203,31.816362380981445
1,276513,16.430408477783203,21.92871856689453,-9.389815330505371,-0.7978182435035706
1,276516,-100.55841827392578,-27.8957462310791,-68.6573257446289,71.60942077636719
1,276517,-80.40072631835938,-7.639770030975342,27.736528396606445,44.62113952636719
1,276520,42.44950485229492,29.455034255981445,97.8868637084961,-114.19873046875
1,276521,-37.396026611328125,9.412755966186523,-25.39430809020996,-59.635684967041016
1,276524,13.82021713256836,-19.253984451293945,43.572914123535156,84.23153686523438
1,276525,103.11054229736328,-6.2502827644348145,123.55037689208984,20.705900192260742
1,276528,-0.675134539604187,9.847115516662598,-139.96505737304688,-36.07255554199219
1,276529,-4.87981653213501,-2.202425956726074,-287.5741271972656,0.009090228006243706
1,276532,-19.224580764770508,6.452006816864014,-85.70755767822266,4.1320319175720215
1,276533,-36.965328216552734,8.429855346679688,170.8245086669922,11.242481231689453
1,276536,17.949934005737305,-23.933866500854492,262.2269287109375,42.29111862182617
1,276537,50.34762954711914,-11.250384330749512,31.6517276763916,-22.38993263244629
1,276540,-35.76732635498047,7.4980878829956055,-117.6517333984375,-12.967925071716309
1,276541,-45.88588333129883,21.55205535888672,-0.9992957711219788,113.8541488647461
1,276544,-48.91814422607422,19.09614372253418,28.9574031829834,-70.2379150390625
1,276545,-43.17332077026367,-14.45615005493164,7.819755554199219,-147.40182495117188
1,276548,76.62889862060547,-9.425454139709473,-35.12738037109375,61.32508087158203
1,276549,-3.1282236576080322,-7.7641682624816895,-45.43793487548828,40.27838134765625
1,276552,69.35676574707031,-15.140579223632812,4.496446132659912,11.04294204711914
1,276553,90.4075927734375,-3.2815778255462646,11.21285343170166,77.3735122680664
1,276556,-147.6866912841797,14.389174461364746,21.550561904907227,-86.28057861328125
1,276558,-41.61164474487305,9.659578323364258,54.611576080322266,-120.93790435791016
1,276559,100.58792877197266,10.676854133605957,-10.28659725189209,64.85784149169922
1,276562,2.359699010848999,-2.3292953968048096,-127.476806640625,50.07017517089844
1,276563,-31.34429931640625,-27.22539710998535,-42.16903305053711,15.165006637573242
1,276566,14.932204246520996,-21.666322708129883,-33.07939910888672,4.767202854156494
1,276567,21.830690383911133,22.65582275390625,-91.14403533935547,-15.666851043701172
1,276570,5.5312347412109375,34.351505279541016,158.46148681640625,24.553518295288086
1,276571,-6.399319171905518,1.9150733947753906,213.59080505371094,-13.92258071899414
1,276574,-36.66208267211914,-1.7473180294036865,-14.160284996032715,-24.087841033935547
1,276575,-36.09947204589844,-13.356498718261719,-67.95549011230469,19.53923225402832
1,276578,-4.9912190437316895,11.859949111938477,-37.38570022583008,2.5491275787353516
1,276579,5.4114670753479,3.359391212463379,-32.320098876953125,-29.818391799926758
1,276582,34.98570251464844,-48.20401382446289,-12.82669734954834,-28.842082977294922
1,276583,81.97474670410156,14.899070739746094,41.60508346557617,40.71017837524414
1,276586,-6.067094802856445,18.36141586303711,20.599428176879883,44.16130447387695
1,276587,-106.90592956542969,-36.48484802246094,-19.024030685424805,-37.398563385009766
1,276590,-42.04355239868164,32.166221618652344,-1.7447471618652344,-7.294545650482178
1,276591,53.7518424987793,16.656536102294922,-30.796192169189453,43.02383804321289
1,276594,24.47296142578125,-40.144935607910156,4.234190940856934,-19.640474319458008
1,276595,-30.72095489501953,20.095502853393555,21.05161476135254,-37.15871810913086
1,276598,49.217063903808594,9.552753448486328,11.745349884033203,-39.131065368652344
1,276599,-35.552982330322266,14.812182426452637,9.25580883026123,13.059301376342773
1,276602,-9.21321964263916,28.998870849609375,-122.8844985961914,138.30096435546875
1,276603,136.40243530273438,-80.68106079101562,-85.83944702148438,13.704426765441895
1,276606,-109.40974426269531,-19.626184463500977,152.78433227539062,-112.54568481445312
1,276607,-95.76083374023438,75.00250244140625,179.05409240722656,-38.316162109375
1,276610,109.66252899169922,-10.717386245727539,-58.09807586669922,22.94485855102539
1,276611,2.6977999210357666,-30.58448600769043,-150.2249755859375,8.193302154541016
1,276614,-12.192422866821289,32.05992126464844,2.3886468410491943,7.549874782562256
1,276615,35.65507888793945,0.4910242259502411,15.127896308898926,73.01118469238281
1,276618,-64.54576873779297,-43.011905670166016,31.4776611328125,-6.990604877471924
1,276619,-31.685134887695312,9.884993553161621,61.32127380371094,-53.57255935668945
1,276622,-3.852574110031128,27.58753776550293,-55.465450286865234,1.4548228979110718
1,276623,39.23178482055664,-13.553299903869629,-113.5511245727539,-26.479394912719727
1,276626,117.51820373535156,-5.973810195922852,-65.29621124267578,-8.85384464263916
1,276627,-38.086875915527344,9.306893348693848,80.82048034667969,13.085662841796875
1,276630,-94.66934967041016,-7.1083879470825195,183.20846557617188,18.681621551513672
1,276631,-31.81104850769043,0.24557770788669586,52.75289535522461,-24.684860229492188
1,276634,80.93489837646484,-0.8510637283325195,-77.24938201904297,-37.58235168457031
1,276635,73.25711059570312,2.6715621948242188,36.44160842895508,31.571685791015625
1,276638,-76.44305419921875,16.73299789428711,73.90982818603516,46.51885223388672
1,276639,-40.96446228027344,-18.33954429626465,-121.8715591430664,20.498050689697266
1,276642,8.727117538452148,-8.828492164611816,-275.2692565917969,-40.04796600341797
1,276643,-23.599937438964844,18.785743713378906,-68.96015167236328,-35.28804397583008
1,276646,25.520156860351562,-25.36810302734375,258.9049377441406,22.122726440429688
1,276647,30.774621963500977,22.330976486206055,211.427978515625,-20.086872100830078
1,276650,-43.1998291015625,42.57638168334961,97.32513427734375,4.621108055114746
1,276651,-51.685386657714844,-40.17424774169922,-36.250648498535156,102.36305236816406
1,276654,0.886297345161438,-15.818585395812988,-410.69140625,32.18617248535156
1,276655,159.56069946289062,0.849303662776947,-364.8167724609375,-71.38915252685547
1,276657,228.0675506591797,-20.13585662841797,171.33798217773438,-51.53269958496094
1,276660,-87.78950500488281,15.441553115844727,418.7159118652344,-13.03409481048584
1,276661,-251.3724365234375,6.416805744171143,174.4655303955078,11.722373962402344
1,276664,-32.2076530456543,12.42149543762207,-125.17337799072266,40.78168869018555
1,276665,5.687030792236328,37.02130126953125,-158.29318237304688,-6.779917240142822
1,276668,-20.659719467163086,-19.480396270751953,74.3510513305664,-64.6349105834961
1,276669,-14.869880676269531,-44.137611389160156,139.2303009033203,8.229755401611328
1,276672,55.58106231689453,14.81917953491211,-91.15504455566406,109.58271026611328
1,276673,115.64933776855469,25.46114730834961,-88.0924301147461,9.313525199890137
1,276676,-100.95887756347656,-34.050254821777344,19.511014938354492,-136.0236053466797
1,276677,-165.3839569091797,8.198578834533691,34.93241500854492,-32.80597686767578
1,276680,1.1403383016586304,50.19865417480469,44.7777099609375,94.77924346923828
1,276681,72.74678802490234,-25.889867782592773,113.70726776123047,41.42128372192383
1,276684,177.3127899169922,-37.02025604248047,-48.72500991821289,-17.70389175415039
1,276685,156.420654296875,15.676542282104492,-301.1332702636719,-35.885684967041016
1,276688,-60.6221923828125,-1.7064902782440186,-157.29006958007812,-5.7491912841796875
1,276689,-65.58407592773438,-19.627384185791016,147.42938232421875,44.50154113769531
1,276692,-58.057518005371094,24.553415298461914,333.6912536621094,-10.392730712890625
1,276693,-81.80734252929688,10.331276893615723,-28.500211715698242,-47.04476547241211
1,276696,56.213645935058594,-16.200298309326172,-350.3369445800781,28.607994079589844
1,276697,55.32811737060547,1.863276481628418,-15.267135620117188,58.774818420410156
1,276700,-93.96820068359375,16.228134155273438,236.93771362304688,-72.7531967163086
1,276701,-40.23854446411133,-6.04966926574707,68.38731384277344,-81.0362777709961
1,276704,115.79290008544922,-0.7736557126045227,-22.2273006439209,107.26017761230469
1,276705,-0.44282063841819763,7.1378912925720215,26.815900802612305,104.4914779663086
1,276708,-96.93761444091797,-24.615501403808594,-19.55341911315918,-86.80435943603516
1,276709,-49.69986343383789,20.45521354675293,-70.92008972167969,-84.59632110595703
1,276712,14.555473327636719,0.9693647623062134,-130.67095947265625,47.783294677734375
1,276713,91.78021240234375,-29.59745979309082,-45.04142379760742,-2.085426092147827
1,276716,12.968389511108398,32.99763107299805,281.4015197753906,-29.154335021972656
1,276717,-51.604434967041016,15.140527725219727,147.5022735595703,19.046833038330078
1,276720,56.29418182373047,-11.1182279586792,-295.6437683105469,24.16857147216797
1,276721,101.22247314453125,-9.543726921081543,-150.10215759277344,19.42549705505371
1,276724,57.22226333618164,-20.917856216430664,121.9759750366211,10.626622200012207
1,276725,-71.3529052734375,-21.73759651184082,180.6140594482422,-34.608768463134766
1,276728,-244.00115966796875,17.525131225585938,163.9551239013672,-40.13976287841797
1,276729,-70.60784912109375,65.14122009277344,40.17805480957031,23.01628875732422
1,276732,148.26516723632812,-9.551379203796387,-234.1283416748047,12.681665420532227
1,276733,61.774906158447266,-63.04249572753906,-346.40093994140625,-11.773512840270996
1,276736,38.34209442138672,3.1660852432250977,-98.88232421875,68.063232421875
1,276737,46.28734588623047,35.99431228637695,163.9879150390625,71.36296081542969
1,276740,-64.46792602539062,0.4066103994846344,295.1739501953125,-136.9029541015625
1,276741,-54.083274841308594,8.69327449798584,82.9637451171875,-114.84793090820312
1,276744,45.83013916015625,-2.0862698554992676,-51.47636032104492,98.68922424316406
1,276745,27.813182830810547,-44.170616149902344,1.4039403200149536,85.9371337890625
1,276748,-26.264968872070312,2.646134614944458,-199.4249267578125,-29.907827377319336
1,276749,-2.6971306800842285,23.951139450073242,-193.9554901123047,-15.154675483703613
1,276752,-73.66268157958984,2.7512807846069336,116.36317443847656,16.297239303588867
1,276753,12.977798461914062,6.841650009155273,232.26954650878906,-45.1834602355957
1,276756,9.160185813903809,-4.766218662261963,220.1929931640625,-11.317066192626953
1,276758,-142.54026794433594,-19.0491943359375,90.97831726074219,10.778633117675781
1,276759,117.22854614257812,9.934303283691406,-195.6132354736328,-24.45442771911621
1,276762,98.9310073852539,13.049853324890137,-397.2225036621094,23.70313835144043
1,276763,-94.71630859375,-14.56577205657959,-142.88710021972656,49.677101135253906
1,276766,187.58477783203125,-5.141720771789551,207.3427276611328,-46.967220306396484
1,276767,252.6964874267578,-2.693535327911377,59.15109634399414,-33.26707458496094
1,276770,-314.2025451660156,23.191959381103516,173.07736206054688,67.33143615722656
1,276771,-311.4132385253906,6.212139129638672,179.25869750976562,-9.740582466125488
1,276773,232.2688751220703,-44.10212707519531,-132.7495880126953,-40.60679626464844
1,276775,103.05818939208984,0.9167357683181763,-173.43629455566406,121.11174774169922
1,276778,-100.26734161376953,10.144048690795898,-331.2953796386719,43.12022399902344
1,276779,-41.11286926269531,-0.8460314273834229,-43.11765670776367,-155.1788787841797
1,276782,19.14853286743164,38.011287689208984,486.9495544433594,-23.99911117553711
1,276783,29.82455062866211,14.898650169372559,162.86959838867188,28.22116470336914
1,276786,-77.9326400756836,-41.00746536254883,-231.75865173339844,-7.989632606506348
1,276787,-33.638153076171875,-10.74156379699707,-30.791093826293945,38.58199691772461
1,276790,29.460613250732422,20.741832733154297,111.29947662353516,0.10384165495634079
1,276791,43.28399658203125,2.1868209838867188,19.026554107666016,-51.13706970214844
1,276794,112.88105773925781,9.508506774902344,-73.80056762695312,-27.380767822265625
1,276795,26.776729583740234,0.6821509003639221,-84.50579071044922,17.4753475189209
1,276798,-51.378108978271484,-22.015972137451172,45.62747573852539,53.56193923950195
1,276799,12.216127395629883,2.6444413661956787,72.7857666015625,38.05268096923828
1,276802,-54.45793533325195,18.67534828186035,-6.510307312011719,-23.12783432006836
1,276803,-66.50037384033203,-18.608997344970703,-16.88219451904297,14.500568389892578
1,276806,24.49600601196289,-7.450423240661621,-57.990081787109375,11.145184516906738
1,276807,-0.9250123500823975,14.913637161254883,31.354541778564453,-32.68742752075195
1,276810,3.1593785285949707,-1.7175824642181396,-1.9991122484207153,-23.39306640625
1,276811,45.493186950683594,9.019572257995605,-123.9893569946289,-36.430850982666016
1,276814,40.58616638183594,-26.133649826049805,-38.869781494140625,2.1666598320007324
1,276815,-5.039979457855225,-31.428903579711914,76.35707092285156,49.5908088684082
1,276818,3.309795379638672,50.946659088134766,105.36573028564453,12.004520416259766
1,276819,72.54281616210938,33.31035614013672,-25.613252639770508,-37.19422912597656
1,276822,-101.33606719970703,-45.30146026611328,-45.14889144897461,54.421287536621094
1,276823,-161.43441772460938,-20.97937774658203,15.349632263183594,133.07957458496094
1,276826,22.10141372680664,36.52265167236328,61.9967155456543,-49.44908142089844
1,276827,80.68721008300781,4.534940242767334,-23.313007354736328,-189.92578125
1,276830,125.9377212524414,-18.699569702148438,-80.68296813964844,-35.496421813964844
1,276831,-21.185354232788086,3.55572247505188,105.50818634033203,97.90223693847656
1,276834,-109.28471374511719,24.23598861694336,85.30194091796875,6.38807487487793
1,276835,-7.723220348358154,-13.131061553955078,-59.5950813293457,-13.25684642791748
1,276838,-21.988439559936523,-35.204490661621094,41.590782165527344,-13.589170455932617
1,276839,-10.653154373168945,7.913316249847412,34.65333938598633,-76.7080307006836
1,276842,86.97186279296875,7.839837551116943,-243.57969665527344,44.630027770996094
1,276843,44.3174934387207,-3.0515570640563965,-227.86842346191406,100.43851470947266
1,276846,-21.400279998779297,-5.843547821044922,150.4642791748047,-15.363700866699219
1,276847,19.371074676513672,24.92706298828125,286.5370788574219,-16.069927215576172
1,276850,-6.3142170906066895,7.232255458831787,-97.85401153564453,4.741138458251953
1,276851,6.751551628112793,-34.3941764831543,-186.6211395263672,4.519280910491943
1,276854,-7.259753227233887,18.584686279296875,139.12110900878906,58.62474822998047
1,276855,4.466841697692871,44.54973602294922,167.88998413085938,27.851627349853516
1,276858,41.94608688354492,-25.89248275756836,24.79706573486328,-79.19318389892578
1,276859,-43.67549514770508,-52.87528610229492,-53.49727249145508,-72.17744445800781
1,276862,-112.00465393066406,34.62207794189453,5.25405216217041,11.901861190795898
1,276863,-31.18008804321289,29.6572322845459,-12.917805671691895,0.22980333864688873
1,276866,71.22464752197266,-39.25274658203125,-188.48985290527344,28.194795608520508
1,276867,40.52911376953125,-17.055150985717773,-132.82803344726562,61.8496208190918
1,276870,-23.165584564208984,25.125810623168945,153.22894287109375,-92.08190155029297
1,276871,-57.801780700683594,55.19047164916992,182.1835174560547,-65.0611343383789
1,276874,-19.951393127441406,-11.040664672851562,8.366630554199219,184.6250457763672
1,276875,-38.3410758972168,-77.58807373046875,-59.74068069458008,136.0482635498047
1,276878,109.1301498413086,6.699761390686035,-148.8090362548828,-164.68019104003906
1,276879,126.1231918334961,28.28658103942871,-88.45791625976562,-244.613037109375
1,276882,-111.59796142578125,-1.156836748123169,155.55288696289062,104.09867095947266
1,276883,2.1460282802581787,42.70964050292969,187.4879150390625,182.01373291015625
1,276886,58.142093658447266,-15.25037670135498,-106.34962463378906,-95.66967010498047
1,276887,2.301464557647705,-51.68276596069336,-142.50025939941406,-49.98281478881836
1,276890,-18.85566520690918,31.269826889038086,57.73530578613281,56.943321228027344
1,276891,-15.447099685668945,32.973262786865234,-4.769950866699219,35.32456588745117
1,276894,-27.97071075439453,-52.00486755371094,-13.42850112915039,-31.491418838500977
1,276895,-80.7021713256836,-41.98957061767578,83.70967102050781,-46.0673942565918
1,276898,23.577869415283203,43.43412780761719,-8.523286819458008,14.501386642456055
1,276899,55.2773323059082,48.276145935058594,-78.49514770507812,20.091716766357422
1,276902,-14.594843864440918,-1.467652678489685,93.85287475585938,14.291729927062988
1,276904,58.6178092956543,-5.063069820404053,180.9705810546875,45.14237594604492
1,276905,77.0523910522461,-15.84543228149414,-181.26138305664062,33.199092864990234
1,276908,-75.770751953125,-41.408226013183594,-324.5215148925781,-99.44405364990234
1,276909,-104.76036071777344,-1.4614310264587402,147.9882049560547,-102.23713684082031
1,276912,47.18561553955078,19.794479370117188,263.989013671875,54.47706604003906
1,276913,60.98881149291992,5.962757110595703,-7.000078201293945,77.48790740966797
1,276916,-44.19325637817383,19.53504180908203,-131.5859375,9.67665958404541
1,276917,-2.4623916149139404,8.475461959838867,-149.65122985839844,-20.853458404541016
1,276920,-33.994991302490234,-36.08850860595703,63.12577438354492,-34.239288330078125
1,276921,-19.42132568359375,-15.005940437316895,170.868896484375,-0.15791301429271698
1,276924,35.995147705078125,4.2589592933654785,-56.159461975097656,23.016298294067383
1,276925,-38.91926193237305,-6.036501407623291,-60.590335845947266,5.361837387084961
1,276928,-15.605950355529785,5.331567764282227,23.666669845581055,20.05248260498047
1,276929,49.39128875732422,30.30609703063965,-31.274581909179688,-12.079748153686523
1,276932,121.34825897216797,20.035085678100586,98.34866333007812,6.703282833099365
1,276933,-14.40709400177002,-8.44672966003418,84.36080169677734,16.483552932739258
1,276936,-86.50623321533203,-1.3097490072250366,-153.35134887695312,-63.0338134765625
1,276937,95.88075256347656,-5.943853855133057,-94.34716796875,16.774450302124023
1,276940,-16.58863639831543,-0.33662304282188416,96.47722625732422,97.31389617919922
1,276941,-96.00061798095703,-1.2738784551620483,157.10691833496094,-6.353244304656982
1,276944,-70.20777893066406,-24.39250373840332,1.2690064907073975,-139.55630493164062
1,276945,47.380130767822266,-7.925387382507324,-241.41795349121094,-57.66945266723633
1,276948,187.30642700195312,40.03369140625,-59.007911682128906,153.102783203125
1,276949,-48.15158462524414,18.426673889160156,144.8882598876953,97.81342315673828
1,276952,-175.560546875,-58.26160430908203,8.682474136352539,-134.28440856933594
1,276953,-24.53481101989746,-26.876571655273438,-23.418720245361328,-93.65320587158203
1,276956,9.843694686889648,55.10795593261719,22.041770935058594,49.45057678222656
1,276957,3.0074708461761475,20.857934951782227,-6.020432472229004,25.821426391601562
1,276960,77.99191284179688,-48.00267791748047,1.1662794351577759,-12.241301536560059
1,276961,128.91339111328125,-19.332427978515625,21.668502807617188,29.47085189819336
1,276964,-59.462310791015625,52.44978713989258,141.41165161132812,40.19807052612305
1,276965,-184.6874542236328,44.9550666809082,69.06707763671875,-45.425010681152344
1,276968,85.26432800292969,-44.838809967041016,-269.929931640625,13.563779830932617
1,276969,102.34275817871094,-50.259010314941406,-234.73936462402344,62.63951110839844
1,276972,29.525070190429688,67.57785034179688,140.80300903320312,13.487860679626465
1,276973,47.55005645751953,22.74420928955078,227.8024444580078,-49.187591552734375
1,276976,-102.40180206298828,-84.58287048339844,-26.5495662689209,-95.0191421508789
1,276977,-77.07199096679688,16.319177627563477,-85.01097869873047,25.848377227783203
1,276980,-39.48942184448242,45.6822624206543,-61.335025787353516,77.21916961669922
1,276981,-21.611722946166992,-48.7620849609375,-51.949642181396484,-13.740667343139648
1,276984,97.45629119873047,-2.4310543537139893,207.51620483398438,-72.11036682128906
1,276985,41.15378189086914,55.023983001708984,198.99095153808594,-15.475157737731934
1,276988,-46.680908203125,-23.549821853637695,-197.31536865234375,37.6041259765625
1,276989,10.87319564819336,-49.23037338256836,-192.63125610351562,16.428068161010742
1,276992,20.678510665893555,35.23050308227539,96.1535873413086,14.63947582244873
1,276993,-21.897748947143555,34.50973892211914,122.81059265136719,14.640300750732422
1,276996,-16.650489807128906,-25.948501586914062,-57.72214126586914,13.949352264404297
1,276997,17.332706451416016,-8.94547176361084,-127.92134857177734,-7.663837909698486
1,277000,23.809833526611328,-18.834924697875977,2.955979585647583,-32.8371467590332
1,277001,15.744181632995605,-3.138000249862671,24.591350555419922,-21.206722259521484
1,277004,-19.142393112182617,39.75167465209961,5.030389308929443,30.605043411254883
1,277005,-47.80171203613281,-2.1393728256225586,2.9400997161865234,5.293553352355957
1,277008,-11.026005744934082,-25.440908432006836,47.48426055908203,-46.26677703857422
1,277010,31.454364776611328,5.741417407989502,176.0247344970703,12.763774871826172
1,277011,30.071802139282227,24.18898582458496,62.1600227355957,17.982460021972656
1,277014,-12.079378128051758,-13.89181137084961,-211.50880432128906,2.3492321968078613
1,277015,7.45537805557251,-28.958005905151367,-164.26414489746094,25.96358871459961
1,277018,47.10456085205078,6.656937599182129,113.10249328613281,-23.983747482299805
1,277019,8.590024948120117,40.08493423461914,106.66180419921875,-21.510053634643555
1,277022,-114.85562133789062,28.11140251159668,-74.23887634277344,7.108325481414795
1,277023,-21.3908748626709,-19.766233444213867,-113.28233337402344,12.783723831176758
1,277026,91.42766571044922,-20.1563720703125,16.040180206298828,106.21832275390625
1,277027,-28.550077438354492,-21.051311492919922,113.27385711669922,71.4775390625
1,277030,0.24067586660385132,-8.547204971313477,-14.156466484069824,-155.31427001953125
1,277031,4.666628837585449,22.5613956451416,-85.08197784423828,-153.48236083984375
1,277034,-58.813724517822266,8.438007354736328,49.72519302368164,14.046348571777344
1,277035,-2.951296806335449,-11.793498992919922,137.8773956298828,41.833648681640625
1,277038,24.65218162536621,10.505961418151855,24.36318016052246,96.82689666748047
1,277039,22.46080780029297,23.532955169677734,-100.12535095214844,42.89493942260742
1,277042,94.01398468017578,-29.650428771972656,-97.39292907714844,-52.192962646484375
1,277043,10.037210464477539,-18.195215225219727,8.136518478393555,8.638548851013184
1,277046,-139.59010314941406,12.163692474365234,87.47723388671875,-14.246238708496094
1,277049,6.586053848266602,0.6806349158287048,-2.6286780834198,-18.835641860961914
1,277049,72.76348876953125,3.0729422569274902,-29.088531494140625,23.870874404907227
1,277052,-30.45798683166504,19.68640899658203,20.904788970947266,16.270957946777344
1,277053,-0.46126288175582886,-19.40326499938965,-28.406618118286133,-23.62340545654297
1,277056,15.52503776550293,-53.446022033691406,-44.93157958984375,0.403592973947525
1,277057,-20.919605255126953,28.012779235839844,1.106716275215149,55.41739273071289
1,277060,-10.488890647888184,38.8780632019043,51.480751037597656,-76.7605209350586
1,277061,-1.7078120708465576,13.38664722442627,61.919979095458984,-57.64056396484375
1,277064,9.117377281188965,-11.665346145629883,-55.26511001586914,80.83499908447266
1,277065,23.88133430480957,-32.82816696166992,-62.28501892089844,-5.898349285125732
1,277068,-10.249883651733398,2.0468497276306152,49.07887649536133,-49.28505325317383
1,277069,-7.572310447692871,38.42681121826172,21.26569366455078,27.956647872924805
1,277072,28.79709815979004,15.817608833312988,-2.1594977378845215,44.60548782348633
1,277073,-29.18706512451172,-38.82701873779297,-18.312734603881836,11.597089767456055
1,277076,-37.9672737121582,1.565353512763977,1.2424094676971436,-12.231926918029785
1,277077,33.684173583984375,2.7148141860961914,8.688615798950195,-40.543426513671875
1,277080,31.92211151123047,-6.689072608947754,-50.453346252441406,0.6151050925254822
1,277081,-25.89574432373047,22.49005699157715,56.13877868652344,47.339088439941406
1,277084,22.499053955078125,-23.108963012695312,105.9000244140625,-20.76944923400879
1,277085,68.1705551147461,-21.336442947387695,-35.286800384521484,-17.984636306762695
1,277088,-101.6261978149414,26.14312744140625,-130.7054443359375,27.130874633789062
1,277089,-103.36295318603516,0.5122036337852478,-25.360687255859375,-5.219631195068359
1,277092,58.06166076660156,-24.178661346435547,41.58360290527344,-20.694477081298828
1,277093,93.44744110107422,11.076628684997559,17.648643493652344,-13.450458526611328
1,277096,70.374267578125,32.48939514160156,100.48998260498047,47.546146392822266
1,277097,-58.127872467041016,-11.397933006286621,-9.506261825561523,19.623180389404297
1,277100,-130.8981475830078,-16.197500228881836,-139.3634796142578,-67.13141632080078
1,277101,17.696157455444336,24.983867645263672,44.14097595214844,-5.671415328979492
1,277104,67.55220794677734,-8.868101119995117,51.08816146850586,35.95900344848633
1,277105,-31.28912925720215,-11.726465225219727,-73.71542358398438,-9.973855972290039
1,277108,4.639804840087891,14.962181091308594,15.527929306030273,-20.300901412963867
1,277109,37.46131134033203,-17.663822174072266,30.380985260009766,30.006372451782227
1,277112,10.235499382019043,-3.1878294944763184,-11.21122932434082,25.76787757873535
1,277113,-19.67477798461914,17.443538665771484,-8.379630088806152,-62.087066650390625
1,277116,-23.617937088012695,-18.02049446105957,3.487452268600464,1.596142053604126
1,277117,20.322378158569336,-12.85769271850586,25.325286865234375,74.11846160888672
1,277120,12.35873031616211,19.545469284057617,-17.026103973388672,-14.279117584228516
1,277121,-4.922818183898926,17.044584274291992,-22.179561614990234,-36.55331039428711
1,277124,-14.947258949279785,0.3731769621372223,30.507843017578125,-14.171709060668945
1,277125,-8.501011848449707,-20.824234008789062,1.5926767587661743,12.476566314697266
1,277128,33.61967468261719,6.749724864959717,15.333501815795898,0.8035860657691956
1,277129,7.497033596038818,29.162429809570312,42.95127487182617,-21.049415588378906
1,277132,-30.368207931518555,-12.71887493133545,-27.54945945739746,20.199174880981445
1,277133,0.6279207468032837,-5.748585224151611,-36.4833984375,23.790063858032227
1,277136,-8.700587272644043,-13.132240295410156,-16.236618041992188,8.179685592651367
1,277137,-2.0381486415863037,-47.257423400878906,-16.473175048828125,-3.254631519317627
1,277140,17.762712478637695,31.793163299560547,13.686601638793945,-18.36552619934082
1,277141,2.024618148803711,43.52531433105469,39.2291145324707,-11.536473274230957
1,277144,-6.581142902374268,-54.33743667602539,4.576049327850342,2.0548324584960938
1,277145,-9.165910720825195,-8.396754264831543,-26.22748565673828,9.109036445617676
1,277148,14.13555908203125,48.34369659423828,-13.879249572753906,-1.110874891281128
1,277149,20.049758911132812,1.1666367053985596,11.517308235168457,0.40355828404426575
1,277152,-4.378685474395752,-7.177660942077637,-5.504220962524414,0.996488630771637
1,277153,-13.13357925415039,-16.595808029174805,-18.350881576538086,1.4768118858337402
1,277156,-82.72084045410156,3.365525960922241,71.3940658569336,-3.2766659259796143
1,277157,-63.72690200805664,61.13157653808594,67.23497009277344,-20.987525939941406
1,277160,229.05287170410156,-19.327463150024414,-106.4853515625,16.656986236572266
1,277161,187.60023498535156,-60.799842834472656,-94.13230895996094,16.21862030029297
1,277164,-289.58538818359375,4.882664680480957,106.89049530029297,-7.132099628448486
1,277165,-151.1288604736328,11.489829063415527,31.22866439819336,30.231111526489258
1,277168,199.7671356201172,7.149886131286621,-88.44975280761719,-34.25808334350586
1,277169,-10.102994918823242,16.510568618774414,21.918102264404297,-73.43888092041016
1,277172,-74.3577651977539,6.963478088378906,35.21835708618164,27.969663619995117
1,277173,20.60242462158203,-30.156784057617188,-41.77501678466797,47.583560943603516
1,277176,22.583335876464844,-5.563748359680176,-1.5384736061096191,34.79548263549805
1,277177,-6.715445518493652,5.664583683013916,29.365562438964844,-25.47720718383789
1,277180,-28.87371253967285,-7.766400337219238,-3.4804954528808594,-57.02286148071289
1,277181,33.51332092285156,26.698223114013672,3.177811861038208,33.600215911865234
1,277184,-2.4165749549865723,-15.395867347717285,17.120094299316406,22.61677360534668
1,277185,-48.119014739990234,-28.440141677856445,7.905122756958008,-32.49721145629883
1,277188,50.52004623413086,47.47251510620117,-9.01146125793457,12.821462631225586
1,277189,71.4935302734375,22.89651107788086,-10.66722297668457,45.6203727722168
1,277192,-23.74494743347168,-39.51047134399414,-3.3563742637634277,-19.602123260498047
1,277193,-80.12152862548828,15.345723152160645,20.640846252441406,-15.784221649169922
1,277196,5.908558368682861,21.197153091430664,-21.689868927001953,29.79557228088379
1,277197,89.80582427978516,-30.159067153930664,-42.34584045410156,-39.870460510253906
1,277200,-23.266910552978516,8.353857040405273,28.078487396240234,-39.150306701660156
1,277201,-52.72119140625,5.107864856719971,9.90471363067627,46.329734802246094
1,277204,-19.005416870117188,-15.743120193481445,-16.236799240112305,8.782861709594727
1,277207,-3.537781238555908,2.4332759380340576,23.125234603881836,-19.860061645507812
1,277207,42.711517333984375,-2.2250051498413086,19.173641204833984,15.91690444946289
1,277210,81.089599609375,0.6393793821334839,-8.218493461608887,6.807631492614746
1,277211,48.28779602050781,-27.00543975830078,-15.30056381225586,-7.760455131530762
1,277214,-84.48945617675781,-16.865478515625,30.937637329101562,11.850688934326172
1,277215,-55.73286437988281,46.63831329345703,3.3205299377441406,48.87141036987305
1,277218,-31.91943359375,13.816861152648926,-114.01805114746094,-32.883644104003906
1,277219,-85.26547241210938,-28.58526039123535,-31.677148818969727,-89.65203094482422
1,277222,71.42633819580078,1.8610836267471313,126.66812133789062,-0.9430562257766724
1,277223,128.28298950195312,29.547122955322266,111.859619140625,32.851112365722656
1,277226,-60.41917419433594,-20.292152404785156,-58.88640594482422,25.941822052001953
1,277227,-77.85383605957031,-23.67605209350586,-134.73406982421875,17.86833953857422
1,277230,44.748233795166016,24.046327590942383,15.92376708984375,-8.603060722351074
1,277231,23.761537551879883,-11.539815902709961,52.8713493347168,-19.425540924072266
1,277234,-24.061237335205078,2.388979434967041,-12.155485153198242,-3.4507944583892822
1,277235,18.643478393554688,-0.23431667685508728,6.011473178863525,-5.663396835327148
1,277238,33.639827728271484,-6.0315937995910645,3.4180049896240234,-3.4849467277526855
1,277239,-10.663561820983887,21.940576553344727,-16.75827980041504,27.0184383392334
1,277242,-15.751774787902832,-9.605927467346191,-10.108156204223633,0.43045973777770996
1,277243,-12.215935707092285,5.700037002563477,15.518309593200684,-23.26787757873535
1,277246,-8.612951278686523,5.700727939605713,21.520185470581055,21.457761764526367
1,277247,37.87223815917969,-17.12059211730957,-17.891345977783203,22.797128677368164
1,277250,8.585271835327148,2.26326322555542,-22.957189559936523,-22.338891983032227
1,277251,-42.44648742675781,26.655689239501953,80.23320770263672,-14.125099182128906
1,277254,63.196781158447266,-7.033824443817139,70.46157836914062,19.616432189941406
1,277255,1.4612312316894531,-21.569705963134766,-51.8912467956543,14.921194076538086
1,277258,-115.21293640136719,10.633430480957031,-78.7886734008789,-28.516021728515625
1,277259,59.12728500366211,-5.849682807922363,-46.575042724609375,-5.869814395904541
1,277262,38.23667907714844,1.9516973495483398,29.37259864807129,30.462528228759766
1,277263,-75.2098159790039,-4.261692047119141,25.416982650756836,-12.228937149047852
1,277266,21.381465911865234,4.702647686004639,-6.971248149871826,-14.414999008178711
1,277267,35.24711990356445,13.966166496276855,7.827474594116211,14.785482406616211
1,277270,-31.42008399963379,-14.67754077911377,-11.416247367858887,-24.982221603393555
1,277271,-23.365373611450195,12.367085456848145,8.942797660827637,-30.06262969970703
1,277274,4.53217077255249,-6.846068382263184,-5.799502849578857,7.855227470397949
1,277275,16.53323745727539,-37.62874221801758,-19.04047203063965,51.950313568115234
1,277278,45.56250762939453,24.837726593017578,9.709552764892578,36.081233978271484
1,277279,16.817705154418945,24.297800064086914,-1.6827430725097656,-67.16297149658203
1,277282,-34.754310607910156,-20.236488342285156,38.453514099121094,24.840951919555664
1,277283,-7.929358959197998,-0.5594013929367065,15.014159202575684,40.841651916503906
1,277286,0.13650377094745636,2.9003283977508545,-17.146217346191406,-70.32484436035156
1,277287,-25.306455612182617,-11.856983184814453,4.833548069000244,23.35601043701172
1,277290,22.14589500427246,14.662101745605469,-24.335453033447266,19.647672653198242
1,277291,15.665682792663574,28.45074462890625,-4.416306972503662,-46.81462478637695
1,277294,-35.85956954956055,-21.644020080566406,8.196558952331543,0.10169349610805511
1,277295,4.278441429138184,-33.8357048034668,-4.153162479400635,43.64964294433594
1,277298,29.684783935546875,24.418840408325195,10.51755428314209,15.230603218078613
1,277299,14.362167358398438,15.921194076538086,17.458478927612305,-23.499027252197266
1,277302,-1.366101622581482,-22.81960105895996,-11.300345420837402,-14.782360076904297
1,277303,-32.565879821777344,-1.0589097738265991,-31.283357620239258,-44.31807327270508
1,277306,-20.48925018310547,11.716933250427246,8.359539985656738,45.167423248291016
1,277307,38.79582214355469,16.827693939208984,7.6910905838012695,78.69340515136719
1,277310,-5.0314812660217285,6.262008190155029,-7.0072922706604,-61.35048294067383
1,277311,-29.598928451538086,-13.902600288391113,9.53108024597168,-33.91120910644531
1,277314,32.05773162841797,10.04738998413086,16.50845718383789,2.0078701972961426
1,277315,5.099431991577148,-20.58324432373047,-12.633550643920898,-24.221900939941406
1,277318,-7.046645641326904,-12.258682250976562,-28.515087127685547,14.319573402404785
1,277319,-5.118511199951172,16.378864288330078,23.929994583129883,24.844179153442383
1,277322,-14.675694465637207,-29.848814010620117,6.575700759887695,24.678007125854492
1,277324,18.150829315185547,18.10446548461914,-3.2200794219970703,-10.130443572998047
1,277325,-7.840314865112305,33.47892761230469,15.990777015686035,-19.15418815612793
1,277328,-3.5394983291625977,-36.406944274902344,-36.04967498779297,19.556264877319336
1,277329,-16.442577362060547,-6.622312068939209,5.103079795837402,-10.640755653381348
1,277332,1.6701579093933105,33.297157287597656,64.48505401611328,-7.255799293518066
1,277333,57.360599517822266,-3.350116729736328,3.756857395172119,25.789770126342773
1,277336,-32.949588775634766,-29.646883010864258,-81.06301879882812,-13.267454147338867
1,277337,-26.006223678588867,-23.43414878845215,-54.714141845703125,-20.87644386291504
1,277340,31.006166458129883,26.267736434936523,77.65001678466797,6.860958576202393
1,277341,10.355798721313477,48.426353454589844,40.21344757080078,9.523141860961914
1,277344,-16.823347091674805,-22.681926727294922,-40.785011291503906,2.1038978099823
1,277345,-48.44352722167969,-40.568241119384766,40.56120681762695,-3.2591543197631836
1,277348,54.695396423339844,18.317733764648438,-15.865617752075195,35.66460418701172
1,277349,108.84257507324219,20.800458908081055,-42.63483428955078,-6.411322593688965
1,277352,-4.392392635345459,-0.05480167642235756,-18.657245635986328,-49.73920440673828
1,277353,-81.22305297851562,-11.177313804626465,-6.515547752380371,32.66008758544922
1,277356,-127.2059555053711,-7.391705513000488,83.66719055175781,8.936805725097656
1,277357,26.954120635986328,-4.45229434967041,-44.179718017578125,-54.36949920654297
1,277360,101.02960205078125,9.907299041748047,-56.259361267089844,1.6874902248382568
1,277361,-45.2151985168457,12.22602653503418,75.80072784423828,53.80337905883789
1,277364,-34.673362731933594,-1.1175355911254883,33.32869338989258,24.97943878173828
1,277365,3.0444095134735107,4.3151044845581055,-30.07879066467285,-20.47089385986328
1,277368,7.534218788146973,-18.967248916625977,-39.35258865356445,-43.88092803955078
1,277369,20.94430160522461,-23.728885650634766,-7.725114822387695,-32.99977493286133
1,277372,16.50840187072754,0.053197722882032394,32.056819915771484,4.522306442260742
1,277373,-0.18904292583465576,35.84748458862305,29.132436752319336,29.19066047668457
1,277376,-7.2453155517578125,19.068113327026367,-17.59268569946289,16.474088668823242
1,277377,1.9255894422531128,-12.476065635681152,-8.56384563446045,-29.60446548461914
1,277380,35.00432586669922,13.37854290008545,32.44621658325195,56.25666809082031
1,277381,29.116626739501953,3.889735460281372,-3.510810613632202,84.88368225097656
1,277384,-42.855262756347656,-41.62155532836914,-34.13027572631836,-67.42903900146484
1,277385,-37.34864807128906,-28.97748565673828,-11.760817527770996,-103.76508331298828
1,277388,10.259242057800293,10.312956809997559,-8.680191040039062,-15.478588104248047
1,277389,-1.8049991130828857,28.60093879699707,-0.1552617996931076,36.70378875732422
1,277392,3.083498954772949,31.059833526611328,7.98294734954834,42.01345443725586
1,277393,9.818207740783691,-16.134963989257812,9.627944946289062,47.53401565551758
1,277396,-10.815694808959961,-43.53196716308594,9.91888427734375,-10.193547248840332
1,277397,6.4062700271606445,14.934465408325195,6.23491096496582,-45.2786750793457
1,277400,9.910624504089355,30.83928871154785,-9.766899108886719,-18.00716209411621
1,277401,4.628372669219971,-22.35633659362793,-13.177340507507324,7.9416351318359375
1,277404,1.915776252746582,-1.2320384979248047,19.270278930664062,18.163246154785156
1,277405,-7.320589542388916,9.357090950012207,-0.5692609548568726,4.147152423858643
1,277408,-4.280429840087891,-13.678142547607422,-15.614736557006836,-23.688739776611328
1,277409,-4.529557704925537,15.80952262878418,22.848445892333984,-1.8718551397323608
1,277412,-11.664482116699219,16.336217880249023,17.746896743774414,42.725807189941406
1,277413,-7.682740688323975,-16.370800018310547,-28.97954559326172,-12.089576721191406
1,277416,19.990657806396484,-10.990150451660156,-14.352697372436523,-25.27992820739746
1,277417,7.105556964874268,7.771427631378174,21.11688995361328,9.914770126342773
1,277420,-4.961727142333984,-8.004735946655273,-3.2238762378692627,-3.6615102291107178
1,277421,20.163442611694336,-4.499345779418945,-12.02349853515625,3.6862199306488037
1,277424,3.9389703273773193,29.925262451171875,-16.72093391418457,3.19651460647583
1,277425,-15.329694747924805,12.238151550292969,-5.869447231292725,-0.38549157977104187
1,277428,-11.91641616821289,-23.161802291870117,36.319068908691406,26.529632568359375
1,277429,9.033519744873047,-1.4463037252426147,22.089406967163086,-0.946954071521759
1,277432,-4.813657760620117,9.34611988067627,-22.982364654541016,-26.192514419555664
1,277433,-40.33193588256836,-14.43046760559082,-31.92772674560547,0.7998522520065308
1,277436,-3.0725603103637695,-34.489707946777344,-6.303819179534912,-7.3186421394348145
1,277437,67.11634063720703,29.295461654663086,17.519681930541992,-1.8057681322097778
1,277440,48.084869384765625,54.986793518066406,30.40123748779297,-14.410784721374512
1,277441,-15.918683052062988,-45.169219970703125,5.439096450805664,-31.036300659179688
1,277444,-35.131980895996094,-28.76970672607422,-17.255552291870117,32.37490463256836
1,277445,-55.42048263549805,3.3868374824523926,-5.597122669219971,48.8092155456543
1,277448,-12.146531105041504,-11.33363151550293,-23.925518035888672,44.533084869384766
