Aktueller Finger,timestamp_ms,sensor_0,sensor_1,sensor_2,sensor_3
0,175658,-20.642780303955078,46.17359924316406,14.174187660217285,3.5409533977508545
0,175660,-33.685237884521484,49.871307373046875,39.3885383605957,12.796876907348633
0,175662,3.9205527305603027,6.091878414154053,-2.3398687839508057,-10.58653736114502
0,175664,14.18899154663086,-8.360940933227539,-37.728302001953125,-13.170999526977539
0,175666,11.458078384399414,-32.23802185058594,4.421857833862305,22.768516540527344
0,175668,-1.8218554258346558,-0.4035465717315674,-10.226516723632812,-33.62434387207031
0,175670,-27.786787033081055,-0.5315253734588623,2.854616403579712,-46.4510498046875
0,175672,23.06113624572754,-30.48310089111328,23.131080627441406,-6.7890777587890625
0,175674,31.89545249938965,3.370373249053955,-1.7581857442855835,29.401508331298828
0,175686,-25.606475830078125,25.217859268188477,11.362360954284668,54.70037841796875
0,175686,-32.96642303466797,11.73902702331543,-10.178674697875977,-14.008424758911133
0,175686,8.631101608276367,-11.435911178588867,-31.722646713256836,-39.595123291015625
0,175686,19.107065200805664,-13.669361114501953,35.96131896972656,13.145611763000488
0,175686,0.0020110374316573143,10.735831260681152,33.294342041015625,12.124844551086426
0,175686,-4.259652137756348,19.30850601196289,-28.39183807373047,4.6240057945251465
0,175688,-9.530329704284668,32.071571350097656,-18.6206111907959,-2.954111337661743
0,175690,-3.263930320739746,-14.392128944396973,-3.600376605987549,-19.40774154663086
0,175692,-2.195594310760498,-55.365013122558594,-8.437722206115723,-4.784336090087891
0,175694,3.801835060119629,-1.135411262512207,11.748908996582031,-7.551316738128662
0,175696,7.517667293548584,4.6100239753723145,1.543383002281189,5.492851734161377
0,175698,-12.950474739074707,0.0062706973403692245,-17.19329071044922,51.62446594238281
0,175700,-0.18531227111816406,13.43561840057373,20.448537826538086,36.0623664855957
0,175702,75.59051513671875,21.746984481811523,20.056591033935547,-25.770530700683594
0,175704,50.41312789916992,9.949036598205566,-2.094770669937134,-23.378005981445312
0,175707,-120.5755615234375,-61.93595886230469,-10.65395450592041,-16.2156982421875
0,175708,-66.18041229248047,-3.6347546577453613,-10.581640243530273,-5.58794641494751
0,175711,58.72972869873047,13.988170623779297,-0.18376122415065765,-25.377885818481445
0,175736,28.400758743286133,4.041349411010742,-0.4853769838809967,-1.7297567129135132
0,175736,32.80392837524414,72.63467407226562,-13.379968643188477,70.79230499267578
0,175736,-11.581192970275879,-22.04842185974121,-10.40372085571289,-28.971908569335938
0,175737,-44.96022033691406,-53.886146545410156,12.276287078857422,-51.4265251159668
0,175737,-14.167625427246094,-19.252281188964844,8.59712028503418,7.245167255401611
0,175737,7.341367244720459,-3.2481043338775635,2.1689646244049072,3.0856804847717285
0,175737,-5.180742263793945,42.91796875,3.0766687393188477,29.684059143066406
0,175737,-15.896940231323242,20.303470611572266,-1.4432348012924194,35.150814056396484
0,175737,27.370641708374023,-2.5728328227996826,0.8778260946273804,29.155593872070312
0,175738,16.87815284729004,9.069130897521973,4.711249351501465,3.2908694744110107
0,175738,-23.74808692932129,-1.8758472204208374,-0.9471749663352966,-39.10216522216797
0,175738,7.1206583976745605,-16.860593795776367,-9.260533332824707,-20.90601348876953
0,175738,9.025707244873047,-1.5180156230926514,-3.4909400939941406,-11.859282493591309
0,175739,-5.407720565795898,-2.699875593185425,18.333959579467773,0.38764896988868713
0,175740,13.667009353637695,-14.329984664916992,2.664447784423828,33.9296875
0,175742,12.056854248046875,13.336181640625,-20.62832260131836,-7.981608867645264
0,175744,12.153470039367676,12.588247299194336,17.821496963500977,-23.471189498901367
0,175746,3.5505223274230957,-5.4232587814331055,24.152915954589844,-11.791600227355957
0,175748,-17.52287483215332,-4.204622745513916,-29.352497100830078,-39.871437072753906
0,175750,-16.893674850463867,-38.27781677246094,-25.108633041381836,-8.58554744720459
0,175752,16.430696487426758,-26.081039428710938,22.60795021057129,31.434019088745117
0,175754,2.7507572174072266,40.11080551147461,17.101659774780273,12.588448524475098
0,175756,-19.250661849975586,34.443092346191406,-2.982778787612915,5.112026691436768
0,175758,6.51266622543335,-11.777047157287598,1.9304386377334595,24.787303924560547
0,175760,-0.8517148494720459,5.581937789916992,3.401663303375244,10.310616493225098
0,175762,-9.05762767791748,17.422588348388672,-22.999637603759766,-9.79542064666748
0,175800,-11.074247360229492,-15.67519474029541,-16.46199607849121,21.55720329284668
0,175800,-4.522481441497803,1.6073343753814697,31.682252883911133,13.007193565368652
0,175800,28.814342498779297,32.10464096069336,-9.442264556884766,4.598130226135254
0,175800,0.7305229902267456,4.745565414428711,-18.624603271484375,11.507681846618652
0,175801,-27.623455047607422,-16.54604721069336,24.563953399658203,-12.683658599853516
0,175801,6.798410415649414,-2.2715563774108887,-14.603299140930176,-34.09388732910156
0,175801,13.373092651367188,-5.592197895050049,-27.112031936645508,-33.86310958862305
0,175801,-4.098690986633301,-32.6053581237793,3.7243008613586426,-6.453709602355957
0,175801,-3.330030679702759,-15.53773021697998,16.29473304748535,-9.375237464904785
0,175801,-12.639616966247559,2.449578285217285,5.4305644035339355,-0.25288572907447815
0,175802,1.9099270105361938,-17.429588317871094,-15.386675834655762,23.21253204345703
0,175802,35.06756591796875,12.210067749023438,-5.636536598205566,-4.343365669250488
0,175802,3.076343297958374,27.56425666809082,22.696847915649414,1.8337626457214355
0,175802,-14.594239234924316,-2.7473249435424805,15.891069412231445,32.00355529785156
0,175802,9.288829803466797,11.265801429748535,-7.27061653137207,-10.925821304321289
0,175802,-8.616981506347656,13.995562553405762,5.044774055480957,-9.928801536560059
0,175803,-0.8516751527786255,-15.398149490356445,2.6314635276794434,13.08888053894043
0,175803,19.078887939453125,-21.196508407592773,-3.8667614459991455,-19.253219604492188
0,175803,-16.46938133239746,-9.36819839477539,16.51970863342285,-8.22457218170166
0,175804,-20.138418197631836,10.253235816955566,-8.93384075164795,-5.262701988220215
0,175804,-2.760378360748291,0.7597512602806091,-9.548430442810059,-1.6182764768600464
0,175806,51.02372360229492,-16.914167404174805,11.644243240356445,12.623560905456543
0,175808,33.701744079589844,-2.152550220489502,-0.853696346282959,-28.170364379882812
0,175810,-84.526123046875,-9.206469535827637,6.495818138122559,-28.940523147583008
0,175812,-53.92159652709961,-15.566794395446777,-15.114426612854004,32.79764938354492
0,175814,28.479604721069336,3.2493879795074463,-23.64500617980957,35.13053512573242
0,175816,53.921958923339844,38.72337341308594,23.108749389648438,5.654133319854736
0,175818,65.10258483886719,38.917869567871094,22.766822814941406,35.008174896240234
0,175820,-23.30268669128418,-27.14845848083496,-10.921507835388184,15.281536102294922
0,175822,-75.4295654296875,3.361525774002075,-17.41790199279785,-38.66876220703125
0,175824,-14.808673858642578,41.82697677612305,-14.702889442443848,-10.921883583068848
0,175826,-12.802000999450684,-14.146554946899414,3.5141265392303467,7.016885280609131
0,175829,37.80235290527344,-15.466389656066895,8.957921028137207,-32.81338119506836
0,175830,57.47517776489258,-10.706661224365234,-16.903133392333984,-43.95827102661133
0,175880,-20.168296813964844,9.494040489196777,7.729215145111084,101.38867950439453
0,175880,-11.750322341918945,44.99730682373047,38.007484436035156,104.16201782226562
0,175880,-0.3870352506637573,-35.582855224609375,-12.611943244934082,-95.55667114257812
0,175881,-6.8416619300842285,-42.44444274902344,-34.19758605957031,-53.14210510253906
0,175881,-11.25106430053711,15.60709285736084,7.007002353668213,9.300649642944336
0,175881,-1.4579224586486816,-6.524876117706299,14.996488571166992,-8.929800987243652
0,175881,17.86573600769043,5.95601224899292,-1.6879267692565918,30.41561508178711
0,175881,9.799304962158203,3.9687299728393555,9.726354598999023,12.93813705444336
0,175881,-9.087522506713867,5.673279762268066,4.910525798797607,1.6891553401947021
0,175882,-13.183089256286621,20.888351440429688,-23.980382919311523,-8.023088455200195
0,175882,7.604050636291504,-19.586387634277344,0.6742168068885803,-26.9778995513916
0,175882,-7.017970085144043,-14.25914192199707,10.545587539672852,-16.966365814208984
0,175882,-21.615774154663086,-0.4541155695915222,-8.632116317749023,-26.09543228149414
0,175882,-3.5256567001342773,-19.155153274536133,-0.48211607336997986,-21.04384422302246
0,175883,5.790370941162109,9.962066650390625,5.384059429168701,4.599629878997803
0,175883,-3.0656275749206543,14.683351516723633,5.543448448181152,23.244443893432617
0,175883,-3.0043656826019287,-11.482996940612793,0.7179200053215027,17.379026412963867
0,175883,16.05084800720215,4.667688369750977,0.022777777165174484,-1.1112899780273438
0,175883,8.662620544433594,21.465267181396484,15.947046279907227,21.906118392944336
0,175883,-19.2642879486084,9.723128318786621,-5.438824653625488,2.4209675788879395
0,175884,-18.550565719604492,-19.207265853881836,-31.6072998046875,-39.05854797363281
0,175884,7.882882118225098,-16.68474006652832,3.734882116317749,-0.0022697830572724342
0,175884,6.830765724182129,2.8092947006225586,10.957757949829102,21.438966751098633
0,175884,4.626550674438477,-12.693629264831543,-13.676933288574219,-11.380219459533691
0,175884,9.21309757232666,0.450359046459198,-5.492810249328613,-15.013252258300781
0,175886,4.605546474456787,7.14122200012207,2.754418134689331,-1.0497084856033325
0,175886,17.385896682739258,0.019980650395154953,-13.124340057373047,19.522058486938477
0,175886,7.092499256134033,21.95592498779297,3.5888640880584717,23.504959106445312
0,175887,-0.5665842890739441,-7.581517696380615,32.327945709228516,15.140152931213379
0,175890,6.331729412078857,-31.81102752685547,-2.2640185356140137,-8.656318664550781
0,175891,-12.10688591003418,-4.171021938323975,-8.666593551635742,-40.829811096191406
0,175894,7.3405070304870605,39.792633056640625,25.09737205505371,17.796606063842773
0,175895,7.277626991271973,35.401248931884766,2.2041523456573486,43.420135498046875
0,175898,-19.77492332458496,-4.710013389587402,4.499358654022217,7.193886756896973
0,175899,16.459280014038086,29.371051788330078,12.921639442443848,22.912370681762695
0,175902,-1.874086618423462,1.0575405359268188,-24.37234878540039,-2.146995782852173
0,175904,-19.22477149963379,-60.359981536865234,-5.957177639007568,-46.396400451660156
0,175906,2.0919876098632812,-25.95943832397461,5.2918219566345215,-28.84621810913086
0,175908,-17.122331619262695,-10.041775703430176,-35.87110137939453,2.6175878047943115
0,175910,4.306156635284424,-0.6979615688323975,2.6941895484924316,-3.2375383377075195
0,175912,13.111473083496094,6.48232889175415,28.117088317871094,-23.451812744140625
0,175914,-8.233503341674805,2.0487935543060303,-16.322101593017578,24.144699096679688
0,175976,4.082988262176514,37.24581527709961,-2.4153976440429688,37.22878646850586
0,175976,0.8954008221626282,16.166568756103516,15.70803165435791,-21.243038177490234
0,175976,-14.369751930236816,-33.931941986083984,-13.00690746307373,-9.112776756286621
0,175976,-4.282958030700684,-1.3774667978286743,-8.875149726867676,6.402207851409912
0,175977,8.440275192260742,14.109761238098145,13.958796501159668,4.101612091064453
0,175977,5.453086853027344,12.814737319946289,19.178077697753906,18.054109573364258
0,175977,0.720112681388855,16.852561950683594,22.44890785217285,14.004549980163574
0,175977,-8.074163436889648,0.18713220953941345,-12.079730987548828,11.005958557128906
0,175977,-13.689002990722656,-0.3923792243003845,-27.48345947265625,-6.966890335083008
0,175977,13.16675853729248,-25.778350830078125,-2.4474310874938965,-23.25333595275879
0,175978,4.484292030334473,-26.776121139526367,-6.52304744720459,-24.648109436035156
0,175978,-18.66666603088379,3.1083109378814697,-8.724616050720215,-3.780332088470459
0,175978,4.432952880859375,-4.703433990478516,12.432135581970215,4.129044055938721
0,175978,19.025651931762695,-17.393285751342773,4.083940505981445,3.4831583499908447
0,175978,6.9648871421813965,11.139335632324219,-0.5115619897842407,24.152891159057617
0,175979,2.7643990516662598,29.89772605895996,15.949043273925781,-2.1952290534973145
0,175979,5.779913902282715,16.832693099975586,-2.5122711658477783,-4.691668510437012
0,175979,4.489928722381592,11.512210845947266,-24.95197868347168,14.39625358581543
0,175979,-0.19045783579349518,-1.1379791498184204,3.3873462677001953,-3.9026565551757812
0,175979,-3.162398338317871,-26.543827056884766,28.693140029907227,-8.87620735168457
0,175979,-3.292651653289795,-18.72189712524414,-4.5078229904174805,-8.932097434997559
0,175980,0.22490264475345612,8.413204193115234,-32.39691925048828,-13.663177490234375
0,175980,3.2633743286132812,-9.236790657043457,-1.6632639169692993,-3.618042469024658
0,175980,-11.010522842407227,1.4716966152191162,32.11225128173828,10.992239952087402
0,175980,-2.0569183826446533,34.12933349609375,2.8415205478668213,-22.314476013183594
0,175980,5.221912384033203,-1.083855390548706,-1.9995818138122559,-2.0933735370635986
0,175980,-2.463012218475342,-23.258554458618164,5.728713035583496,36.35300064086914
0,175981,-1.951169490814209,13.06624984741211,-14.368425369262695,12.415929794311523
0,175981,-8.820271492004395,11.071711540222168,-5.634960174560547,2.2736222743988037
0,175981,4.521503448486328,-26.733509063720703,4.501112461090088,-36.32583999633789
0,175981,25.039825439453125,-9.419584274291992,9.35692024230957,-25.328643798828125
0,175982,-24.040390014648438,14.847278594970703,-16.776161193847656,6.380255222320557
0,175983,-27.63495635986328,-17.564315795898438,-14.7219877243042,5.005615234375
0,175983,20.307252883911133,-13.66757583618164,18.492353439331055,17.900081634521484
0,175984,32.1204833984375,27.261938095092773,-0.049355439841747284,-5.940410614013672
0,175985,12.70650577545166,15.842828750610352,-23.536041259765625,-8.976236343383789
0,175988,-48.13787841796875,-51.01188659667969,-16.79022979736328,-18.259174346923828
0,175989,55.81166076660156,-49.83699035644531,12.725141525268555,-32.86179733276367
0,175992,6.326263904571533,27.557096481323242,29.888078689575195,20.399221420288086
0,175993,-137.77378845214844,32.869659423828125,2.899259090423584,31.171388626098633
0,175996,48.967369079589844,22.209854125976562,-24.972185134887695,21.926790237426758
0,175997,63.902164459228516,14.703641891479492,2.1306469440460205,33.397483825683594
0,176000,-38.046607971191406,28.03124237060547,41.22004699707031,29.32589340209961
0,176002,6.73739767074585,17.11314582824707,10.31884479522705,3.566528081893921
0,176004,-10.273727416992188,-31.74490737915039,-35.415950775146484,-39.52849197387695
0,176006,-13.763882637023926,-6.818448066711426,-13.615736961364746,-34.36153030395508
0,176008,16.325315475463867,1.1228761672973633,4.694032192230225,-17.3284912109375
0,176010,2.8354198932647705,-13.6808443069458,6.677862167358398,-6.87258768081665
0,176012,9.782846450805664,-30.23505210876465,6.037443161010742,3.5912773609161377
0,176014,16.981245040893555,-4.024006366729736,-5.127806663513184,2.0704383850097656
0,176088,-7.424192905426025,9.08890151977539,-3.661099672317505,7.671064853668213
0,176089,6.349249839782715,-21.87017822265625,-1.0127404928207397,-7.732666969299316
0,176089,3.383815050125122,-25.47163963317871,1.7680467367172241,-11.680005073547363
0,176089,-21.762269973754883,1.467476725578308,0.1642015129327774,2.774714469909668
0,176089,-12.458621978759766,39.09698486328125,-2.0101635456085205,7.377557277679443
0,176089,8.926878929138184,14.672868728637695,-2.2844083309173584,26.709848403930664
0,176089,3.420635938644409,-4.718563079833984,12.894189834594727,27.408180236816406
0,176090,-30.405698776245117,20.159143447875977,15.204899787902832,-11.676292419433594
0,176090,6.882576942443848,28.36554527282715,-9.477987289428711,-23.74567413330078
0,176090,36.46479415893555,-11.505810737609863,-15.453487396240234,8.309809684753418
0,176090,-25.17502212524414,-17.61151885986328,-2.4151904582977295,-14.319356918334961
0,176090,-34.3550910949707,4.103063106536865,-2.9536139965057373,-29.79117774963379
0,176090,29.412691116333008,-7.834691524505615,7.95197868347168,17.798873901367188
0,176091,33.66188430786133,-6.398526191711426,13.39145565032959,12.822091102600098
0,176091,-18.044044494628906,-2.6747055053710938,-6.030932903289795,2.7273197174072266
0,176091,-18.853134155273438,-8.389843940734863,2.2699949741363525,26.782854080200195
0,176091,6.172370910644531,21.50472068786621,-9.562850952148438,21.994056701660156
0,176091,22.403823852539062,18.154333114624023,-7.825292587280273,-0.9569400548934937
0,176091,11.583559036254883,-14.147151947021484,18.695219039916992,4.937938213348389
0,176092,-1.7762627601623535,3.229886054992676,4.1243414878845215,6.138401508331299
0,176092,7.664663314819336,8.022583961486816,10.148953437805176,-24.585041046142578
0,176092,-18.12105941772461,5.024139881134033,-0.18437057733535767,-31.107521057128906
0,176092,-9.891402244567871,-6.133849620819092,-27.743377685546875,-10.004949569702148
0,176092,12.543586730957031,-31.231151580810547,10.834129333496094,5.515427112579346
0,176092,-7.8758955001831055,13.25037956237793,24.480623245239258,19.158430099487305
0,176093,8.327237129211426,38.62929153442383,-18.618757247924805,26.628658294677734
0,176093,13.185288429260254,-11.141005516052246,-5.281674385070801,-3.6918609142303467
0,176093,-17.115222930908203,-5.736999988555908,7.743409633636475,-25.014787673950195
0,176093,-16.32424545288086,6.687014579772949,-12.774829864501953,12.262534141540527
0,176093,0.32486692070961,-5.8824076652526855,11.57442569732666,2.977919816970825
0,176093,9.36074161529541,-3.345416307449341,0.7222926020622253,-24.51128387451172
0,176094,13.562886238098145,-10.27647590637207,-16.826162338256836,20.266815185546875
0,176094,3.747028350830078,9.017966270446777,2.367702007293701,4.903855323791504
0,176094,-3.228574275970459,4.350790500640869,4.77667760848999,-20.92861557006836
0,176094,4.620395183563232,-20.00335693359375,10.694973945617676,-0.7593643069267273
0,176094,-7.988106727600098,-1.7596468925476074,-5.4217352867126465,-8.664756774902344
0,176095,-13.603885650634766,10.132978439331055,-13.13422679901123,7.7985005378723145
0,176096,23.213722229003906,8.193621635437012,24.375761032104492,20.56114959716797
0,176096,12.118163108825684,17.317100524902344,14.603806495666504,11.41162395477295
0,176096,-14.338505744934082,14.179425239562988,-25.449443817138672,-12.213900566101074
0,176096,22.232585906982422,-30.717571258544922,-8.578933715820312,-23.74755096435547
0,176098,48.38606262207031,-32.79915237426758,4.040153503417969,9.90407943725586
0,176100,-47.77976608276367,42.497642517089844,1.6961308717727661,39.4268798828125
0,176102,-93.66722869873047,32.910682678222656,-7.3120269775390625,18.80951499938965
0,176104,16.419044494628906,-59.9642333984375,-17.024982452392578,-61.839752197265625
0,176106,12.51248550415039,-54.99038314819336,0.5933880805969238,-50.94914245605469
0,176108,-2.0080888271331787,-9.327539443969727,-10.548962593078613,5.0009355545043945
0,176110,34.06581497192383,-4.262079238891602,-10.995144844055176,-15.222250938415527
0,176112,12.198331832885742,25.86768913269043,32.542266845703125,7.526771068572998
0,176114,-29.214183807373047,41.520748138427734,14.68837833404541,36.869075775146484
0,176116,1.9107061624526978,5.924631595611572,3.4198594093322754,38.4166374206543
0,176118,31.09368896484375,1.9949932098388672,17.610475540161133,30.53342056274414
0,176120,-42.345008850097656,27.52901840209961,-22.138628005981445,-14.989598274230957
0,176122,-19.813949584960938,17.321523666381836,-1.6524279117584229,-42.673397064208984
0,176124,42.056941986083984,-17.38140869140625,19.712322235107422,-25.32585334777832
0,176126,39.454811096191406,-35.983795166015625,-14.147027969360352,22.65909767150879
0,176129,-22.377573013305664,-29.452478408813477,-14.605855941772461,21.32533836364746
0,176130,-48.511661529541016,1.64217209815979,-15.96561050415039,-30.907114028930664
0,176216,19.117252349853516,53.69218063354492,28.03759765625,35.88054275512695
0,176217,14.003072738647461,18.410215377807617,47.28485107421875,56.541988372802734
0,176217,-23.71689224243164,-60.70372772216797,-48.584110260009766,-66.06414794921875
0,176217,-3.7790234088897705,-34.05694580078125,-38.68693923950195,-49.409523010253906
0,176217,16.551725387573242,25.520296096801758,28.13969612121582,16.089439392089844
0,176217,19.873865127563477,22.945096969604492,14.189359664916992,19.76288604736328
0,176217,2.205631971359253,12.02899169921875,5.456442356109619,24.35622215270996
0,176218,-0.8301101922988892,17.478172302246094,-11.08228874206543,2.6787877082824707
0,176218,11.385701179504395,-15.415177345275879,-3.412245750427246,9.201116561889648
0,176218,-0.026805708184838295,3.5259718894958496,7.185933589935303,5.110336780548096
0,176218,-15.358198165893555,19.168262481689453,-20.30451202392578,-16.620519638061523
0,176218,-14.678229331970215,-24.303804397583008,-4.74002742767334,-12.63990306854248
0,176218,18.428821563720703,-10.019378662109375,14.173492431640625,-1.637880563735962
0,176219,19.68443489074707,1.0282363891601562,-2.8529551029205322,7.820779323577881
0,176219,-15.278037071228027,-8.503418922424316,8.906673431396484,-3.789297103881836
0,176219,-18.713533401489258,-0.1837814748287201,1.675897240638733,3.2154080867767334
0,176219,1.18661367893219,27.050710678100586,-10.237160682678223,-0.6579352617263794
0,176219,17.12113380432129,8.773462295532227,22.608762741088867,-4.534877777099609
0,176220,4.77511739730835,-4.805576801300049,16.431541442871094,32.001556396484375
0,176220,-20.71512222290039,14.94749641418457,-4.583752155303955,11.294281959533691
0,176220,-13.402201652526855,-10.290467262268066,-12.958565711975098,-40.15896987915039
0,176220,8.564177513122559,-17.206457138061523,-22.88056182861328,-31.399944305419922
0,176220,-5.4941725730896,-3.1705479621887207,-12.755105972290039,8.230785369873047
0,176220,5.128683090209961,-0.9430287480354309,6.521117210388184,7.3138108253479
0,176221,16.440778732299805,-5.8879923820495605,15.632331848144531,-17.583707809448242
0,176221,-17.429521560668945,1.2013698816299438,0.7560962438583374,-6.510818958282471
0,176221,-6.790043830871582,-8.754329681396484,-11.644391059875488,8.566930770874023
0,176221,7.983501434326172,-12.503130912780762,7.409830093383789,10.32649040222168
0,176221,0.105977363884449,32.36117172241211,9.646007537841797,3.713951349258423
0,176221,-1.5976686477661133,2.49587082862854,-8.285999298095703,-5.753814697265625
0,176222,-15.91353988647461,-26.78095054626465,-7.46206521987915,-3.2538607120513916
0,176222,8.589340209960938,12.581048965454102,-0.38784414529800415,7.137355804443359
0,176222,20.265174865722656,-16.932836532592773,-5.677791595458984,6.093359470367432
0,176222,-6.291077613830566,-18.125144958496094,-5.491806983947754,-11.751850128173828
0,176222,-2.1902945041656494,24.10293197631836,18.615705490112305,-5.4635210037231445
0,176223,9.21690845489502,-1.8581480979919434,1.2287492752075195,20.805288314819336
0,176223,7.677496433258057,-12.587407112121582,-9.719161987304688,5.218140125274658
0,176223,-1.8322299718856812,17.351228713989258,12.712286949157715,-11.716474533081055
0,176223,-11.23146915435791,16.165348052978516,1.5119214057922363,3.2340407371520996
0,176223,-3.335477352142334,-7.350672245025635,-9.193283081054688,-5.238605976104736
0,176223,2.5663886070251465,-6.375502109527588,-4.304797649383545,3.895587921142578
0,176224,-0.7027515769004822,3.638033151626587,3.773251533508301,2.2456276416778564
0,176224,13.59508991241455,-6.439305782318115,17.115921020507812,-10.515215873718262
0,176225,-1.179467797279358,-3.682248592376709,17.22538185119629,-4.550788879394531
0,176225,-18.22544288635254,22.9504451751709,-12.394316673278809,-12.926809310913086
0,176225,4.510147571563721,6.2757062911987305,-18.232105255126953,13.432389259338379
0,176226,0.6047453284263611,-13.036498069763184,-0.8061946630477905,25.025901794433594
0,176227,-0.015950730070471764,6.371750354766846,8.763721466064453,-17.069974899291992
0,176228,-1.983766794204712,-34.423038482666016,2.0853569507598877,-43.124698638916016
0,176229,-27.637922286987305,-39.33450698852539,-34.6751823425293,-13.988327980041504
0,176232,-17.231245040893555,25.079267501831055,-21.44460105895996,29.92583656311035
0,176234,2.430882453918457,18.8902530670166,55.10600280761719,30.911821365356445
0,176236,82.27549743652344,16.792757034301758,31.46780014038086,41.19034194946289
0,176238,63.26443099975586,52.73826217651367,-19.79128646850586,29.130094528198242
0,176240,-93.85597229003906,10.488492012023926,28.443246841430664,-16.657732009887695
0,176242,-53.01030349731445,-21.588111877441406,-9.88281536102295,-2.272329568862915
0,176244,46.44341278076172,-19.362648010253906,-78.83368682861328,-23.566211700439453
0,176246,12.077317237854004,-34.030555725097656,-5.53787088394165,-40.5194091796875
0,176248,-1.5110249519348145,-14.141064643859863,46.422393798828125,3.7471978664398193
0,176250,-6.917325019836426,-12.089927673339844,0.35526609420776367,-22.704492568969727
0,176252,-29.733652114868164,18.41563606262207,-5.008368492126465,-12.340652465820312
0,176254,11.986698150634766,28.971446990966797,17.991710662841797,52.451297760009766
0,176256,2.4520957469940186,-20.030832290649414,-13.149432182312012,17.82443618774414
0,176258,-13.464838027954102,4.57363748550415,-32.70475769042969,-12.200849533081055
0,176260,49.4244384765625,58.14313888549805,18.65060806274414,20.25559425354004
0,176358,-5.321972370147705,-7.594099044799805,35.946678161621094,5.302974700927734
0,176358,-45.34345626831055,-44.11056900024414,1.0969852209091187,-7.190011501312256
0,176358,41.527381896972656,11.204506874084473,-4.9713568687438965,18.65336036682129
0,176358,15.293563842773438,14.987914085388184,4.776406288146973,4.795431613922119
0,176358,-13.654340744018555,35.489540100097656,4.233053684234619,-8.243370056152344
0,176359,9.282092094421387,11.332846641540527,-18.525968551635742,-7.701834678649902
0,176359,-18.552946090698242,-45.42213821411133,-14.999049186706543,-22.395801544189453
0,176359,-7.372977256774902,-26.074541091918945,-2.3532018661499023,-28.590078353881836
0,176359,-17.4437198638916,1.398578405380249,-16.101699829101562,-17.393102645874023
0,176359,-18.37859535217285,-17.782258987426758,7.511098384857178,5.649017810821533
0,176359,14.395726203918457,-19.02973175048828,23.400209426879883,18.34334373474121
0,176360,20.987014770507812,19.3309268951416,-4.320627212524414,2.2253644466400146
0,176360,21.187118530273438,28.604000091552734,-10.397942543029785,2.352196455001831
0,176360,-2.146174192428589,0.3881968855857849,13.084696769714355,20.606395721435547
0,176360,-14.339607238769531,-0.27036017179489136,19.596696853637695,2.9370949268341064
0,176360,-5.539026737213135,15.26552677154541,-4.578058242797852,-10.711094856262207
0,176360,-3.0201613903045654,-3.297954559326172,-17.44802474975586,2.07499361038208
0,176361,0.7350988388061523,-15.194120407104492,2.7215991020202637,-14.959898948669434
0,176361,-2.5215084552764893,-19.663890838623047,-3.7356534004211426,-25.813581466674805
0,176361,-2.8565845489501953,-9.720434188842773,-21.665870666503906,9.121867179870605
0,176361,13.935759544372559,9.72779369354248,15.628122329711914,10.576581954956055
0,176361,7.072274684906006,1.1091587543487549,18.50184440612793,1.7202868461608887
0,176361,-16.442441940307617,-0.17957758903503418,-12.553322792053223,1.9228169918060303
0,176362,-6.8147292137146,22.8963680267334,-7.821000099182129,13.62950611114502
0,176362,26.790035247802734,1.503721833229065,-1.50977623462677,19.82222557067871
0,176362,15.969049453735352,-15.98202896118164,11.038365364074707,-17.153053283691406
0,176362,-31.22609519958496,-5.159267425537109,9.689062118530273,-14.04613971710205
0,176362,-14.988773345947266,-4.63027286529541,-7.462325096130371,3.3927724361419678
0,176362,26.28505516052246,-3.0668787956237793,6.495283603668213,0.35620617866516113
0,176363,7.835122585296631,2.2360823154449463,-5.155257701873779,-17.848522186279297
0,176363,-22.82343292236328,9.184906005859375,-17.519763946533203,-11.815810203552246
0,176363,-21.285991668701172,1.7508758306503296,-2.4219775199890137,23.194046020507812
0,176363,7.702877521514893,2.4947214126586914,4.226833820343018,-5.206847667694092
0,176363,19.396514892578125,-2.5424575805664062,13.57175064086914,-14.9259033203125
0,176363,-1.4252245426177979,3.069270610809326,1.394156813621521,12.051828384399414
0,176364,-3.3702027797698975,11.606725692749023,-3.6253929138183594,9.63525104522705
0,176364,14.163522720336914,-14.807186126708984,-1.8787721395492554,-12.22905158996582
0,176364,-11.554149627685547,-16.477313995361328,-22.389375686645508,-23.59524917602539
0,176364,-8.293767929077148,1.220814824104309,-7.062434196472168,5.811158657073975
0,176364,24.217283248901367,-7.37021541595459,28.096193313598633,18.915435791015625
0,176365,-11.455695152282715,6.120898723602295,8.668486595153809,10.424114227294922
0,176365,-17.996341705322266,12.101302146911621,-11.559420585632324,-5.699217796325684
0,176365,6.706970691680908,-6.384572505950928,-4.912412643432617,3.1576247215270996
0,176365,17.553190231323242,-0.9592362642288208,-0.34104397892951965,23.161832809448242
0,176365,1.3167322874069214,17.99986457824707,17.565292358398438,0.6911543607711792
0,176365,-22.320634841918945,20.78455924987793,11.176773071289062,1.7882423400878906
0,176366,18.227216720581055,-17.559072494506836,-18.191326141357422,8.397390365600586
0,176366,25.928306579589844,-33.91450500488281,1.9239447116851807,-17.756572723388672
0,176366,-19.466548919677734,9.175627708435059,-0.9577046036720276,-33.56122589111328
0,176367,-3.2319514751434326,6.166694164276123,-24.907873153686523,-5.877098083496094
0,176367,8.930447578430176,-32.40789031982422,1.1068605184555054,7.247162342071533
0,176367,-18.69227409362793,-5.968245506286621,14.888880729675293,8.71248722076416
0,176368,-1.2695080041885376,23.85176658630371,-0.5140846967697144,8.1912202835083
0,176369,-1.7364252805709839,4.265353202819824,-12.257474899291992,-15.643707275390625
0,176370,-26.277484893798828,-25.266963958740234,24.49695587158203,-11.666386604309082
0,176372,-2.320404052734375,-0.5392105579376221,36.62605667114258,13.221179962158203
0,176374,7.561007022857666,23.19561195373535,-35.559608459472656,45.64479064941406
0,176376,-8.571993827819824,27.432392120361328,-18.611906051635742,32.64986038208008
0,176378,47.30242156982422,90.20436096191406,38.261863708496094,20.29016876220703
0,176380,81.75701904296875,47.59650421142578,5.312431812286377,13.153072357177734
0,176382,-98.02255249023438,-39.20051956176758,-0.2164825052022934,-60.16306686401367
0,176384,-90.05866241455078,-22.88364028930664,20.531572341918945,-45.82789993286133
0,176386,111.68463134765625,-70.16162109375,-12.486515045166016,20.731670379638672
0,176388,42.01886749267578,-46.35898208618164,-58.26656723022461,-21.728124618530273
0,176390,-48.56206130981445,4.138679027557373,-27.36943817138672,-34.39606475830078
0,176392,-43.96049880981445,-49.02344512939453,17.84882164001465,19.692712783813477
0,176394,-5.950727939605713,28.410690307617188,26.759653091430664,18.619714736938477
0,176396,10.994470596313477,67.89521026611328,8.361286163330078,-2.0043177604675293
0,176398,3.098855972290039,-9.595951080322266,-5.6310505867004395,21.479524612426758
0,176400,22.49563980102539,-5.718136787414551,9.59438419342041,37.58781051635742
0,176402,0.4631059467792511,-1.4131288528442383,-1.6477625370025635,-7.833549499511719
0,176404,2.938788652420044,3.5039992332458496,-10.233481407165527,-32.88086700439453
0,176407,-4.812195301055908,1.1261852979660034,-3.130347728729248,-32.62749099731445
0,176515,1.8602901697158813,8.557257652282715,-0.9308789372444153,16.390850067138672
0,176515,26.080711364746094,51.835838317871094,9.912031173706055,66.56624603271484
0,176515,2.132516622543335,-12.818108558654785,-0.8041197657585144,-14.918808937072754
0,176516,-5.524727821350098,-45.33029556274414,-10.421501159667969,-49.23064422607422
0,176516,-6.179932117462158,9.486227035522461,0.09826098382472992,-10.993882179260254
0,176516,-19.081256866455078,-7.75555944442749,-5.47268533706665,-5.227506637573242
0,176516,-12.737995147705078,-34.134849548339844,2.72745418548584,12.694964408874512
0,176516,10.31279182434082,7.550078868865967,16.185009002685547,7.2674174308776855
0,176517,3.983271837234497,33.19940185546875,16.70395851135254,12.000186920166016
0,176517,-6.992623329162598,2.4209349155426025,-3.804548740386963,12.936881065368652
0,176517,10.686872482299805,-5.339177131652832,-19.161096572875977,-1.713541865348816
0,176517,-5.452279090881348,31.094867706298828,13.525591850280762,16.725008010864258
0,176517,-10.13097858428955,17.9970645904541,17.205949783325195,-7.1102705001831055
0,176517,8.325711250305176,-36.004940032958984,-9.7818603515625,-32.6132926940918
0,176518,-13.004951477050781,-37.941429138183594,-10.106988906860352,-13.797072410583496
0,176518,-0.6138154864311218,-10.49404239654541,-19.16887092590332,-6.703612327575684
0,176518,16.122541427612305,9.671120643615723,-2.3398985862731934,0.1467815339565277
0,176518,-12.23751449584961,-3.1611428260803223,31.165813446044922,24.406299591064453
0,176518,-5.470404624938965,4.428682804107666,-2.402340888977051,5.615856647491455
0,176518,13.679390907287598,28.038293838500977,-12.635787010192871,10.826838493347168
0,176519,9.117330551147461,6.36752986907959,13.010555267333984,23.769962310791016
0,176519,1.9198100566864014,2.3299167156219482,-7.868409156799316,-20.483478546142578
0,176519,-5.688577175140381,10.391422271728516,6.948352813720703,-1.9855951070785522
0,176519,-12.210594177246094,-12.101700782775879,15.494816780090332,8.258012771606445
0,176519,6.352230548858643,-28.261127471923828,-29.68577766418457,-14.577789306640625
0,176519,18.375181198120117,-0.6737439632415771,-10.475386619567871,3.7519824504852295
0,176520,-9.622997283935547,-5.524735927581787,5.553062438964844,-3.116492986679077
0,176520,1.2602617740631104,-36.862491607666016,-14.980302810668945,-8.240545272827148
0,176520,20.98686981201172,7.716947078704834,13.926492691040039,1.6011977195739746
0,176520,-3.378570318222046,42.277801513671875,6.296295642852783,7.098086357116699
0,176520,4.944589138031006,0.702639102935791,-12.454859733581543,17.052047729492188
0,176521,12.58076000213623,-24.714527130126953,-4.479795932769775,-2.4073688983917236
0,176521,-8.486474990844727,5.0251007080078125,2.902416944503784,-11.056328773498535
0,176521,10.152408599853516,21.81660270690918,14.935832977294922,0.024108389392495155
0,176521,10.507427215576172,-5.655429840087891,-3.1363701820373535,-4.0047712326049805
0,176521,-21.44236183166504,-16.191082000732422,-5.541622638702393,-14.490412712097168
0,176521,-10.556855201721191,9.001222610473633,-1.1918091773986816,1.5034840106964111
0,176522,-4.97916316986084,7.281308174133301,-1.4800795316696167,10.327851295471191
0,176522,-13.352693557739258,-1.579588770866394,3.8994345664978027,-11.30162525177002
0,176522,-2.546225070953369,10.633282661437988,1.1597975492477417,-20.572778701782227
0,176522,-14.888447761535645,-6.4728169441223145,-6.311997413635254,1.8262370824813843
0,176522,-13.195974349975586,-0.48778030276298523,0.10209456086158752,16.62031364440918
0,176522,16.68121910095215,9.920589447021484,10.979129791259766,6.635171413421631
0,176523,2.673126459121704,-20.319072723388672,-9.895687103271484,-13.830201148986816
0,176523,-17.917858123779297,-6.78184700012207,-18.61988639831543,-27.163990020751953
0,176523,3.9866783618927,27.750038146972656,4.434434413909912,-2.7790868282318115
0,176523,13.679165840148926,5.277766704559326,25.76171875,-0.8287505507469177
0,176523,0.6387128829956055,-22.01317024230957,1.20186448097229,21.61477279663086
0,176523,-5.382902145385742,13.934961318969727,-19.62506866455078,43.648155212402344
0,176524,-10.585308074951172,18.84799575805664,19.082839965820312,-26.855960845947266
0,176524,-0.7314363121986389,-18.825206756591797,3.4564857482910156,-26.158472061157227
0,176524,15.99302864074707,-5.430533409118652,-19.33126449584961,35.68412399291992
0,176524,2.27500319480896,18.496122360229492,26.360708236694336,0.5564787983894348
0,176524,2.1049468517303467,-17.844341278076172,3.489593982696533,-23.508577346801758
0,176526,15.337801933288574,-29.994495391845703,-26.343990325927734,-4.472825527191162
0,176526,0.7099422216415405,17.96678352355957,3.3075037002563477,15.93647575378418
0,176526,-16.732601165771484,4.176548480987549,-0.326398104429245,6.1213884353637695
0,176526,-11.1423921585083,-4.360807418823242,4.070996284484863,-15.168867111206055
0,176526,22.94634437561035,6.635426044464111,11.618755340576172,15.460022926330566
0,176526,14.017916679382324,-14.731392860412598,-18.970142364501953,0.39533108472824097
0,176528,-26.934127807617188,-1.9192767143249512,-33.27778625488281,-44.126163482666016
0,176530,1.6651217937469482,-9.787059783935547,9.162187576293945,-8.340862274169922
0,176532,17.422889709472656,-11.293695449829102,39.747154235839844,51.963008880615234
0,176534,-30.99665641784668,30.696474075317383,0.1576654464006424,24.593114852905273
0,176536,-18.35951805114746,25.108470916748047,3.416595220565796,10.052741050720215
0,176538,28.43755531311035,25.376358032226562,33.95875549316406,43.42673873901367
0,176540,41.96086502075195,24.624887466430664,-16.39731216430664,-6.057837963104248
0,176542,74.99130249023438,-3.855503797531128,-39.912288665771484,-41.88492965698242
0,176544,-41.16615676879883,-10.335611343383789,24.11920928955078,-16.77834129333496
0,176547,-156.88760375976562,-61.62165451049805,9.88661003112793,-23.894073486328125
0,176548,68.81907653808594,-37.316680908203125,-37.9897575378418,-24.603046417236328
0,176551,88.25350189208984,27.01634407043457,-3.8385984897613525,-3.8095145225524902
0,176552,-83.10567474365234,-19.534046173095703,29.62743377685547,10.613547325134277
0,176555,31.123767852783203,19.175142288208008,2.4286999702453613,32.00074768066406
0,176556,26.99921417236328,50.01435089111328,-26.749372482299805,34.390785217285156
0,176559,-74.42302703857422,-6.849381446838379,6.851195812225342,-4.4962477684021
0,176560,-17.314022064208984,-9.556763648986816,13.917305946350098,-9.707695007324219
0,176563,42.38614273071289,-11.498262405395508,-5.170841693878174,-16.11922836303711
0,176564,24.04625701904297,15.555968284606934,-5.88031005859375,-21.25006103515625
0,176567,-27.688262939453125,-5.0824995040893555,-16.7930908203125,15.19924545288086
0,176687,-2.24255108833313,-33.08945846557617,10.744206428527832,-9.14482307434082
0,176687,35.55815505981445,26.979169845581055,45.32212448120117,-13.487719535827637
0,176687,1.2162178754806519,22.74704360961914,-14.720911026000977,-0.22804071009159088
0,176687,-16.509244918823242,-24.634363174438477,-23.43324089050293,-19.193119049072266
0,176687,-10.18340015411377,-17.827648162841797,14.39720630645752,-15.488653182983398
0,176687,-4.874135971069336,-12.407186508178711,-29.7474365234375,-3.70274019241333
0,176688,3.910069704055786,-23.116594314575195,-13.520527839660645,13.608201026916504
0,176688,-2.776947259902954,9.889482498168945,33.99730682373047,18.118139266967773
0,176688,-3.4270684719085693,19.50377655029297,-4.940417766571045,21.112653732299805
0,176688,12.373302459716797,11.0045166015625,-19.097423553466797,5.143115043640137
0,176688,15.87790584564209,15.483477592468262,17.490402221679688,3.5901973247528076
0,176689,-6.989130020141602,11.8955717086792,17.512611389160156,18.306026458740234
0,176689,-7.02877140045166,7.447314739227295,-13.641222953796387,4.826254844665527
0,176689,-2.4807889461517334,-10.570308685302734,-13.566055297851562,-14.944355010986328
0,176689,-13.983871459960938,-25.798568725585938,12.508737564086914,-25.689340591430664
0,176689,9.750676155090332,-20.157899856567383,-8.036133766174316,-1.009547233581543
0,176689,7.753289222717285,-2.1408157348632812,-15.43310832977295,19.848268508911133
0,176690,-17.309186935424805,11.627514839172363,10.142350196838379,4.083055019378662
0,176690,4.355708599090576,10.330219268798828,33.51015853881836,-3.4089269638061523
0,176690,15.823827743530273,0.557727038860321,32.26390838623047,27.104440689086914
0,176690,-0.04301309585571289,14.295900344848633,-16.12520408630371,21.957937240600586
0,176690,-0.7645019888877869,13.344843864440918,-21.042829513549805,-21.477737426757812
0,176690,3.586986541748047,-11.721745491027832,-3.171877145767212,-13.317373275756836
0,176691,1.2534841299057007,-18.539167404174805,-8.553513526916504,-8.810455322265625
0,176691,-13.586730003356934,3.4511706829071045,-6.484766006469727,-15.547869682312012
0,176691,-1.169747233390808,26.337736129760742,11.061410903930664,1.2191818952560425
0,176691,15.361156463623047,-13.553473472595215,6.373470306396484,-5.873769283294678
0,176691,-8.893871307373047,-30.03923225402832,-9.660073280334473,1.2052679061889648
0,176692,-6.76702356338501,24.761341094970703,4.894443035125732,15.876687049865723
0,176692,8.391351699829102,25.894031524658203,-4.326305389404297,6.040999412536621
0,176692,2.072596311569214,-0.6730747222900391,-12.977039337158203,6.565816879272461
0,176692,-0.4765401780605316,10.862658500671387,-9.460260391235352,14.166152954101562
0,176692,-12.92495059967041,-2.931960344314575,-12.97081184387207,1.2934309244155884
0,176692,-4.73462438583374,-24.204559326171875,1.9446330070495605,-28.619068145751953
0,176693,25.96990394592285,-0.07988394051790237,23.952728271484375,-25.938507080078125
0,176693,-11.600359916687012,0.146971195936203,8.760555267333984,34.99690246582031
0,176693,-30.60022735595703,-9.354247093200684,-8.524382591247559,3.483729839324951
0,176693,30.643861770629883,1.1134475469589233,0.873790442943573,-41.01356887817383
0,176693,4.871281147003174,7.924455642700195,2.3322150707244873,32.552490234375
0,176693,-25.278459548950195,8.787508010864258,4.718374252319336,18.87899398803711
0,176694,10.097556114196777,-6.812002182006836,-12.857821464538574,-15.512937545776367
0,176694,6.78553581237793,0.7813366055488586,-9.108617782592773,2.2150778770446777
0,176694,13.744796752929688,5.633399963378906,18.021671295166016,-3.931562662124634
0,176694,-1.7101398706436157,1.4497510194778442,9.632753372192383,-7.307007789611816
0,176694,-28.76068687438965,-8.184146881103516,9.189977645874023,-1.687935709953308
0,176694,-4.2420125007629395,-11.20606517791748,-16.200206756591797,8.596993446350098
0,176695,26.127641677856445,10.754711151123047,-31.8845157623291,0.3766009509563446
0,176695,12.276968002319336,3.946307897567749,21.583024978637695,-10.18677806854248
0,176695,-6.417957305908203,-14.340402603149414,24.027021408081055,1.409903645515442
0,176695,-9.124930381774902,-0.09472058713436127,-6.139245510101318,0.7799223065376282
0,176695,-4.164889335632324,20.216310501098633,-6.157711029052734,2.4232170581817627
0,176695,19.258575439453125,-1.3912277221679688,5.926051616668701,2.6561174392700195
0,176696,0.4174639582633972,-10.44312858581543,9.2171049118042,-4.626446723937988
0,176696,-28.60610008239746,13.968587875366211,3.04960560798645,4.726316928863525
0,176696,-3.236090660095215,-11.236518859863281,9.176483154296875,-16.730636596679688
0,176696,28.480220794677734,-16.8685245513916,-8.03222370147705,6.554708957672119
0,176696,0.23057185113430023,21.165861129760742,-12.4337158203125,26.2950439453125
0,176696,-17.06222152709961,4.040837287902832,0.31970688700675964,-15.62588119506836
0,176697,6.628698825836182,-2.831724166870117,-12.527445793151855,1.6808874607086182
0,176697,-11.185283660888672,21.040122985839844,4.483260631561279,1.0978447198867798
0,176698,4.431692123413086,14.433073997497559,22.93480682373047,-2.2116847038269043
0,176698,37.23915100097656,-11.453337669372559,-2.4361133575439453,23.01236915588379
0,176698,-13.133061408996582,-20.378650665283203,-9.466230392456055,-4.612558841705322
0,176698,-26.625051498413086,1.7554882764816284,-7.13429069519043,-11.949201583862305
0,176699,9.153708457946777,4.105541706085205,-19.935470581054688,10.868690490722656
0,176699,12.091240882873535,-0.6590725779533386,-4.440003871917725,-1.7226492166519165
0,176700,34.21508026123047,8.38920783996582,34.10310363769531,-7.40749979019165
0,176701,5.5115814208984375,-13.264050483703613,30.683490753173828,-14.96517276763916
0,176704,-82.11469268798828,-56.125823974609375,-41.3305778503418,-72.1626205444336
0,176705,-22.02059555053711,-29.711673736572266,-47.519432067871094,-21.384111404418945
0,176708,40.905765533447266,-0.47358959913253784,17.606361389160156,38.371768951416016
0,176709,-0.8563842177391052,-10.748113632202148,11.15241813659668,-17.764795303344727
0,176712,60.4134407043457,16.441041946411133,7.696293830871582,6.8578948974609375
0,176713,11.719380378723145,22.723918914794922,21.859172821044922,41.2922477722168
0,176716,-108.8269271850586,38.02754211425781,-22.625961303710938,34.182098388671875
0,176718,-8.588156700134277,35.653621673583984,-10.0171537399292,44.01702880859375
0,176720,79.8176040649414,12.675902366638184,41.52920150756836,7.910224437713623
0,176722,26.78734016418457,0.45951685309410095,16.13250732421875,-28.401840209960938
0,176724,-50.569217681884766,-15.0881929397583,-40.819366455078125,-17.759201049804688
0,176726,-46.598445892333984,-8.018115997314453,-36.180118560791016,-19.90907096862793
0,176728,39.58839416503906,-36.74576187133789,25.800485610961914,-32.06300354003906
0,176730,66.00445556640625,-16.11284637451172,9.774843215942383,-2.6755025386810303
0,176732,-40.502174377441406,34.91151428222656,-9.37870979309082,24.606945037841797
0,176734,-69.54275512695312,-11.560794830322266,18.675106048583984,17.562253952026367
0,176736,14.783005714416504,-7.831583023071289,-6.2952446937561035,12.445672035217285
0,176738,22.01778221130371,34.09803771972656,-7.245389461517334,10.315011978149414
0,176868,20.633785247802734,-49.94785690307617,15.756095886230469,-56.187049865722656
0,176868,1.1411089897155762,-50.515464782714844,-9.30971622467041,-71.94429779052734
0,176869,-18.11311912536621,53.77680587768555,-14.65345287322998,60.256893157958984
0,176869,5.205750942230225,29.3170223236084,11.309690475463867,71.95271301269531
0,176869,13.107109069824219,3.3622279167175293,2.7145187854766846,-11.183025360107422
0,176869,-38.934322357177734,33.17525100708008,3.7680349349975586,-7.955770492553711
0,176869,-6.201999187469482,-32.0560188293457,2.8257620334625244,-3.790555238723755
0,176869,73.956787109375,-54.05061340332031,-20.609188079833984,-29.563323974609375
0,176870,-12.535947799682617,35.10839080810547,2.1327719688415527,-28.494911193847656
0,176870,-22.611003875732422,16.403247833251953,13.540759086608887,16.43900489807129
0,176870,19.284963607788086,-22.02820587158203,-6.518077373504639,23.288976669311523
0,176870,-19.15818214416504,5.900434970855713,-6.073957443237305,8.625515937805176
0,176870,-6.32874870300293,8.053677558898926,-0.3895007371902466,20.8165283203125
0,176871,20.12566566467285,2.452698230743408,16.580747604370117,11.487268447875977
0,176871,-1.7655203342437744,14.241633415222168,15.165916442871094,-3.631136417388916
0,176871,-10.285944938659668,-1.3270598649978638,-15.866061210632324,-4.70387077331543
0,176871,-14.677502632141113,-15.058403968811035,-13.533761978149414,-6.149064064025879
0,176871,-18.37388038635254,27.63884162902832,13.078680038452148,-14.225615501403809
0,176871,27.50197410583496,1.199471354484558,-0.8672033548355103,-14.237387657165527
0,176872,19.53856658935547,-49.604312896728516,-9.729196548461914,7.3159003257751465
0,176872,-15.547248840332031,-3.0102908611297607,24.248790740966797,7.336208820343018
0,176872,-3.8718748092651367,39.788082122802734,1.2930021286010742,-6.374724388122559
0,176872,-0.7479756474494934,1.586739420890808,-23.656888961791992,19.861740112304688
0,176872,6.4069318771362305,-28.282907485961914,18.608644485473633,90.55470275878906
0,176872,9.406551361083984,6.047933101654053,6.877401351928711,-25.550979614257812
0,176873,-3.236786365509033,9.441604614257812,19.694217681884766,-62.06771469116211
0,176873,-28.20977210998535,16.35906219482422,3.733360528945923,28.341754913330078
0,176873,9.51761531829834,42.23143005371094,-61.5900764465332,-79.2933578491211
0,176873,44.71028137207031,-26.64763069152832,8.56208324432373,-12.89892578125
0,176873,-31.930438995361328,-46.420494079589844,21.684473037719727,37.26078796386719
0,176873,-19.932710647583008,12.702839851379395,-23.51254653930664,-15.308602333068848
0,176874,23.439010620117188,23.568788528442383,2.3734943866729736,7.589799404144287
0,176874,2.7823355197906494,16.461284637451172,9.237692832946777,-10.120718955993652
0,176874,-0.6170873641967773,-7.004696369171143,-3.1076738834381104,15.255321502685547
0,176874,-7.516757488250732,-6.942188262939453,-9.986042022705078,26.059940338134766
0,176874,2.5094358921051025,-0.19880568981170654,-6.22037935256958,-16.168363571166992
0,176874,-5.303276538848877,-6.923198699951172,5.992671489715576,-20.170190811157227
0,176875,1.175836443901062,-2.9416236877441406,0.41647347807884216,19.17742919921875
0,176875,15.254549026489258,-24.942543029785156,12.945825576782227,27.28601837158203
0,176875,-16.366268157958984,-16.79166603088379,19.403291702270508,-11.583550453186035
0,176875,-2.935929536819458,18.773168563842773,-20.838993072509766,-0.8497133851051331
0,176875,-1.9241933822631836,29.102935791015625,-17.079769134521484,12.87757396697998
0,176875,-12.394811630249023,-8.004158973693848,33.17354965209961,-23.1976261138916
0,176876,18.413278579711914,-16.276365280151367,9.554411888122559,-9.22920036315918
0,176876,23.819169998168945,15.234084129333496,-37.357208251953125,16.9020938873291
0,176876,-2.311290740966797,-6.873956680297852,0.5215334296226501,7.035317897796631
0,176876,-19.260427474975586,8.649530410766602,22.583227157592773,2.7896780967712402
0,176876,0.6281098127365112,5.331369400024414,12.945087432861328,-5.1113128662109375
0,176876,-1.4839943647384644,-27.1334285736084,-1.636540412902832,-9.273024559020996
0,176877,-6.770256519317627,5.1099934577941895,-21.34158706665039,15.264104843139648
0,176877,-2.1728062629699707,-7.210901737213135,1.0629997253417969,14.56582260131836
0,176877,10.165105819702148,-1.7542567253112793,12.080997467041016,-19.186664581298828
0,176877,10.115403175354004,24.509130477905273,-9.645918846130371,-28.4914493560791
0,176877,-20.377077102661133,-0.6854209303855896,-5.575991153717041,23.104413986206055
0,176878,5.781198501586914,-1.827802062034607,4.506982326507568,-2.3579368591308594
0,176878,17.869844436645508,9.629425048828125,0.8460899591445923,-11.973488807678223
0,176878,-15.602964401245117,-10.71716022491455,7.800662040710449,22.508581161499023
0,176878,-3.9596240520477295,-2.082921266555786,-12.291114807128906,-27.550525665283203
0,176878,22.825834274291992,8.020172119140625,-11.093256950378418,-0.34233665466308594
0,176878,1.6640479564666748,-7.143109321594238,20.32482147216797,26.571144104003906
0,176879,-20.89949607849121,9.148958206176758,3.7534983158111572,-22.799306869506836
0,176879,4.554143905639648,-9.172185897827148,-5.3653974533081055,-10.103413581848145
0,176879,2.8580095767974854,-0.5791209936141968,6.05877685546875,22.611309051513672
0,176879,-21.704906463623047,6.611661434173584,1.6093333959579468,8.49134349822998
0,176879,4.532567024230957,-8.29538631439209,7.1313018798828125,-26.95754051208496
0,176881,23.463804244995117,1.871899127960205,-10.771812438964844,-30.43071937561035
0,176881,-7.502440929412842,-20.49375343322754,-35.106563568115234,10.424996376037598
0,176881,-16.633516311645508,-6.232015609741211,5.13144588470459,9.137269020080566
0,176881,11.292236328125,18.431472778320312,13.349967002868652,3.9963912963867188
0,176881,12.96387004852295,1.5579582452774048,-25.900476455688477,14.604798316955566
0,176881,-12.62723159790039,-12.041547775268555,-7.300509452819824,-10.345638275146484
0,176883,-3.937411308288574,-0.9631589651107788,9.232526779174805,-18.81287956237793
0,176884,0.49011504650115967,10.866052627563477,-7.285217761993408,6.282867431640625
0,176885,-13.284717559814453,-1.805496096611023,0.9024555683135986,-7.396955490112305
0,176888,16.646690368652344,-40.520774841308594,28.124216079711914,-22.88069725036621
0,176889,2.501485824584961,-28.779985427856445,22.797439575195312,5.3846659660339355
0,176892,-13.699579238891602,21.366186141967773,-2.857407808303833,12.922886848449707
0,176893,32.45136260986328,15.135778427124023,4.872851371765137,34.51382064819336
0,176896,-7.054784774780273,32.236202239990234,1.6104108095169067,49.488426208496094
0,176897,-35.404239654541016,38.81243896484375,-16.90584373474121,11.865884780883789
0,176900,11.51966667175293,17.24368667602539,39.85367202758789,7.458383560180664
0,176901,46.3178825378418,17.613725662231445,56.23728561401367,10.169700622558594
0,176904,-12.097272872924805,-38.47967529296875,-63.61109161376953,-67.72474670410156
0,176905,-71.60420227050781,-56.51807403564453,-87.14232635498047,-74.72821044921875
0,176908,20.363325119018555,0.7827386856079102,-2.346363067626953,35.56888198852539
0,176909,40.610965728759766,18.7935791015625,30.13525390625,29.847434997558594
0,176912,-34.07669448852539,-0.3291105628013611,26.15592384338379,-14.988213539123535
0,176913,-4.299126625061035,-6.162328243255615,16.50861930847168,20.337621688842773
0,176916,86.68115997314453,20.180051803588867,-21.294940948486328,3.8329949378967285
0,176917,-28.15729522705078,37.420310974121094,-11.783683776855469,-2.245643138885498
0,176920,-89.9858169555664,-0.01784449815750122,25.856332778930664,44.8752555847168
0,176921,52.545867919921875,-40.74270248413086,-18.706600189208984,4.015341281890869
0,176924,25.139699935913086,-44.473350524902344,-10.73345947265625,-66.44456481933594
0,177064,-1.997707486152649,23.2845401763916,32.74728012084961,-4.5649495124816895
0,177064,15.579492568969727,81.26677703857422,6.277023792266846,49.09266662597656
0,177065,-26.30434799194336,-5.048237323760986,-4.670254230499268,-9.461010932922363
0,177065,-11.140616416931152,-46.16392517089844,5.556521892547607,-29.267419815063477
0,177065,0.45367103815078735,-18.81437873840332,-9.601675033569336,-2.178900718688965
0,177065,-3.6249587535858154,-17.600139617919922,-26.668163299560547,-16.240631103515625
0,177065,13.169151306152344,-9.615750312805176,-13.515511512756348,-25.073881149291992
0,177065,0.7118516564369202,-16.240028381347656,22.136581420898438,6.89999532699585
0,177066,-8.23476505279541,7.377569198608398,19.487272262573242,16.068506240844727
0,177066,11.977843284606934,20.71049690246582,-1.942336916923523,19.483230590820312
0,177066,-4.7195587158203125,0.12153895199298859,-9.620060920715332,19.81385040283203
0,177066,-13.931171417236328,18.88764190673828,-12.456778526306152,3.850297689437866
0,177066,14.817521095275879,20.606103897094727,0.17848648130893707,3.4469308853149414
0,177067,1.3672263622283936,-21.486448287963867,14.658878326416016,-8.71173095703125
0,177067,-14.419462203979492,-6.958779335021973,6.8360137939453125,-19.37799644470215
0,177067,3.842251777648926,4.059113025665283,-24.11460304260254,-19.20829963684082
0,177067,-13.75802230834961,-22.56825065612793,-18.15329933166504,-17.871238708496094
0,177067,-15.067802429199219,-3.191195487976074,17.39250373840332,-0.7241211533546448
0,177067,23.536027908325195,15.08006763458252,5.440743923187256,-0.35696569085121155
0,177068,5.375863552093506,-4.317333698272705,-12.025230407714844,11.03313159942627
0,177068,-10.819416999816895,-1.7945102453231812,15.376998901367188,29.69961929321289
0,177068,5.935366153717041,8.881561279296875,16.377275466918945,7.772030353546143
0,177068,-9.518760681152344,-7.351653099060059,-2.815657615661621,-4.764427661895752
0,177068,-15.309530258178711,-13.71531867980957,-15.659528732299805,4.2042999267578125
0,177068,11.174996376037598,15.362042427062988,-4.518542289733887,-3.7414803504943848
0,177069,25.477767944335938,8.14672565460205,14.221713066101074,-14.438196182250977
0,177069,2.797550916671753,-13.76949691772461,-1.3245035409927368,1.3482489585876465
0,177069,5.149550437927246,16.032081604003906,5.9242072105407715,14.832913398742676
0,177069,7.497303485870361,13.696171760559082,0.4514350891113281,13.485915184020996
0,177069,-16.009449005126953,4.666604995727539,-2.8252756595611572,6.560808181762695
0,177069,2.5358548164367676,5.12623405456543,14.81310749053955,-5.6613664627075195
0,177070,9.586201667785645,4.975016117095947,-3.673070192337036,1.223455786705017
0,177070,7.082780361175537,34.9184684753418,-3.762539863586426,4.058553695678711
0,177070,2.265655517578125,8.08579158782959,-0.1096140518784523,-9.916760444641113
0,177070,-22.295875549316406,-28.6638240814209,-8.528167724609375,8.490118026733398
0,177070,0.5270687341690063,-5.754024028778076,-7.747530937194824,2.6588518619537354
0,177071,-0.865780770778656,-13.101790428161621,0.655017077922821,-26.474212646484375
0,177071,-23.433570861816406,-29.92223358154297,19.475479125976562,-6.8482465744018555
0,177071,7.345095157623291,15.167440414428711,4.184118747711182,22.301820755004883
0,177071,7.089052677154541,26.011295318603516,-22.059999465942383,-0.4897371828556061
0,177071,-10.768940925598145,-33.5152473449707,2.5089471340179443,-9.410432815551758
0,177071,-1.0649945735931396,-19.95942497253418,0.9589096903800964,23.055994033813477
0,177072,8.72275447845459,14.981061935424805,-0.6143696308135986,-6.826889514923096
0,177072,1.1583091020584106,-1.5906299352645874,15.345610618591309,-16.65339469909668
0,177072,-7.710869789123535,1.1894203424453735,-30.413665771484375,21.78218650817871
0,177072,-6.921586036682129,9.014713287353516,-2.7038588523864746,-7.453521251678467
0,177072,8.29028606414795,3.8012442588806152,31.463794708251953,-37.49453353881836
0,177072,27.96947479248047,8.143624305725098,-0.5200645327568054,15.625739097595215
0,177073,-4.320122241973877,8.370774269104004,-8.055246353149414,21.831371307373047
0,177073,-8.159720420837402,-23.07149314880371,-13.2018461227417,14.41916275024414
0,177073,1.4370661973953247,-4.34068489074707,-1.8323134183883667,-2.3936750888824463
0,177073,-16.006187438964844,30.99056625366211,12.41691780090332,-57.2606086730957
0,177073,14.432938575744629,5.358422756195068,7.876305103302002,12.945834159851074
0,177073,19.492998123168945,-5.50228214263916,-10.60976505279541,25.675874710083008
0,177074,-3.700751304626465,-15.187678337097168,-9.48571491241455,-19.41897201538086
0,177074,-10.552136421203613,-6.190647125244141,9.97288703918457,35.90070724487305
0,177074,-2.1677987575531006,8.390057563781738,10.91140365600586,7.424343585968018
0,177074,0.6627993583679199,-23.653133392333984,0.47191566228866577,-36.49740982055664
0,177074,-11.163885116577148,0.31114068627357483,-8.388555526733398,8.053866386413574
0,177074,-3.3976526260375977,31.503454208374023,1.080220103263855,3.5561487674713135
0,177075,17.550861358642578,-7.9950666427612305,14.867177963256836,-3.745013475418091
0,177075,9.563117027282715,-19.490999221801758,-3.4660301208496094,23.186622619628906
0,177075,-16.59197998046875,9.112335205078125,-8.215764045715332,7.048343181610107
0,177075,-2.3073012828826904,18.163278579711914,13.944499015808105,-31.778078079223633
0,177075,12.4006929397583,4.104496479034424,-4.456323623657227,-2.6878585815429688
0,177075,-12.148027420043945,-14.70817756652832,-19.114734649658203,25.274673461914062
0,177076,-17.233135223388672,-3.5907678604125977,-4.716240406036377,-25.81379508972168
0,177076,25.41706085205078,-3.79329514503479,7.9131059646606445,-22.8004093170166
0,177076,5.331116199493408,-4.975527286529541,11.466193199157715,21.974746704101562
0,177076,-36.79157638549805,35.09355163574219,-0.22443872690200806,29.76319122314453
0,177077,21.068639755249023,31.129173278808594,-14.713601112365723,22.19999885559082
0,177078,43.73035430908203,-7.073141574859619,-14.155948638916016,-2.4755241870880127
0,177078,-21.58285903930664,-12.7849702835083,15.558126449584961,-18.52478790283203
0,177078,-16.553213119506836,6.496267318725586,1.3329846858978271,6.6916680335998535
0,177078,14.9616060256958,-10.023197174072266,-20.204824447631836,4.719136714935303
0,177078,-3.657858371734619,-29.265392303466797,1.6798391342163086,-33.66973876953125
0,177078,9.048714637756348,-6.237272262573242,8.09319019317627,-5.52566385269165
0,177080,2.6516835689544678,45.40231704711914,8.064690589904785,28.11567497253418
0,177082,-42.78331756591797,20.738445281982422,6.405910968780518,-52.99067306518555
0,177084,-0.7098746299743652,-58.22716522216797,30.149444580078125,-57.0421257019043
0,177086,33.78410339355469,-53.47902297973633,-5.759701251983643,17.857112884521484
0,177088,-14.881433486938477,-50.08290481567383,-68.77898406982422,-16.343582153320312
0,177090,-15.604818344116211,-17.438499450683594,-14.7473783493042,0.3987061083316803
0,177092,-2.4351108074188232,46.19065856933594,27.23708152770996,41.1935920715332
0,177094,-6.385979652404785,32.63863754272461,44.46944808959961,13.459830284118652
0,177096,0.4721103310585022,25.58937644958496,45.95716094970703,20.321096420288086
0,177098,38.74964141845703,51.188262939453125,-39.8239631652832,46.99959945678711
0,177100,46.4060173034668,14.180776596069336,-46.72010040283203,28.517431259155273
0,177102,-63.46269226074219,-41.62063980102539,6.402451992034912,-23.786779403686523
0,177104,-74.86859130859375,-44.55308532714844,9.288712501525879,-32.90993881225586
0,177106,67.5538101196289,18.0389347076416,-1.3294498920440674,-13.350419998168945
0,177108,69.32805633544922,33.055145263671875,-12.609298706054688,-27.48716163635254
0,177111,-39.39897918701172,-18.141590118408203,42.837432861328125,-7.886288642883301
0,177112,-73.03335571289062,-3.6640467643737793,38.70704650878906,32.536373138427734
0,177115,-6.439164161682129,1.0161974430084229,-43.66761779785156,15.33565616607666
0,177116,49.87532043457031,-13.580628395080566,-37.377098083496094,-5.42242956161499
0,177119,124.36502838134766,36.404579162597656,50.32238006591797,27.79620361328125
0,177120,29.945938110351562,18.882707595825195,35.18909454345703,22.378780364990234
0,177123,-200.14537048339844,-53.86859893798828,-89.22967529296875,-44.670406341552734
0,177124,-33.407840728759766,-6.924099922180176,-27.62309455871582,-43.32868576049805
0,177274,104.91600799560547,43.38932418823242,68.39558410644531,-115.35740661621094
0,177274,-5.834044456481934,10.443069458007812,4.445220947265625,-73.54024505615234
0,177274,-19.787696838378906,-7.083180904388428,-26.59503746032715,93.9949951171875
0,177274,7.931064128875732,-6.509550094604492,5.212644577026367,10.820578575134277
0,177275,-8.720206260681152,-17.78371810913086,13.182046890258789,-33.24387741088867
0,177275,-31.29679298400879,-17.85493278503418,-12.644787788391113,-7.103394985198975
0,177275,3.965402364730835,-22.823556900024414,-18.251684188842773,-15.209505081176758
0,177275,12.670524597167969,-0.26852700114250183,3.375831127166748,15.006261825561523
0,177275,19.102079391479492,22.6688232421875,4.885227203369141,39.094017028808594
0,177276,14.643152236938477,-5.908715724945068,10.532832145690918,61.368106842041016
0,177276,-8.845610618591309,14.306005477905273,9.954668998718262,39.325435638427734
0,177276,10.251789093017578,34.56264877319336,-3.7509350776672363,46.15704345703125
0,177276,-1.3503488302230835,-10.116666793823242,6.5273542404174805,47.021400451660156
0,177276,-2.667009115219116,-10.255708694458008,2.992680311203003,11.387884140014648
0,177276,6.076101779937744,6.625148296356201,-4.3645429611206055,0.0014316057786345482
0,177277,-9.650867462158203,-14.449982643127441,30.166515350341797,-9.453413009643555
0,177277,-8.435359001159668,-2.2200868129730225,-5.2945876121521,5.853143215179443
0,177277,2.7169573307037354,16.81815528869629,-37.74595642089844,7.705219268798828
0,177277,9.045113563537598,2.1598739624023438,20.736507415771484,6.257135391235352
0,177277,5.172858238220215,-11.625374794006348,2.4122157096862793,33.8722038269043
0,177277,11.452722549438477,7.503225803375244,-15.968697547912598,39.059696197509766
0,177278,-5.63532018661499,24.142656326293945,12.330490112304688,16.148950576782227
0,177278,-18.40236473083496,3.3848490715026855,0.721856415271759,-17.307388305664062
0,177278,1.7613825798034668,-15.416511535644531,-18.186464309692383,-33.17283248901367
0,177278,-1.6618115901947021,-13.210955619812012,-11.930431365966797,-21.459257125854492
0,177278,-3.9910521507263184,-14.575265884399414,-10.950592994689941,-37.71607208251953
0,177278,11.544388771057129,-17.97184944152832,-2.749241828918457,-41.31945037841797
0,177279,-4.200239181518555,-0.9488341808319092,9.112445831298828,5.076898574829102
0,177279,-15.719650268554688,-6.444525718688965,-0.44581449031829834,29.289278030395508
0,177279,8.509218215942383,18.896005630493164,-2.5602691173553467,5.149499416351318
0,177279,5.7677106857299805,24.129884719848633,-5.769368648529053,-8.717212677001953
0,177279,-8.80130386352539,-35.1861457824707,7.446671485900879,19.20878028869629
0,177280,7.381314754486084,9.335885047912598,10.828618049621582,5.862315654754639
0,177280,5.455255508422852,13.290400505065918,-4.116146564483643,-26.34319305419922
0,177280,-8.117023468017578,-27.69632339477539,-15.053716659545898,-7.924013137817383
0,177280,-1.086701512336731,21.21333885192871,-3.044664144515991,6.555019378662109
0,177280,0.5468354225158691,10.63930892944336,16.030738830566406,-13.331033706665039
0,177280,7.6176300048828125,-1.1328909397125244,2.008589506149292,-6.4937424659729
0,177280,0.39931559562683105,12.540399551391602,5.426548957824707,8.631377220153809
0,177281,8.31693172454834,6.83602237701416,18.235849380493164,-29.398042678833008
0,177281,15.75352954864502,-3.353276491165161,8.298050880432129,-41.721309661865234
0,177281,-10.169650077819824,-32.158477783203125,14.603740692138672,-20.158470153808594
0,177281,-16.166061401367188,18.191152572631836,-15.669958114624023,-34.723793029785156
0,177281,-2.455857038497925,15.591057777404785,-26.318721771240234,-34.036231994628906
0,177281,16.12017059326172,-46.64333724975586,25.621313095092773,-14.462599754333496
0,177282,-9.142232894897461,22.165882110595703,-2.128232717514038,-0.03593636304140091
0,177282,-16.660463333129883,25.815013885498047,-30.973941802978516,10.053838729858398
0,177282,14.091625213623047,-30.38533592224121,26.36313247680664,-6.387473106384277
0,177282,21.356403350830078,-6.184054374694824,25.757097244262695,7.12888765335083
0,177282,-6.827033042907715,5.422970294952393,-31.243682861328125,42.56702423095703
0,177283,-25.798072814941406,15.653690338134766,-13.188166618347168,18.252574920654297
0,177283,8.824124336242676,1.331649661064148,11.046236038208008,8.731555938720703
0,177283,21.03215217590332,-4.356646537780762,-7.899665832519531,22.92824363708496
0,177283,-6.1379899978637695,-2.888730049133301,-12.05467700958252,-5.71598482131958
0,177283,-18.46063232421875,-31.907548904418945,7.242857456207275,-12.851442337036133
0,177283,-6.677340030670166,7.511962413787842,12.614707946777344,7.800366401672363
0,177284,-6.4462571144104,27.630340576171875,-6.387454986572266,6.337709426879883
0,177284,2.1254751682281494,-12.802454948425293,-17.319860458374023,10.792479515075684
0,177284,12.320643424987793,-11.853771209716797,5.58386754989624,3.163619041442871
0,177284,-3.8184478282928467,7.964383125305176,8.934375762939453,5.479321002960205
0,177284,0.8676849603652954,-2.0605266094207764,-9.598542213439941,14.494805335998535
0,177284,0.8202612400054932,0.9617838859558105,12.942569732666016,-1.7075635194778442
0,177285,-1.5169494152069092,-19.051223754882812,-7.98808479309082,37.1328239440918
0,177285,19.63953399658203,-2.1873583793640137,-9.728204727172852,17.3592472076416
0,177285,2.0786728858947754,60.08149719238281,19.158628463745117,-38.453948974609375
0,177285,-19.29916000366211,1.251142144203186,1.1927398443222046,-12.54075813293457
0,177285,1.3570337295532227,-22.753047943115234,4.533080577850342,-10.5847806930542
0,177285,2.2611145973205566,-15.18195629119873,6.493020534515381,-6.24984884262085
0,177286,-0.431954950094223,-13.617386817932129,1.6666905879974365,-1.116842269897461
0,177286,14.92235279083252,16.9947452545166,4.27710485458374,-10.773354530334473
0,177286,-9.156989097595215,1.381047248840332,-11.642926216125488,-18.077795028686523
0,177286,-14.693673133850098,2.8757102489471436,-11.076459884643555,-30.98491096496582
0,177286,8.089699745178223,-3.7672979831695557,15.386649131774902,-3.9081099033355713
0,177286,-13.466712951660156,-13.69311237335205,13.69572639465332,28.09974479675293
0,177287,-3.634418487548828,6.08725643157959,-13.454960823059082,14.256840705871582
0,177288,28.42903709411621,1.143078088760376,-24.390729904174805,-20.295557022094727
0,177288,-14.386889457702637,-10.892374038696289,8.22653865814209,-15.153437614440918
0,177288,-19.244726181030273,-2.920413017272949,17.34535789489746,18.99387550354004
0,177288,25.77811050415039,4.622964859008789,-18.289030075073242,25.308683395385742
0,177289,-3.932525634765625,23.364944458007812,-19.61020851135254,16.732065200805664
0,177289,-20.33616065979004,15.581497192382812,10.235313415527344,0.2624968886375427
0,177289,12.178803443908691,-13.08608627319336,26.14996337890625,-8.679959297180176
0,177290,22.678686141967773,6.840521812438965,4.250934600830078,2.449406862258911
0,177291,2.0381505489349365,19.517000198364258,-15.446791648864746,-12.549476623535156
0,177294,-30.730390548706055,4.934044361114502,-13.984143257141113,36.86370086669922
0,177295,4.4131669998168945,7.845635414123535,6.550086498260498,95.27770233154297
0,177298,43.878822326660156,16.559045791625977,40.909385681152344,-28.539562225341797
0,177300,-15.095207214355469,6.77551794052124,24.725698471069336,-120.82638549804688
0,177302,-30.3726806640625,-30.070716857910156,-36.49691390991211,72.81648254394531
0,177304,7.228638648986816,-36.80362319946289,-47.60813522338867,121.5151138305664
0,177306,-8.787738800048828,-23.08769989013672,-3.3609836101531982,-138.69932556152344
0,177308,57.11570358276367,-6.52079439163208,19.26534080505371,-149.5137939453125
0,177446,20.69308090209961,28.20621681213379,7.127817630767822,64.8306655883789
0,177446,-101.97797393798828,27.256256103515625,1.6456434726715088,99.54485321044922
0,177446,9.534010887145996,-30.698637008666992,1.6125080585479736,-29.503610610961914
0,177446,36.07062530517578,-31.447717666625977,-4.52864933013916,-47.5551643371582
0,177447,-23.039875030517578,8.202488899230957,-8.494280815124512,5.8181471824646
0,177447,21.482728958129883,1.6838370561599731,5.564117431640625,-9.031963348388672
0,177447,4.467667579650879,13.526464462280273,1.7696552276611328,-5.776796340942383
0,177447,-31.005163192749023,3.7625644207000732,-7.815389633178711,14.919502258300781
0,177447,7.444552898406982,-4.7425642013549805,13.891031265258789,7.612761974334717
0,177448,24.366657257080078,14.758652687072754,16.487714767456055,19.75742530822754
0,177448,-14.574126243591309,-11.877525329589844,5.103250503540039,29.381498336791992
0,177448,-12.789618492126465,-10.55618953704834,-19.31690788269043,-16.33749008178711
0,177448,14.085819244384766,21.454038619995117,-5.752222061157227,-17.577754974365234
0,177448,7.550774574279785,-1.5739655494689941,-1.8630201816558838,-2.1864583492279053
0,177448,9.805931091308594,-34.48249435424805,-12.22140884399414,-18.98590850830078
0,177449,1.232522964477539,1.2866230010986328,18.14632797241211,-5.272741317749023
0,177449,-36.44429397583008,31.81544303894043,12.966695785522461,31.008970260620117
0,177449,-0.8519632816314697,14.906843185424805,7.509805202484131,22.66343879699707
0,177449,28.67233657836914,4.705528736114502,-17.384368896484375,-2.096113443374634
0,177449,-2.0859062671661377,-25.448902130126953,-4.4905524253845215,25.639217376708984
0,177449,-1.3758481740951538,0.5879113078117371,23.17495346069336,2.0664560794830322
0,177450,1.6230926513671875,33.657501220703125,-15.427987098693848,-51.1215705871582
0,177450,-6.354279041290283,-10.20614242553711,-14.921624183654785,6.906247138977051
0,177450,-2.9285857677459717,-32.36333465576172,-6.576831340789795,35.97421646118164
0,177450,0.002458319067955017,11.26182746887207,9.929792404174805,-25.50014305114746
0,177450,8.611825942993164,40.14434814453125,20.85699462890625,-18.287565231323242
0,177450,8.745063781738281,-12.614520072937012,0.44114959239959717,15.141982078552246
0,177451,-5.871753215789795,-22.17550277709961,-8.392752647399902,17.702777862548828
0,177451,-16.554277420043945,20.65042495727539,-19.779216766357422,15.111660957336426
0,177451,6.539609909057617,28.518651962280273,12.114233016967773,-5.20953369140625
0,177451,16.096050262451172,-4.830595016479492,21.2816162109375,-5.7565155029296875
0,177451,-3.6335835456848145,-39.79843521118164,-10.132753372192383,16.6429500579834
0,177452,-5.388845443725586,-1.1967134475708008,-4.635631561279297,7.589587688446045
0,177452,-6.626348495483398,9.189952850341797,2.8549327850341797,-18.86870002746582
0,177452,7.950376033782959,-21.711490631103516,0.3475567400455475,-6.388707160949707
0,177452,17.273900985717773,3.174494743347168,-16.257347106933594,-16.765262603759766
0,177452,-6.581704616546631,6.272186279296875,2.1407461166381836,11.791020393371582
0,177452,-17.984169006347656,-2.920529365539551,3.1481125354766846,19.16362762451172
0,177452,-1.7667444944381714,-3.643791913986206,1.2036648988723755,-42.77122116088867
0,177453,-0.5241915583610535,-16.028963088989258,18.614662170410156,14.478795051574707
0,177453,-19.195423126220703,-7.5542402267456055,-10.297080993652344,43.42241668701172
0,177453,9.0010347366333,-10.721478462219238,-5.045009613037109,-40.298301696777344
0,177453,25.603071212768555,10.397268295288086,-8.174747467041016,-62.84820556640625
0,177453,-12.265360832214355,52.876129150390625,-18.47792625427246,31.90509605407715
0,177453,-17.82090950012207,10.32917594909668,8.82465934753418,25.830026626586914
0,177454,32.088470458984375,-26.619346618652344,34.26639938354492,-15.179438591003418
0,177454,25.519479751586914,-14.391189575195312,-1.6945600509643555,14.800206184387207
0,177454,-48.48234176635742,0.6494686007499695,-24.422414779663086,-19.412479400634766
0,177454,-1.1874332427978516,24.486202239990234,8.871208190917969,-9.531713485717773
0,177454,46.525638580322266,-1.3352864980697632,2.6939122676849365,-6.589205741882324
0,177455,-13.294535636901855,20.21316909790039,-5.619443416595459,10.360382080078125
0,177455,-28.804515838623047,34.691959381103516,11.82425308227539,44.15955352783203
0,177455,6.6018524169921875,-28.460790634155273,20.248336791992188,-14.576850891113281
0,177455,-5.545294761657715,-7.721608638763428,-31.433094024658203,-13.179008483886719
0,177455,1.708292007446289,-3.305814266204834,-15.47152328491211,23.325931549072266
0,177455,29.856613159179688,-28.388965606689453,30.07579803466797,-5.4893317222595215
0,177456,-31.192529678344727,-13.466326713562012,-37.90583801269531,4.220612049102783
0,177456,-13.891572952270508,12.036076545715332,-6.655979633331299,-0.6769899129867554
0,177456,14.990309715270996,28.53338050842285,54.97943878173828,-30.85116958618164
0,177456,-17.50533103942871,-15.449834823608398,-12.308513641357422,-7.10929012298584
0,177456,16.92953109741211,-36.538883209228516,-38.659645080566406,13.754348754882812
0,177456,-0.9681869745254517,-12.909045219421387,2.2842319011688232,-22.21706771850586
0,177457,7.754637241363525,25.372772216796875,19.888111114501953,2.762732744216919
0,177457,19.78993034362793,26.95310401916504,11.953083992004395,76.8023910522461
0,177457,-32.03822708129883,-22.598987579345703,-6.322813510894775,-7.68701696395874
0,177457,-6.469302177429199,-31.056167602539062,-12.024123191833496,-29.707958221435547
0,177457,5.938631057739258,24.366395950317383,2.680986166000366,35.06593704223633
0,177457,-3.5525705814361572,19.509719848632812,10.066988945007324,-1.2961212396621704
0,177458,7.961881637573242,-25.44858741760254,17.191425323486328,-25.805402755737305
0,177459,9.100414276123047,37.91297912597656,2.9428391456604004,-29.033082962036133
0,177459,3.0050113201141357,30.733930587768555,-20.143131256103516,-31.298593521118164
0,177459,0.9268857836723328,-36.547000885009766,-6.008533477783203,4.5536274909973145
0,177459,-4.527765274047852,10.94056224822998,20.079345703125,2.0482192039489746
0,177460,4.462118625640869,7.722163677215576,7.446146488189697,-31.22218132019043
0,177460,8.028562545776367,-36.377681732177734,-21.724327087402344,-0.9514713883399963
0,177461,-7.71066951751709,1.6520980596542358,2.934735059738159,-13.854942321777344
0,177462,22.446012496948242,29.313920974731445,14.195562362670898,-9.473790168762207
0,177464,-2.840108871459961,-15.575754165649414,-23.288244247436523,38.17184066772461
0,177466,-31.316478729248047,-71.9573974609375,-38.5814094543457,44.917911529541016
0,177468,16.210092544555664,-24.529417037963867,-19.666568756103516,88.87822723388672
0,177470,-6.252954959869385,21.619691848754883,20.351329803466797,-28.200231552124023
0,177472,-24.35765266418457,-0.7564550042152405,45.6934700012207,-209.36541748046875
0,177474,8.865889549255371,27.54165267944336,24.745323181152344,93.23345184326172
0,177476,11.2035551071167,59.70207214355469,-11.443207740783691,284.9704895019531
0,177479,-10.612800598144531,53.304935455322266,-1.6872478723526,-150.427001953125
0,177606,-9.913152694702148,-47.44807815551758,-6.88970947265625,-276.2145690917969
0,177607,4.445700168609619,-94.7633285522461,-32.93263244628906,31.408893585205078
0,177607,12.429803848266602,40.574275970458984,14.161219596862793,139.0365447998047
0,177607,9.33211612701416,59.98221206665039,29.330005645751953,37.53646469116211
0,177607,-12.576899528503418,-15.782751083374023,-2.0136876106262207,-16.683040618896484
0,177607,6.2422027587890625,-21.6904239654541,-19.018070220947266,16.288820266723633
0,177607,17.891685485839844,-9.545915603637695,-7.8481125831604,26.33128547668457
0,177608,-5.606103897094727,11.794443130493164,15.025136947631836,3.1141982078552246
0,177608,-3.8284752368927,-10.107545852661133,-14.221749305725098,-9.706412315368652
0,177608,5.459016799926758,-31.14234161376953,-9.806488037109375,2.9186322689056396
0,177608,-4.30318021774292,21.62616539001465,24.320796966552734,-11.36539363861084
0,177608,-2.6824800968170166,38.19756317138672,2.314730644226074,-19.38254165649414
0,177608,-12.200841903686523,-11.221138000488281,4.870058536529541,4.224297046661377
0,177609,-2.1345043182373047,-7.268260955810547,12.60879135131836,2.1897246837615967
0,177609,17.84056282043457,14.662598609924316,-32.922096252441406,-1.8396759033203125
0,177609,-9.135122299194336,-1.4906901121139526,-8.486763954162598,-3.061699628829956
0,177609,-9.422365188598633,-16.113006591796875,29.983503341674805,-12.134773254394531
0,177609,-3.1633787155151367,-12.140152931213379,-11.654269218444824,9.129125595092773
0,177609,3.4576005935668945,-0.5135783553123474,-28.0915584564209,16.68135643005371
0,177610,12.238105773925781,-5.648181915283203,5.082095623016357,-10.35749626159668
0,177610,-7.27530574798584,15.320524215698242,15.006759643554688,-4.790035724639893
0,177610,-9.499184608459473,25.47669792175293,4.463056564331055,25.020532608032227
0,177610,13.021961212158203,4.0924201011657715,5.2121124267578125,11.282853126525879
0,177610,9.595675468444824,4.37453556060791,4.892681121826172,-15.27420425415039
0,177610,-15.975862503051758,-4.3618927001953125,-7.564784526824951,-19.07769203186035
0,177611,-0.9116832613945007,-3.9901068210601807,1.5558958053588867,-14.520878791809082
0,177611,25.056291580200195,6.507225513458252,15.947685241699219,-0.4109077453613281
0,177611,-0.9779517650604248,-11.148173332214355,-13.304758071899414,-3.009183406829834
0,177611,-36.510196685791016,-24.684619903564453,-9.839147567749023,-5.789318561553955
0,177611,-2.825716018676758,-8.561933517456055,8.701011657714844,16.710304260253906
0,177611,24.75853729248047,21.46123504638672,-7.1096062660217285,26.00174331665039
0,177612,-8.999903678894043,7.840555667877197,-0.3350360691547394,-0.21463102102279663
0,177612,-3.553750514984131,-14.505989074707031,6.559535503387451,-20.92745018005371
0,177612,4.196563720703125,5.985311031341553,-11.8740873336792,-19.866985321044922
0,177612,-13.896496772766113,-5.300746917724609,0.07415688782930374,-12.840466499328613
0,177612,6.678342819213867,-7.491360187530518,12.601758003234863,18.05335807800293
0,177613,10.667470932006836,1.4269806146621704,1.9804140329360962,-8.729897499084473
0,177613,8.590391159057617,-19.856529235839844,9.157774925231934,-45.9874153137207
0,177613,-2.6592965126037598,26.376466751098633,-6.356505393981934,-12.408404350280762
0,177613,-7.141071796417236,22.196697235107422,-0.5493285655975342,-0.46730688214302063
0,177613,20.049854278564453,-36.55971145629883,12.480517387390137,48.25291442871094
0,177613,-10.102785110473633,12.344295501708984,-11.289823532104492,54.37076950073242
0,177614,-1.3387762308120728,6.736132621765137,-1.5178688764572144,-27.983539581298828
0,177614,24.08966064453125,-19.13533592224121,2.5634491443634033,-19.266048431396484
0,177614,-6.522170543670654,30.306859970092773,-3.879016399383545,48.782718658447266
0,177614,-4.750290870666504,11.196955680847168,11.488367080688477,36.677093505859375
0,177614,-0.4122873544692993,-10.469615936279297,16.588272094726562,-14.959674835205078
0,177614,-4.9007415771484375,7.006633758544922,-5.122302532196045,3.567122220993042
0,177615,7.274081707000732,9.512751579284668,-19.38407325744629,26.278398513793945
0,177615,-2.688284397125244,-1.7671549320220947,6.229846477508545,-5.283502101898193
0,177615,-1.9682543277740479,-25.117387771606445,2.096683979034424,-16.568626403808594
0,177615,-6.860970497131348,7.26139497756958,-10.450854301452637,-8.338300704956055
0,177615,-12.371342658996582,39.154266357421875,14.00303840637207,-8.590890884399414
0,177615,13.803163528442383,2.6393773555755615,-14.89692211151123,-13.068500518798828
0,177616,-15.065204620361328,-35.621700286865234,-14.140644073486328,-11.200489044189453
0,177616,-18.788366317749023,-20.07956886291504,22.976638793945312,-5.928065299987793
0,177616,17.9720458984375,25.22136878967285,-19.755704879760742,-10.482894897460938
0,177616,2.6434576511383057,0.9495260119438171,-18.61629867553711,14.736873626708984
0,177616,-9.542808532714844,-21.629249572753906,26.58734893798828,7.840141296386719
0,177616,10.374870300292969,27.212907791137695,0.9628942012786865,-7.071664333343506
0,177617,3.9289028644561768,-13.031365394592285,-28.117473602294922,7.275771617889404
0,177617,4.620527744293213,-37.22334289550781,12.843253135681152,-15.535730361938477
0,177617,18.237966537475586,14.572253227233887,26.93719482421875,-4.14278507232666
0,177617,-12.66683578491211,8.884428024291992,-13.906702041625977,14.992103576660156
0,177618,-20.560937881469727,5.1540937423706055,-37.435569763183594,3.025994062423706
0,177619,0.07822973281145096,11.807479858398438,-34.108585357666016,12.72142219543457
0,177619,-2.3213186264038086,14.564617156982422,17.17622947692871,-1.6789079904556274
0,177619,6.122352600097656,-21.600547790527344,24.003173828125,-10.297059059143066
0,177619,5.431972026824951,-19.58885955810547,-3.2280359268188477,11.299079895019531
0,177619,-12.598936080932617,16.534934997558594,5.655241012573242,-2.3859810829162598
0,177620,2.3922507762908936,-20.19700050354004,15.899291038513184,-27.708349227905273
0,177622,28.419126510620117,-15.916717529296875,29.545879364013672,14.54481029510498
0,177625,1.7267166376113892,4.401904582977295,2.189438819885254,-22.002487182617188
0,177626,-30.690263748168945,-13.553899765014648,-24.44488525390625,-125.67298126220703
0,177629,-17.882427215576172,-28.13947868347168,-12.502983093261719,6.296616554260254
0,177630,-5.330914497375488,-12.31454086303711,25.926395416259766,96.69095611572266
0,177633,11.62362003326416,49.20440673828125,29.825363159179688,-12.929330825805664
0,177634,11.491437911987305,43.00501251220703,-1.00620698928833,-7.64091157913208
0,177637,48.98814392089844,-22.885419845581055,-19.773582458496094,100.74249267578125
0,177638,13.46455192565918,9.569663047790527,-36.94069290161133,80.43721008300781
0,177757,-70.53545379638672,68.20333099365234,42.92477798461914,-56.42191696166992
0,177757,22.19692611694336,2.455577850341797,54.02390670776367,-58.298336029052734
0,177757,26.039262771606445,-31.276962280273438,-46.01408767700195,0.06648551672697067
0,177757,-34.17403030395508,-7.725029945373535,-29.05592918395996,22.5887393951416
0,177758,14.295534133911133,-11.571653366088867,20.72673225402832,17.083301544189453
0,177758,3.1213481426239014,-3.020261526107788,-4.156372547149658,-38.43394470214844
0,177758,-14.554179191589355,-3.1589694023132324,-19.64122200012207,-25.16337776184082
0,177758,3.8308210372924805,-4.6372857093811035,-7.725207328796387,6.599939346313477
0,177758,-4.926558494567871,-13.367460250854492,-15.10284423828125,-26.36195182800293
0,177758,-17.97992706298828,-7.957698822021484,-16.705692291259766,-20.434282302856445
0,177759,-0.6526963114738464,-1.9002526998519897,-6.783267498016357,15.259204864501953
0,177759,13.21449089050293,-8.702028274536133,0.6881458163261414,23.386455535888672
0,177759,-7.247336387634277,14.217942237854004,10.940536499023438,27.90838050842285
0,177759,1.3023762702941895,25.621858596801758,20.40302848815918,15.954641342163086
0,177759,24.24193572998047,-1.190859079360962,13.74333667755127,7.55910062789917
0,177759,8.462191581726074,-27.108505249023438,-0.1395150125026703,-4.230464935302734
0,177760,-14.447962760925293,0.19227756559848785,-0.9563229084014893,-26.82211685180664
0,177760,-13.187300682067871,11.869282722473145,10.527486801147461,-23.469425201416016
0,177760,6.74639892578125,-32.776912689208984,-2.974313735961914,-11.22799015045166
0,177760,-1.6830270290374756,2.097738742828369,-20.540102005004883,1.7151374816894531
0,177760,-12.420539855957031,-0.37448617815971375,10.369470596313477,66.32274627685547
0,177760,2.9939682483673096,-3.4751412868499756,8.238348960876465,-4.509681701660156
0,177761,26.163551330566406,66.38539123535156,-14.511178016662598,-79.30035400390625
0,177761,27.44875144958496,10.502425193786621,-3.0080080032348633,58.76335525512695
0,177761,-13.067493438720703,-30.52715301513672,-6.707204341888428,40.17287826538086
0,177761,-14.493501663208008,-7.9915852546691895,10.403608322143555,-26.47707748413086
0,177761,4.225887775421143,5.869508266448975,6.7233052253723145,-1.3019027709960938
0,177762,-3.9087507724761963,10.741342544555664,-22.052785873413086,-17.927505493164062
0,177762,-7.554386138916016,-20.578357696533203,2.870621919631958,-17.5662899017334
0,177762,-7.592360019683838,-4.0447211265563965,6.88861608505249,-0.6703507304191589
0,177762,-0.6320030093193054,10.227363586425781,2.694730758666992,3.9396824836730957
0,177762,0.9835759401321411,-10.734579086303711,11.42715835571289,-23.695653915405273
0,177762,-13.102818489074707,9.064496994018555,-0.9621071219444275,-3.205188274383545
0,177763,-3.8747944831848145,8.237135887145996,-13.588715553283691,8.544865608215332
0,177763,11.759692192077637,-18.53837776184082,4.865607738494873,-2.2795612812042236
0,177763,4.395391464233398,2.4378488063812256,27.537731170654297,8.48312759399414
0,177763,3.949820041656494,11.89819049835205,-4.952528476715088,-10.552850723266602
0,177763,2.9282543659210205,-5.0129923820495605,-1.1685141324996948,-8.149779319763184
0,177763,2.0404410362243652,-0.25101447105407715,16.86955451965332,-14.471597671508789
0,177764,6.677456378936768,-10.020063400268555,-4.930183410644531,-9.612642288208008
0,177764,3.5005035400390625,-13.204482078552246,4.5715436935424805,21.0399227142334
0,177764,-3.4016783237457275,5.865972995758057,-0.5949394106864929,8.832504272460938
0,177764,0.8430092334747314,7.5649919509887695,-22.094390869140625,16.30634307861328
0,177764,14.032115936279297,11.750686645507812,-2.3929319381713867,26.89723777770996
0,177764,3.6715593338012695,-3.419394016265869,-14.162016868591309,-1.776056170463562
0,177765,-8.512320518493652,-10.650055885314941,-13.69368839263916,-27.9373722076416
0,177765,23.438905715942383,9.401410102844238,33.303993225097656,-9.272533416748047
0,177765,23.172561645507812,-9.350262641906738,-0.542036771774292,-5.19450569152832
0,177765,-7.8864898681640625,-15.362540245056152,-31.558382034301758,-29.209630966186523
0,177765,-11.347366333007812,11.94800853729248,1.2300974130630493,10.650468826293945
0,177765,-27.98719596862793,3.4846737384796143,10.414140701293945,1.3950811624526978
0,177766,-10.254490852355957,-12.750592231750488,9.368827819824219,-6.483767032623291
0,177766,3.877603054046631,-12.191868782043457,7.858470916748047,25.93321418762207
0,177766,-32.794490814208984,-1.505798101425171,-10.88709831237793,-18.863710403442383
0,177766,-4.686995983123779,17.685134887695312,-10.073735237121582,-38.32551574707031
0,177766,16.063066482543945,4.029606342315674,8.292171478271484,35.19404220581055
0,177766,-47.89585494995117,-11.740852355957031,5.510185241699219,58.31523513793945
0,177767,-24.62224578857422,-1.005886435508728,-14.641093254089355,-6.138929843902588
0,177767,33.2639045715332,0.33167514204978943,10.068329811096191,-29.275354385375977
0,177768,-7.171424388885498,11.903311729431152,38.09775161743164,-2.134064197540283
0,177768,-8.007760047912598,17.558141708374023,-1.1190539598464966,53.47852325439453
0,177768,27.12974739074707,0.25268039107322693,3.007256269454956,16.74378204345703
0,177769,22.552278518676758,7.699561595916748,16.940513610839844,-50.243648529052734
0,177769,14.80368709564209,11.311631202697754,-6.688894748687744,14.074894905090332
0,177769,10.666593551635742,-8.713863372802734,1.1743996143341064,35.525272369384766
0,177770,45.537288665771484,-25.417797088623047,-31.417078018188477,100.145751953125
0,177772,-15.561177253723145,-14.86993408203125,-46.69893264770508,179.82957458496094
0,177774,-94.5921859741211,34.96165466308594,8.188851356506348,-67.47772216796875
0,177776,23.5788516998291,33.5466423034668,18.987735748291016,-286.402099609375
0,177778,53.126426696777344,14.491413116455078,4.017608165740967,-13.731355667114258
0,177780,-16.040437698364258,-3.4343607425689697,-6.167886734008789,188.3267822265625
0,177782,-9.706925392150879,-50.61330032348633,-27.318567276000977,-61.36990737915039
0,177784,-1.8260314464569092,-22.094314575195312,-13.378212928771973,-153.59288024902344
0,177786,7.431358814239502,-6.327016353607178,31.72988510131836,-1.7443417310714722
0,177788,4.630985736846924,-3.226527214050293,33.814701080322266,32.94839859008789
0,177790,-15.811638832092285,29.795028686523438,-6.387256622314453,-12.280125617980957
0,177792,-1.7129870653152466,-0.3335222899913788,7.683351993560791,-15.46048641204834
0,177908,12.302565574645996,-42.10926818847656,0.02630167454481125,-25.402326583862305
0,177909,0.5655499696731567,-14.99052619934082,-28.913908004760742,-23.39794921875
0,177909,14.334993362426758,17.44702911376953,5.195613861083984,70.2976303100586
0,177909,-8.602235794067383,10.606675148010254,-3.839479923248291,77.03164672851562
0,177909,-12.306413650512695,17.212491989135742,-9.563138008117676,-5.739307880401611
0,177909,8.177352905273438,5.580550193786621,-6.737691402435303,2.7766222953796387
0,177909,-3.696897506713867,-19.3193302154541,-0.6543651223182678,-5.9440484046936035
0,177910,-1.2738394737243652,4.731345176696777,16.434589385986328,-51.566287994384766
0,177910,-4.828585147857666,27.40032386779785,-4.775813579559326,0.481008917093277
0,177910,2.014843225479126,2.726001024246216,-4.576682090759277,32.08745574951172
0,177910,-2.9031100273132324,-14.64030647277832,7.322610378265381,-12.981987953186035
0,177910,1.4433013200759888,-9.181206703186035,11.075630187988281,0.0452607199549675
0,177910,8.141815185546875,-2.830477714538574,-9.912357330322266,37.84205627441406
0,177911,-10.028247833251953,11.874601364135742,-4.747015476226807,29.20041275024414
0,177911,-11.590133666992188,5.550662517547607,14.780107498168945,-9.24670124053955
0,177911,0.3171108663082123,-15.503705024719238,-4.854779243469238,-16.68270492553711
0,177911,7.866631507873535,0.9120427370071411,9.55891227722168,6.652346134185791
0,177911,-3.9405596256256104,8.929082870483398,12.472376823425293,-8.865824699401855
0,177911,-9.540223121643066,14.501646041870117,-5.1520609855651855,-26.54660987854004
0,177912,5.11526346206665,3.064413547515869,8.126601219177246,-2.9775784015655518
0,177912,28.402877807617188,-5.801878929138184,3.199270486831665,10.723302841186523
0,177912,13.366927146911621,11.573799133300781,-7.3298659324646,-3.143082857131958
0,177912,-16.51361846923828,-12.1155366897583,-0.3778378665447235,-20.56083106994629
0,177912,-6.43955659866333,-6.7960944175720215,-15.133950233459473,-3.2010536193847656
0,177912,-8.051200866699219,22.758214950561523,-4.253929138183594,14.868939399719238
0,177913,0.5755289196968079,8.672717094421387,22.388696670532227,-6.947051048278809
0,177913,9.530052185058594,-6.3470048904418945,7.4491658210754395,13.757637977600098
0,177913,-13.248419761657715,7.991788864135742,-12.825522422790527,6.156002521514893
0,177913,7.76901388168335,-4.787661552429199,-16.155256271362305,-8.6923189163208
0,177913,18.889854431152344,-18.43822479248047,6.193601131439209,21.260496139526367
0,177913,-0.4150301516056061,18.890304565429688,5.698252201080322,3.567915201187134
0,177914,-2.5031516551971436,-0.6781039834022522,1.1784987449645996,10.978164672851562
0,177914,-19.367948532104492,-28.12456703186035,13.325311660766602,8.88640308380127
0,177914,-7.567648410797119,27.69722557067871,-8.579239845275879,-14.048860549926758
0,177914,11.346441268920898,0.7658302783966064,-13.747749328613281,5.757357597351074
0,177914,-4.283356189727783,-31.266857147216797,2.4936790466308594,-14.7623291015625
0,177915,5.495092391967773,14.505813598632812,-5.662557125091553,-23.975513458251953
0,177915,11.223434448242188,-0.9012765884399414,-0.353502094745636,3.2261555194854736
0,177915,-11.30693244934082,-4.995057582855225,14.285189628601074,8.840452194213867
0,177915,-16.682537078857422,8.619174003601074,0.690984845161438,-16.136037826538086
0,177915,9.638469696044922,-7.300962924957275,-6.859480857849121,-30.08495330810547
0,177915,13.612204551696777,-20.49677276611328,-1.903609037399292,10.997851371765137
0,177916,-0.3785708248615265,-4.677597522735596,-6.1978631019592285,33.8726921081543
0,177916,-6.821679592132568,7.2293524742126465,10.135516166687012,-19.78728675842285
0,177916,-13.82401180267334,9.483410835266113,-2.510512351989746,-35.04972839355469
0,177916,14.531720161437988,13.411104202270508,-1.064250111579895,22.204423904418945
0,177916,20.333480834960938,-11.14409065246582,42.641357421875,51.12996292114258
0,177916,-12.575477600097656,8.638717651367188,-10.278942108154297,36.09584426879883
0,177917,-15.550724983215332,16.12576675415039,-33.304595947265625,-24.322629928588867
0,177917,18.429250717163086,-2.793633222579956,-2.6286447048187256,-38.18838119506836
0,177917,10.873854637145996,-2.4365439414978027,-9.802451133728027,3.75520920753479
0,177917,-27.29806900024414,-10.290277481079102,14.464197158813477,12.836527824401855
0,177917,2.128837823867798,3.6458020210266113,14.863304138183594,6.308117389678955
0,177917,17.354389190673828,5.5096869468688965,-15.88998031616211,-19.404064178466797
0,177918,-3.804918050765991,-10.747724533081055,-6.224191665649414,-22.052705764770508
0,177918,-2.41159725189209,-2.247769832611084,12.755807876586914,4.882399082183838
0,177918,8.476907730102539,-12.314090728759766,-3.472726821899414,3.81772518157959
0,177918,11.179682731628418,7.034104824066162,-5.313323020935059,-5.398158550262451
0,177919,-21.175174713134766,23.948951721191406,-2.1321399211883545,39.58070373535156
0,177920,-24.097145080566406,-27.246971130371094,-10.359329223632812,39.298301696777344
0,177920,15.232380867004395,1.7182445526123047,-2.5289158821105957,-44.245941162109375
0,177920,18.273876190185547,17.33591079711914,-1.246773362159729,-32.47468566894531
0,177920,-12.573671340942383,-30.034791946411133,2.8148152828216553,4.603988170623779
0,177920,-20.380725860595703,-34.33808135986328,-6.12679386138916,-6.474048137664795
0,177922,16.88040542602539,-11.976884841918945,-43.80055618286133,26.862354278564453
0,177924,50.7198486328125,9.101866722106934,11.0511474609375,-122.25908660888672
0,177926,-23.62393569946289,4.037197113037109,40.873050689697266,-110.81906127929688
0,177928,-68.23126220703125,-27.206575393676758,-15.022924423217773,212.2204132080078
0,177930,15.249040603637695,-14.636787414550781,9.761404991149902,67.337890625
0,177932,38.98784637451172,35.055850982666016,14.434982299804688,-128.60157775878906
0,177934,-8.907760620117188,34.59717559814453,0.5813287496566772,12.42812442779541
0,177936,-23.208892822265625,49.71272659301758,24.596635818481445,81.95272827148438
0,177938,20.80854606628418,39.76975631713867,11.650338172912598,39.83306121826172
0,178048,13.771286964416504,-47.36733627319336,-54.669193267822266,-46.68770217895508
0,178048,-31.5633602142334,-46.64368438720703,-19.962858200073242,-3.666109323501587
0,178049,-7.2963995933532715,24.642702102661133,37.766990661621094,70.76715087890625
0,178049,15.623393058776855,23.519001007080078,-14.198163032531738,1.6080645322799683
0,178049,5.99058723449707,-44.574398040771484,7.686611175537109,26.496906280517578
0,178049,-4.6803879737854,-25.447385787963867,30.177391052246094,-23.217205047607422
0,178049,44.01536178588867,61.939002990722656,-25.26910400390625,-138.22549438476562
0,178050,6.877809047698975,10.678488731384277,-17.55070686340332,12.1173095703125
0,178050,-73.39053344726562,-38.58327865600586,12.809819221496582,31.212488174438477
0,178050,17.583913803100586,-2.3378512859344482,6.219763278961182,-35.462677001953125
0,178050,24.11071014404297,-3.5095369815826416,3.6165213584899902,16.756025314331055
0,178050,-23.71085548400879,-4.664247512817383,-0.9537153244018555,12.246956825256348
0,178050,5.9370012283325195,35.15629196166992,3.2325263023376465,-9.17141342163086
0,178051,11.74681568145752,18.031354904174805,7.537170886993408,-9.052908897399902
0,178051,-1.859432339668274,-24.43458366394043,-4.496042251586914,-6.139898300170898
0,178051,-1.755342721939087,-5.423727035522461,6.562739372253418,-4.864627838134766
0,178051,7.641256332397461,-2.571493148803711,-6.317685127258301,8.660036087036133
0,178051,-15.402729034423828,-6.9241743087768555,-12.246726989746094,8.530652046203613
0,178051,-11.255986213684082,-7.452005863189697,21.89864158630371,22.90849494934082
0,178052,18.850187301635742,-11.862403869628906,-0.9662024974822998,22.271825790405273
0,178052,5.018923759460449,15.38376235961914,-11.050086975097656,-26.882369995117188
0,178052,6.073033332824707,15.998255729675293,10.450525283813477,-4.06770133972168
0,178052,1.839924931526184,-5.574873447418213,-19.641416549682617,43.57294464111328
0,178052,-24.673385620117188,16.881818771362305,-5.8107147216796875,-22.74790382385254
0,178052,18.70221519470215,13.121031761169434,33.267032623291016,-33.34583282470703
0,178053,10.728116035461426,-28.238113403320312,-13.85522174835205,21.414491653442383
0,178053,-24.8384952545166,-34.613101959228516,-26.903169631958008,-2.188448190689087
0,178053,14.347855567932129,-0.5676329135894775,10.4484224319458,-7.406942844390869
0,178053,5.243005752563477,12.610326766967773,-2.1080129146575928,11.893357276916504
0,178053,-15.384267807006836,3.609128475189209,3.6112141609191895,19.07244110107422
0,178053,8.764097213745117,11.364209175109863,27.321746826171875,-1.053034782409668
0,178054,6.659090518951416,11.334254264831543,-9.672043800354004,-30.828529357910156
0,178054,-15.263646125793457,9.321733474731445,-23.772573471069336,-4.426629543304443
0,178054,-4.706781387329102,-9.715158462524414,-3.60903263092041,12.156211853027344
0,178054,-5.371827602386475,-0.6272680163383484,-2.3757312297821045,-23.398540496826172
0,178054,-15.303403854370117,18.609285354614258,5.923494815826416,-8.843417167663574
0,178054,6.0752482414245605,-8.825776100158691,12.931084632873535,16.074682235717773
0,178055,4.3013081550598145,5.2725958824157715,8.154425621032715,-3.637673854827881
0,178055,4.630160331726074,0.7304959893226624,-7.361109733581543,13.279594421386719
0,178055,14.383893966674805,-18.880332946777344,7.588405609130859,25.663726806640625
0,178055,7.318710803985596,23.79205894470215,13.797898292541504,0.36786743998527527
0,178055,-15.138041496276855,9.86158275604248,-11.534500122070312,-7.595222473144531
0,178056,-7.6966962814331055,-22.89072036743164,0.39926546812057495,-8.785989761352539
0,178056,6.066440105438232,20.33574867248535,3.638361692428589,-1.623726725578308
0,178056,15.601022720336914,15.74550724029541,0.486327201128006,33.681941986083984
0,178056,21.43643569946289,-28.67853355407715,4.8402228355407715,-24.123046875
0,178056,-9.15460205078125,-11.687662124633789,-13.489106178283691,-33.50011444091797
0,178056,-31.092937469482422,4.766279697418213,-17.32842254638672,61.315216064453125
0,178057,-28.121850967407227,2.1130993366241455,-10.028101921081543,10.35660171508789
0,178057,14.083768844604492,-11.51522159576416,15.251022338867188,-12.619897842407227
0,178057,24.369321823120117,-4.742769718170166,27.64678192138672,29.33952522277832
0,178057,5.614657878875732,13.370758056640625,-18.29706573486328,-11.478703498840332
0,178057,-11.116682052612305,-11.771272659301758,-19.39534568786621,-6.475293159484863
0,178057,2.1452746391296387,-9.719849586486816,25.151227951049805,0.6945639848709106
0,178058,19.2200927734375,9.603140830993652,12.944974899291992,-23.33236312866211
0,178059,8.257140159606934,24.403873443603516,2.278954267501831,-12.103883743286133
0,178059,-2.717223882675171,20.762784957885742,-7.495019435882568,-29.420984268188477
0,178059,-10.245647430419922,-15.623970985412598,-25.326635360717773,3.7569336891174316
0,178059,3.8122682571411133,-22.63280487060547,3.278207540512085,22.21685218811035
0,178060,3.7937393188476562,-13.021684646606445,2.557800531387329,-27.32585334777832
0,178061,-24.178569793701172,-2.014690637588501,-44.98691177368164,-26.093297958374023
0,178062,-29.215099334716797,-8.38449478149414,-25.417766571044922,-22.355449676513672
0,178063,30.876327514648438,17.746557235717773,40.0281867980957,-33.79767608642578
0,178066,81.12984466552734,8.550802230834961,51.74287796020508,5.152505874633789
0,178067,23.76261329650879,-61.89306640625,42.756961822509766,44.99715805053711
0,178070,-126.04283905029297,-10.54928207397461,-40.010799407958984,16.733644485473633
0,178071,-102.65193176269531,30.165727615356445,-94.09986877441406,24.427650451660156
0,178074,92.91427612304688,-1.6266995668411255,26.524887084960938,66.25685119628906
0,178075,121.96170043945312,5.720831871032715,73.72357940673828,9.553060531616211
0,178078,-36.29079818725586,41.81396484375,-16.42583656311035,-47.58810806274414
0,178182,-79.99261474609375,23.74370002746582,-42.63075637817383,-2.155853748321533
0,178182,-0.4408148527145386,-19.305089950561523,13.725309371948242,8.954194068908691
0,178183,1.8045271635055542,-7.9351959228515625,11.66345500946045,-3.568016767501831
0,178183,8.334925651550293,-2.3247039318084717,-22.898189544677734,1.9593392610549927
0,178183,11.416667938232422,8.315008163452148,-4.589674472808838,-10.9068021774292
0,178183,18.953649520874023,7.586996078491211,5.696508884429932,-40.07890701293945
0,178183,25.929141998291016,-11.162040710449219,13.45419979095459,-14.617801666259766
0,178183,-7.618866920471191,-8.380363464355469,26.719755172729492,39.23067092895508
0,178184,7.752296447753906,1.2263989448547363,2.201260805130005,-7.784163475036621
0,178184,12.861239433288574,-1.1744424104690552,-6.330168724060059,-17.64720916748047
0,178184,-4.801971435546875,-3.552687406539917,18.95524787902832,30.155075073242188
0,178184,-11.756012916564941,-13.363146781921387,-3.9559779167175293,25.043804168701172
0,178184,-14.9483642578125,-9.348127365112305,-6.11527156829834,-4.0665411949157715
0,178184,-19.224937438964844,12.372374534606934,8.294197082519531,-22.19017219543457
0,178185,-27.286935806274414,9.512064933776855,-16.291650772094727,-5.815338611602783
0,178185,3.4461586475372314,7.003475666046143,1.6483995914459229,-0.6817946434020996
0,178185,-0.7713980674743652,9.357993125915527,3.405416488647461,-15.57880973815918
0,178185,-23.607635498046875,-18.211708068847656,-13.5780611038208,-7.047092914581299
0,178185,8.751157760620117,-31.962297439575195,19.882308959960938,-2.3872294425964355
0,178185,12.193429946899414,14.06762981414795,16.963842391967773,-22.68876838684082
0,178186,-16.14335060119629,17.336538314819336,-18.376413345336914,3.4947187900543213
0,178186,-18.148643493652344,-5.855513095855713,-2.2157278060913086,47.16465759277344
0,178186,9.42520809173584,-0.08886531740427017,13.338482856750488,13.392642974853516
0,178186,31.52475357055664,-9.515403747558594,-7.57027006149292,-0.7148346900939941
0,178186,-2.0622024536132812,-8.414358139038086,-15.320721626281738,9.901525497436523
0,178186,-4.676164627075195,15.235984802246094,-1.3993748426437378,2.0096216201782227
0,178187,31.498865127563477,23.6440372467041,10.839560508728027,2.9075543880462646
0,178187,1.4647984504699707,5.378767490386963,-7.7517170906066895,-13.21541976928711
0,178187,0.46611490845680237,-16.7148494720459,-2.4462661743164062,-7.174596786499023
0,178187,15.193350791931152,-5.98072624206543,13.52398681640625,6.50255823135376
0,178187,3.5956273078918457,3.4477126598358154,-19.24319839477539,6.026988506317139
0,178187,15.267861366271973,-0.7611262798309326,-5.660654067993164,-11.050992965698242
0,178188,2.7219905853271484,21.680635452270508,-1.5673983097076416,-1.7335261106491089
0,178188,1.9815646409988403,-4.49187707901001,-30.22001838684082,9.830114364624023
0,178188,-9.505148887634277,-37.64269256591797,-7.023597240447998,-33.24344253540039
0,178188,-18.75140953063965,1.0399539470672607,25.412145614624023,6.610860824584961
0,178188,6.000509262084961,7.490548133850098,14.332042694091797,26.27684783935547
0,178188,-0.34861665964126587,-10.04784107208252,-10.082792282104492,-27.598384857177734
0,178189,-26.510820388793945,9.14587116241455,-3.7394826412200928,-8.692459106445312
0,178189,-18.10109519958496,12.79729175567627,-0.8715776801109314,17.723722457885742
0,178189,17.871889114379883,-1.6312421560287476,-3.31952166557312,1.1792398691177368
0,178189,-11.060373306274414,0.3309726119041443,13.046783447265625,-23.8828182220459
0,178189,-16.588558197021484,16.34915542602539,-0.7678898572921753,6.798382759094238
0,178189,34.806396484375,16.921710968017578,-24.065710067749023,62.65142059326172
0,178190,-11.033355712890625,-3.921431541442871,23.390474319458008,36.0809440612793
0,178190,-22.935470581054688,-22.802209854125977,14.122626304626465,-42.542903900146484
0,178190,60.063541412353516,-10.799120903015137,-41.23368835449219,-23.135417938232422
0,178190,34.6236686706543,1.4423435926437378,-11.879183769226074,10.865464210510254
0,178190,-20.57204246520996,4.541458606719971,20.98084259033203,-21.461549758911133
0,178191,5.50840950012207,9.938554763793945,15.165477752685547,15.203520774841309
0,178191,20.347951889038086,4.080198764801025,5.238274574279785,24.011926651000977
0,178191,-0.6439120173454285,-2.619025230407715,14.706756591796875,-15.728934288024902
0,178192,-45.94321060180664,3.089421272277832,-2.812770128250122,-12.766694068908691
0,178192,-30.37194061279297,32.71788024902344,-17.579946517944336,-3.637111186981201
0,178192,12.649755477905273,5.081427097320557,17.960180282592773,8.368297576904297
0,178193,-14.947220802307129,-45.65082550048828,14.110136985778809,-18.908771514892578
0,178193,-14.902222633361816,-5.756532669067383,-7.919528961181641,-20.825923919677734
0,178194,12.177659034729004,8.758179664611816,2.7651476860046387,60.120243072509766
0,178195,-22.293474197387695,-1.5077431201934814,27.24618911743164,46.46195602416992
0,178198,-22.025142669677734,16.01264190673828,10.509664535522461,-61.277530670166016
0,178199,17.85910987854004,-1.9124077558517456,-23.6021671295166,-56.0214958190918
0,178202,-6.652197360992432,19.296764373779297,-28.365306854248047,12.156235694885254
0,178203,16.979446411132812,0.8451420068740845,-22.547012329101562,25.852069854736328
0,178206,49.80406951904297,-76.36309051513672,4.921128749847412,-7.70061731338501
0,178207,-0.10682668536901474,-50.949195861816406,6.2586517333984375,-47.367279052734375
0,178210,-46.29645919799805,5.527490615844727,-2.200228691101074,4.164803981781006
0,178211,-11.270001411437988,41.79330062866211,-0.020458638668060303,22.29153060913086
0,178311,-11.422798156738281,48.86571502685547,18.30042839050293,13.779449462890625
0,178311,-42.963294982910156,-7.262660503387451,14.571060180664062,31.784011840820312
0,178311,36.09220504760742,-15.911564826965332,-24.89727210998535,-15.79330062866211
0,178311,57.91655349731445,3.2269980907440186,-2.6345417499542236,16.80935287475586
0,178311,9.350178718566895,-7.185050964355469,15.55063533782959,26.27339744567871
0,178312,17.31208038330078,15.753995895385742,-4.868675231933594,-26.725984573364258
0,178312,12.687738418579102,18.897357940673828,-12.0023832321167,3.5746638774871826
0,178312,-23.939023971557617,2.5027096271514893,7.946462631225586,3.2042694091796875
0,178312,13.790234565734863,2.841038227081299,-4.4923858642578125,-27.280576705932617
0,178312,40.65290832519531,-5.794569969177246,-28.6415958404541,-10.10093879699707
0,178313,-2.6729180812835693,-1.5049712657928467,1.4801292419433594,-8.784449577331543
0,178313,-9.217418670654297,-18.043376922607422,15.965468406677246,-10.66754150390625
0,178313,-10.00611686706543,-15.804378509521484,6.180744647979736,-11.72379207611084
0,178313,-24.945409774780273,13.146550178527832,-11.573019981384277,-4.67976713180542
0,178313,-1.9364680051803589,-15.67416763305664,2.614248752593994,50.365379333496094
0,178313,11.818554878234863,-10.974799156188965,29.76959800720215,20.821269989013672
0,178314,-24.74966049194336,31.629619598388672,1.2971994876861572,-19.66661834716797
0,178314,-12.013955116271973,26.304601669311523,-6.667410850524902,7.5535993576049805
0,178314,6.831995964050293,11.571928024291992,18.851163864135742,5.0549540519714355
0,178314,1.0911036729812622,-10.502022743225098,-6.438780307769775,6.382448673248291
0,178314,13.983746528625488,0.5337088108062744,-5.901082992553711,-6.7251505851745605
0,178314,-11.090615272521973,27.250362396240234,12.445504188537598,-27.79329490661621
0,178315,-14.958248138427734,-20.18619155883789,-19.205842971801758,-0.8497041463851929
0,178315,2.947711944580078,-21.45456314086914,-11.84044075012207,10.140050888061523
0,178315,-19.40445899963379,25.28501319885254,15.67386245727539,-15.282873153686523
0,178315,-4.960065841674805,-6.050961971282959,8.799087524414062,-13.998228073120117
0,178315,16.087696075439453,-14.782769203186035,-3.16273832321167,25.733112335205078
0,178315,6.282342910766602,20.639013290405273,-4.18037748336792,14.587827682495117
0,178316,13.90119457244873,11.503538131713867,-4.265826225280762,-23.447036743164062
0,178316,-2.6555309295654297,-14.46061897277832,-12.246736526489258,-10.886964797973633
0,178316,-7.68297815322876,-21.700010299682617,-0.9060485363006592,15.309956550598145
0,178316,12.568084716796875,0.5469514727592468,9.70388412475586,8.484088897705078
0,178316,2.777184009552002,1.2301132678985596,-8.769548416137695,-16.420835494995117
0,178316,-7.4564208984375,-21.796506881713867,-12.777631759643555,6.329928874969482
0,178317,-0.7031502723693848,-7.490779876708984,6.672847747802734,12.686328887939453
0,178317,4.691789150238037,-2.81308913230896,9.996634483337402,7.798103332519531
0,178317,11.868003845214844,3.323883056640625,-4.997241020202637,15.499836921691895
0,178317,4.018877029418945,28.750762939453125,-8.794792175292969,-19.493648529052734
0,178317,12.550878524780273,9.711795806884766,2.4036998748779297,-11.458723068237305
0,178318,25.40248680114746,-21.57313346862793,4.907641887664795,33.23994827270508
0,178318,-17.32963752746582,8.573808670043945,3.068202495574951,7.431982517242432
0,178318,-3.902604341506958,15.564592361450195,8.757169723510742,-32.28289031982422
0,178318,23.646739959716797,-31.71025276184082,-5.647830009460449,-19.473278045654297
0,178318,-28.59596061706543,2.030240535736084,-11.006621360778809,13.262199401855469
0,178318,-3.3045928478240967,30.48692512512207,7.577573299407959,42.44064712524414
0,178318,24.200151443481445,-4.232481479644775,12.259997367858887,21.209205627441406
0,178319,-68.14598083496094,-13.767187118530273,2.7629506587982178,-6.698127746582031
0,178319,-64.94269561767578,-15.45327377319336,7.225013732910156,-2.7053418159484863
0,178319,12.139103889465332,-17.053691864013672,15.644792556762695,-11.184587478637695
0,178320,-27.760353088378906,-20.413108825683594,24.691129684448242,-10.608134269714355
0,178320,-27.688257217407227,6.4165191650390625,18.586645126342773,-7.062969207763672
0,178321,30.595766067504883,20.65851593017578,-21.22218894958496,-7.6607465744018555
0,178321,-20.690834045410156,-22.934560775756836,-3.3507394790649414,-6.553818702697754
0,178321,-9.661931037902832,-12.781854629516602,25.827373504638672,-6.112382888793945
0,178322,20.182649612426758,24.595117568969727,52.836570739746094,-16.165117263793945
0,178324,48.46040725708008,-1.0790914297103882,-7.571892261505127,6.918868541717529
0,178326,133.50779724121094,-53.22174072265625,-205.7258758544922,-78.15711975097656
0,178328,-9.459098815917969,-31.34646224975586,-113.41997528076172,-144.5725860595703
0,178330,-131.63015747070312,51.56780242919922,148.97500610351562,65.36958312988281
0,178332,36.31401062011719,51.54348373413086,39.73379898071289,142.63125610351562
0,178334,94.1352310180664,27.242406845092773,-87.87274932861328,102.80394744873047
0,178336,-13.73438835144043,27.750234603881836,40.94995880126953,85.05560302734375
0,178338,88.81267547607422,13.403417587280273,83.3394775390625,-125.89080047607422
0,178340,44.317874908447266,8.335433959960938,11.778141021728516,-140.3138427734375
0,178437,-197.62892150878906,-26.950572967529297,-59.12989807128906,108.69792938232422
0,178437,-72.18903350830078,-24.603538513183594,-5.057397842407227,103.48149871826172
0,178437,74.99270629882812,18.848779678344727,64.76902770996094,-34.3494987487793
0,178437,4.748790264129639,17.403762817382812,11.649333000183105,-35.104183197021484
0,178438,-6.060412406921387,-14.419671058654785,-6.2783966064453125,-14.08244800567627
0,178438,11.77000617980957,-13.988856315612793,0.11107631027698517,-10.392657279968262
0,178438,-5.131499767303467,6.682234764099121,-18.96717643737793,-1.177205204963684
0,178438,-9.123021125793457,-27.43113899230957,-17.7152042388916,-11.043018341064453
0,178438,-1.8100686073303223,-10.204723358154297,-16.94672203063965,-16.961002349853516
0,178438,-2.0421395301818848,16.16208267211914,-5.9785237312316895,13.508172988891602
0,178439,15.130824089050293,8.632373809814453,3.517232656478882,17.656070709228516
0,178439,1.4161114692687988,23.374767303466797,2.034891128540039,5.455572605133057
0,178439,-7.35037899017334,0.20514801144599915,35.48632049560547,2.399139165878296
0,178439,6.905544757843018,-3.7178616523742676,3.3622453212738037,-12.30396842956543
0,178439,-22.672622680664062,-1.7869280576705933,-34.197715759277344,-19.875507354736328
0,178439,7.519797325134277,-25.41423797607422,9.519953727722168,-18.38555335998535
0,178440,13.12656021118164,-13.56066608428955,-1.4919676780700684,1.77603280544281
0,178440,-18.55712890625,-14.95248031616211,-29.18829345703125,-11.279548645019531
0,178440,-8.73959732055664,-21.869186401367188,-1.7873576879501343,5.730316638946533
0,178440,-7.689718723297119,9.71599006652832,3.5232300758361816,20.776016235351562
0,178440,15.06685733795166,13.404086112976074,-18.34856414794922,-24.775053024291992
0,178440,3.390982151031494,4.023099899291992,14.486710548400879,14.705185890197754
0,178441,7.088982105255127,4.469511032104492,25.025691986083984,26.341684341430664
0,178441,19.2053279876709,1.519957423210144,-5.926158428192139,-14.577879905700684
0,178441,-4.158218860626221,2.2060627937316895,11.154653549194336,4.10806131362915
0,178441,6.322067737579346,-0.10246631503105164,-4.975309371948242,-7.0547943115234375
0,178441,-1.2009615898132324,0.8720337152481079,-13.799247741699219,-22.687118530273438
0,178442,-7.9716572761535645,8.466346740722656,7.118880748748779,3.527228355407715
0,178442,-7.134544849395752,-8.372117042541504,-7.176964282989502,0.33415257930755615
0,178442,-18.683473587036133,-36.11162185668945,-3.3073363304138184,-10.94852352142334
0,178442,27.295808792114258,10.795928955078125,12.555848121643066,15.909790992736816
0,178442,16.71080780029297,23.908981323242188,2.8801987171173096,18.272554397583008
0,178442,-37.332332611083984,-5.605014324188232,5.520134925842285,-2.0310475826263428
0,178443,0.18907040357589722,0.5676642656326294,16.06183624267578,6.726736545562744
0,178443,9.568138122558594,-4.431209087371826,8.771737098693848,-11.208051681518555
0,178443,-2.6394126415252686,4.157257556915283,-6.336089134216309,-18.42848777770996
0,178443,11.97889232635498,-9.294894218444824,-31.914400100708008,31.618186950683594
0,178443,-17.373727798461914,-7.755855083465576,0.49714624881744385,12.05378246307373
0,178443,-21.7641544342041,17.798320770263672,28.53443145751953,-26.255233764648438
0,178444,37.014408111572266,10.818395614624023,-14.918266296386719,-1.4178870916366577
0,178444,8.118147850036621,9.200451850891113,-10.673741340637207,-19.568958282470703
0,178444,-35.47898483276367,4.855623722076416,4.251351833343506,-33.42742156982422
0,178444,22.599836349487305,-14.240132331848145,12.499967575073242,-3.854574680328369
0,178444,1.4043573141098022,-14.34969425201416,29.455514907836914,19.40868377685547
0,178444,-38.4837760925293,7.089613914489746,-25.433273315429688,9.420218467712402
0,178445,-0.9675394892692566,18.32356071472168,-32.391700744628906,37.45381546020508
0,178445,5.265429973602295,4.60518217086792,27.246673583984375,55.933448791503906
0,178445,-10.812336921691895,-21.773426055908203,22.699548721313477,-11.375576972961426
0,178446,72.67046356201172,-31.920873641967773,-3.2862017154693604,18.50897216796875
0,178446,89.72515106201172,-15.543744087219238,-10.396235466003418,30.0867977142334
0,178446,-30.65398406982422,10.350383758544922,-8.776778221130371,-45.505672454833984
0,178447,-0.791233479976654,22.307703018188477,-4.392609119415283,-17.355337142944336
0,178447,58.077880859375,-4.492940425872803,-13.183211326599121,0.12897181510925293
0,178448,-45.580562591552734,-0.6772624850273132,-21.5582218170166,-67.43014526367188
0,178449,-124.75979614257812,30.982934951782227,-10.684965133666992,-36.74405288696289
