Aktueller Finger,timestamp_ms,sensor_0,sensor_1,sensor_2,sensor_3
0,1983471,22.582746505737305,1.451747179031372,73.59381103515625,69.56404876708984
0,1983473,-22.08957862854004,-18.033077239990234,-33.07261657714844,55.41535186767578
0,1983476,-21.759878158569336,-1.1010546684265137,49.8310432434082,-37.81891632080078
0,1983477,6.066141605377197,-10.669766426086426,22.021265029907227,-70.73986053466797
0,1983479,-1.4090275764465332,-20.145288467407227,-129.5462188720703,27.63567352294922
0,1983481,5.733288288116455,9.595335960388184,26.160356521606445,52.091346740722656
0,1983483,24.20586585998535,37.64863586425781,88.19400024414062,-2.2933030128479004
0,1983485,-2.8880295753479004,20.01057243347168,7.411121845245361,-19.441268920898438
0,1983487,-45.5103645324707,-52.41885757446289,-102.8097152709961,-20.063568115234375
0,1983489,14.345696449279785,-25.709091186523438,-45.795047760009766,-63.54058837890625
0,1983491,31.214441299438477,30.622228622436523,92.05941009521484,31.56692123413086
0,1983493,-34.390663146972656,2.3902711868286133,6.267869472503662,131.75962829589844
0,1983495,13.969091415405273,20.3797664642334,23.748149871826172,-33.21828079223633
0,1983497,28.653440475463867,17.991994857788086,21.553668975830078,-100.92605590820312
0,1983499,-43.56206130981445,-21.1497745513916,-76.06585693359375,7.055741310119629
0,1983501,-20.225276947021484,-29.58298110961914,-13.40430736541748,64.42813873291016
0,1983503,34.04018020629883,8.393529891967773,48.404388427734375,12.845968246459961
0,1983505,-10.669465065002441,21.08783721923828,17.584245681762695,-21.325191497802734
0,1983507,-12.082046508789062,-4.550528526306152,-42.85158920288086,-7.849340438842773
0,1983509,13.054388046264648,-5.27108907699585,-7.8186540603637695,-10.719270706176758
0,1983511,6.001379489898682,-7.759201526641846,45.905582427978516,7.451498031616211
0,1983513,21.5714168548584,17.094694137573242,-13.863212585449219,8.862947463989258
0,1983515,-23.169740676879883,17.34629249572754,10.39177417755127,-19.973966598510742
0,1983517,-20.87908172607422,-25.79914665222168,3.2684619426727295,-7.15998649597168
0,1983519,53.418983459472656,-11.734367370605469,-47.29018783569336,-4.364907741546631
0,1983521,7.234291076660156,16.092092514038086,17.193706512451172,27.597347259521484
0,1983523,-38.057193756103516,2.9482674598693848,20.0943603515625,1.1654601097106934
0,1983525,9.002578735351562,-13.376891136169434,4.042596817016602,-49.716453552246094
0,1983527,-8.38769245147705,-2.9573404788970947,-34.35233688354492,29.206525802612305
0,1983529,-33.364715576171875,5.9285502433776855,-26.382564544677734,39.198455810546875
0,1983531,30.69019889831543,-25.965627670288086,47.80844497680664,4.170283794403076
0,1983533,54.63096237182617,22.00118064880371,5.072958469390869,-34.68767547607422
0,1983535,-32.71968460083008,27.88321304321289,0.034857358783483505,-43.84489440917969
0,1983537,-34.16726303100586,-39.223976135253906,-23.081327438354492,15.702813148498535
0,1983539,20.02717399597168,-6.345341682434082,-29.5686092376709,45.53143310546875
0,1983541,-14.712885856628418,6.7905473709106445,28.04207420349121,3.120988130569458
0,1983543,-8.646012306213379,8.79779052734375,14.928397178649902,-42.18922424316406
0,1983545,25.035335540771484,27.638813018798828,32.62221908569336,1.393686294555664
0,1983547,9.68658447265625,-0.054471876472234726,-29.828210830688477,28.972156524658203
0,1983549,-11.9811372756958,-22.68670654296875,-31.676774978637695,-18.083389282226562
0,1983551,-6.8080549240112305,-8.930511474609375,56.80659103393555,13.957914352416992
0,1983553,0.6519516706466675,19.83134651184082,-9.994017601013184,26.58728790283203
0,1983555,-13.1019287109375,10.6046142578125,-0.8912262320518494,-20.838850021362305
0,1983557,14.448406219482422,-14.54476547241211,6.982673168182373,11.404304504394531
0,1983559,20.09540557861328,-6.78412389755249,-38.95912551879883,-25.21599006652832
0,1983561,-30.059106826782227,6.4875688552856445,19.29097557067871,-37.96024703979492
0,1983563,2.5705056190490723,11.812063217163086,24.77577018737793,31.121976852416992
0,1983565,23.205175399780273,-14.779396057128906,-4.641730785369873,20.417190551757812
0,1983567,-21.155242919921875,-24.849119186401367,-54.06428146362305,1.414304256439209
0,1983569,-1.8651677370071411,5.620129585266113,-39.94961929321289,-27.505651473999023
0,1983571,15.374979972839355,21.02557945251465,58.75413131713867,-2.490516424179077
0,1983573,3.028956413269043,-1.567774772644043,15.974409103393555,37.75291061401367
0,1983575,-18.109363555908203,-13.758736610412598,3.9133288860321045,-14.766809463500977
0,1983577,-31.08397102355957,-8.749070167541504,9.761205673217773,7.387913703918457
0,1983579,22.277109146118164,16.383258819580078,-45.50189208984375,-16.61071014404297
0,1983581,49.8155517578125,33.33933639526367,23.065059661865234,-29.254465103149414
0,1983583,-12.239753723144531,-22.00001335144043,30.63788604736328,48.02021408081055
0,1983585,-33.711517333984375,-11.977594375610352,-5.761027812957764,20.63103485107422
0,1983587,8.495712280273438,4.506704807281494,-50.81260299682617,-50.88563919067383
0,1983589,27.15624237060547,-12.93203353881836,-35.10445785522461,-31.385478973388672
0,1983591,12.233925819396973,13.107519149780273,79.93624114990234,64.2646255493164
0,1983593,-32.931739807128906,7.455740928649902,24.911758422851562,3.076425552368164
0,1983595,-24.41018295288086,-5.067229747772217,-28.235942840576172,-41.337894439697266
0,1983597,33.09716033935547,8.231432914733887,-12.109278678894043,19.47566795349121
0,1983599,18.99566078186035,1.734018087387085,-1.1996771097183228,5.085008144378662
0,1983601,-20.254261016845703,-8.733516693115234,-5.16129207611084,-9.153874397277832
0,1983603,-4.141838550567627,4.888293743133545,-30.37781524658203,-21.878820419311523
0,1983605,-30.733983993530273,-21.60894203186035,22.531198501586914,-7.909913063049316
0,1983607,-10.544294357299805,-5.1266632080078125,14.506974220275879,54.5611457824707
0,1983609,53.44200897216797,18.908443450927734,-12.19483757019043,41.88154983520508
0,1983611,-5.19414758682251,6.292876720428467,20.137863159179688,-48.77046585083008
0,1983613,-20.237764358520508,22.55438232421875,-5.267580509185791,-34.024539947509766
0,1983615,4.681913375854492,-22.20966339111328,20.41889190673828,28.602367401123047
0,1983617,-0.5721386671066284,-28.432937622070312,11.45177936553955,-6.113758087158203
0,1983619,13.732654571533203,30.418659210205078,-53.090606689453125,-21.21175193786621
0,1983621,-1.6996469497680664,20.486881256103516,21.686439514160156,26.951656341552734
0,1983623,-8.81867504119873,-19.012935638427734,29.729476928710938,8.598896026611328
0,1983625,8.24216079711914,-23.3022403717041,-36.22397994995117,-25.999279022216797
0,1983627,-13.014985084533691,3.0496301651000977,-27.16605567932129,30.28646469116211
0,1983629,-5.906904697418213,23.79241943359375,-1.2581084966659546,-3.9049594402313232
0,1983631,27.101287841796875,8.258240699768066,39.2614860534668,-44.20943832397461
0,1983633,-28.035573959350586,-30.827735900878906,10.972200393676758,10.033623695373535
0,1983635,-4.799496650695801,-5.56161642074585,-6.885371685028076,-5.100127696990967
0,1983637,50.27724075317383,34.940792083740234,-10.903372764587402,-8.750405311584473
0,1983639,-20.780881881713867,-15.222455978393555,-26.0462703704834,42.69584655761719
0,1983641,-13.761360168457031,-15.237759590148926,39.7440299987793,28.75751495361328
0,1983643,11.402953147888184,12.5762300491333,24.420228958129883,-26.442949295043945
0,1983645,-19.82374382019043,-9.063436508178711,-20.092742919921875,-17.16976547241211
0,1983647,-14.062103271484375,-9.149444580078125,-41.007225036621094,-1.0072513818740845
0,1983649,19.441246032714844,-6.099639415740967,-20.806713104248047,-6.957958221435547
0,1983651,26.239238739013672,10.771627426147461,24.166799545288086,-2.0492498874664307
0,1983653,-22.796655654907227,21.29676055908203,16.849424362182617,12.89179801940918
0,1983655,-16.370222091674805,-13.042884826660156,53.382816314697266,6.065012454986572
0,1983657,6.9469709396362305,-17.721111297607422,-24.860675811767578,-7.208473205566406
0,1983659,25.263757705688477,22.541000366210938,-73.5932846069336,-1.870673418045044
0,1983661,15.344080924987793,4.0895819664001465,39.16737747192383,16.436817169189453
0,1983663,-29.152816772460938,-19.504222869873047,23.23295783996582,36.020896911621094
0,1983665,-1.0113211870193481,10.986785888671875,-13.697582244873047,-18.643970489501953
0,1983667,18.90135383605957,25.22270965576172,-24.091773986816406,-48.396087646484375
0,1983669,4.0803303718566895,-14.825913429260254,-18.797927856445312,16.98226547241211
0,1983671,-19.28388214111328,-24.901016235351562,55.65379333496094,14.602494239807129
0,1983673,-18.817867279052734,27.063447952270508,21.796964645385742,-19.767253875732422
0,1983675,16.821971893310547,5.352224826812744,-6.608757019042969,16.10189437866211
0,1983677,3.621288299560547,-27.6560001373291,-24.892141342163086,15.973578453063965
0,1983679,-20.755146026611328,11.539382934570312,-46.608097076416016,-25.816158294677734
0,1983681,8.540160179138184,11.811163902282715,31.322725296020508,10.771496772766113
0,1983683,15.591379165649414,-1.9919170141220093,37.702518463134766,-4.094239711761475
0,1983685,-19.825632095336914,-8.479974746704102,-5.007059574127197,-40.170772552490234
0,1983687,-5.064402103424072,-18.86094093322754,-27.91791534423828,18.53229331970215
0,1983689,25.73768424987793,10.502159118652344,-25.405174255371094,18.69459342956543
0,1983691,-5.090588569641113,26.38243865966797,28.448579788208008,14.353543281555176
0,1983693,-22.315889358520508,-3.161051034927368,2.4562439918518066,-3.7207581996917725
0,1983696,24.06108283996582,-22.001680374145508,14.264769554138184,-38.86928939819336
0,1983697,4.2235565185546875,-18.260181427001953,11.305373191833496,3.5175251960754395
0,1983952,-31.012027740478516,-7.724615573883057,-95.29719543457031,-0.5049212574958801
0,1983953,17.675050735473633,38.88877868652344,-95.75415802001953,8.406606674194336
0,1983954,15.120878219604492,13.561004638671875,-68.87137603759766,35.82987594604492
0,1983957,-4.658599376678467,-28.146800994873047,34.80906295776367,-31.223020553588867
0,1983958,12.56796646118164,25.13528823852539,150.62539672851562,-31.123798370361328
0,1983961,3.5286285877227783,23.54300880432129,224.8252410888672,51.841941833496094
0,1983962,-18.11234474182129,-52.73158264160156,138.30718994140625,38.93115997314453
0,1983965,-28.983840942382812,-23.143396377563477,-26.69546890258789,-23.9768123626709
0,1983966,-6.904593467712402,47.88215255737305,-32.44086456298828,-0.5618055462837219
0,1988538,23.926733016967773,1.8724117279052734,-215.99339294433594,3.8664135932922363
0,1988538,16.580364227294922,-25.796876907348633,-227.23095703125,-51.877803802490234
0,1988539,4.838746547698975,4.755313396453857,-1.2068490982055664,-26.90523338317871
0,1988541,-15.896610260009766,7.704767227172852,24.586284637451172,37.19427490234375
0,1988543,-1.7303001880645752,-4.369950771331787,25.224735260009766,12.310420989990234
0,1988545,23.799230575561523,-4.415696144104004,57.153987884521484,-21.931941986083984
0,1988547,-23.800100326538086,-12.903958320617676,147.58248901367188,7.051673889160156
0,1988549,-15.521498680114746,5.7124176025390625,128.72293090820312,21.539310455322266
0,1988551,2.207157611846924,21.16103172302246,-19.876705169677734,16.855239868164062
0,1988553,-6.423397541046143,0.9052086472511292,-63.87238311767578,1.2907253503799438
0,1988555,32.52174758911133,-2.104353904724121,-34.098777770996094,-20.11574363708496
0,1988557,12.668313980102539,4.45900297164917,-42.56260681152344,1.0015097856521606
0,1988559,-13.70201587677002,15.41621208190918,-140.53143310546875,-25.11562156677246
0,1988561,-4.673200607299805,-20.157297134399414,-81.46765899658203,-27.421268463134766
0,1988563,-2.4757182598114014,-34.154605865478516,63.0090217590332,63.74797821044922
0,1988565,11.403059959411621,15.717840194702148,68.8617935180664,8.84689712524414
0,1988567,-2.5201416015625,23.720287322998047,102.75492095947266,-31.17894172668457
0,1988569,-7.979579448699951,8.47152328491211,63.96620178222656,17.158117294311523
0,1988571,-8.241037368774414,-13.562268257141113,-41.3946533203125,-13.315682411193848
0,1988573,-8.647756576538086,-7.681967735290527,-2.5685958862304688,-0.9276021122932434
0,1988575,17.716720581054688,8.7504301071167,-4.819096565246582,17.423198699951172
0,1988577,-17.914562225341797,-14.14926815032959,-53.910423278808594,-9.062678337097168
0,1988579,-7.065553665161133,5.886892318725586,-82.05239868164062,-0.23235855996608734
0,1988581,37.92534637451172,-2.390779972076416,-46.70226287841797,13.913642883300781
0,1988583,-12.130335807800293,-19.03584098815918,45.58986282348633,-37.189598083496094
0,1988585,-21.67534637451172,27.384023666381836,38.580535888671875,-18.813236236572266
0,1988587,12.577122688293457,34.24182891845703,68.60382080078125,50.45113754272461
0,1988589,-14.289080619812012,-31.093713760375977,33.09107208251953,12.195162773132324
0,1988591,10.970502853393555,-12.893503189086914,-13.356801986694336,-15.579071998596191
0,1988593,56.53949737548828,15.494268417358398,3.480294704437256,-17.604082107543945
0,1988595,-22.56022071838379,-19.6693058013916,-21.736846923828125,10.950887680053711
0,1988597,-34.768798828125,4.716331481933594,-2.35955810546875,29.60601234436035
0,1988599,11.737533569335938,4.393349647521973,-83.51985931396484,-31.387977600097656
0,1988601,-2.996715784072876,9.501097679138184,-70.1233901977539,-51.84379577636719
0,1988603,1.305587887763977,-10.037076950073242,64.31995391845703,19.885007858276367
0,1988605,-5.588188648223877,-19.829376220703125,42.37989807128906,62.09457778930664
0,1988607,-9.784506797790527,20.850906372070312,61.51393127441406,-12.927167892456055
0,1988609,6.624577522277832,6.956605911254883,26.936967849731445,-37.32981872558594
0,1988611,13.353094100952148,-7.071570873260498,-64.09970092773438,9.186915397644043
0,1988613,1.5761122703552246,-4.229085445404053,-7.220071315765381,-0.2971566319465637
0,1988615,-3.870581865310669,6.505402565002441,25.65188980102539,8.29283618927002
0,1988617,-12.513294219970703,-9.757650375366211,3.0849525928497314,31.718576431274414
0,1988619,-13.275460243225098,-23.367572784423828,-77.03143310546875,-32.1357421875
0,1988621,19.81168556213379,17.1281795501709,-34.848785400390625,-41.440582275390625
0,1988623,6.452231407165527,19.65761947631836,76.29486846923828,20.49718475341797
0,1988625,-0.20477712154388428,-1.7544256448745728,9.709281921386719,23.54456329345703
0,1988627,-2.292860984802246,4.880472660064697,24.636266708374023,6.080338954925537
0,1988629,-8.83025074005127,-8.976405143737793,13.484222412109375,1.1987966299057007
0,1988631,21.672834396362305,-11.736128807067871,-47.497230529785156,5.504619121551514
0,1988633,9.320283889770508,9.699270248413086,1.0525296926498413,-12.426179885864258
0,1988635,-28.161775588989258,14.735833168029785,-0.26605457067489624,-10.79378890991211
0,1988637,-15.121410369873047,0.4211796820163727,20.143898010253906,-3.6334781646728516
0,1988639,14.310802459716797,-30.108583450317383,-22.754640579223633,17.5612850189209
0,1988641,23.511091232299805,12.19167709350586,-40.443233489990234,9.889450073242188
0,1988643,3.803783416748047,30.954761505126953,25.908523559570312,-16.66510772705078
0,1988645,-26.874208450317383,-20.844314575195312,13.43832015991211,9.24720573425293
0,1988647,11.702231407165527,5.963827610015869,49.42422103881836,-21.393972396850586
0,1988649,9.052458763122559,10.371212005615234,19.090051651000977,-10.841838836669922
0,1988651,-29.879932403564453,-37.82429122924805,-59.155025482177734,43.019317626953125
0,1988653,14.403722763061523,0.24709072709083557,-23.2331485748291,-9.01009750366211
0,1988655,1.5570114850997925,25.10286521911621,9.442566871643066,-28.966209411621094
0,1988657,-14.243751525878906,-16.35209846496582,32.83388900756836,16.828649520874023
0,1988659,19.163516998291016,-1.3617563247680664,-18.611371994018555,4.609554290771484
0,1988661,-13.74199104309082,8.93652057647705,-45.51842498779297,2.045623779296875
0,1988663,8.576607704162598,-1.5997806787490845,48.70415496826172,23.61263084411621
0,1988665,24.96131706237793,21.429521560668945,22.27969741821289,0.8112539052963257
0,1988667,-36.10202407836914,-1.1702840328216553,-14.814773559570312,-16.743728637695312
0,1988669,-11.95602035522461,-25.0947208404541,-11.183499336242676,-16.703092575073242
0,1988671,30.030969619750977,3.326812744140625,-5.762932777404785,-2.5102431774139404
0,1988673,4.044252872467041,-12.451321601867676,11.92078971862793,28.19241714477539
0,1988675,-16.333194732666016,5.150424003601074,5.857717514038086,-13.95295524597168
0,1988677,8.403109550476074,32.05519104003906,38.157527923583984,-34.30885696411133
0,1988679,1.4949710369110107,-21.335390090942383,-61.4979133605957,17.84993553161621
0,1988681,-14.7599458694458,-17.88885498046875,-63.72433090209961,14.660353660583496
0,1988683,-0.19008956849575043,17.855884552001953,61.86350631713867,-23.8501033782959
0,1988685,4.0277228355407715,1.9852956533432007,0.9264861345291138,2.8183741569519043
0,1988687,11.723212242126465,-14.366957664489746,25.81096649169922,24.081533432006836
0,1988689,6.879385471343994,21.39258575439453,20.86595344543457,-7.2012104988098145
0,1988691,-4.981823921203613,0.3493615388870239,-51.153831481933594,27.669832229614258
0,1988693,-0.48703256249427795,-21.88129425048828,25.429058074951172,6.014177322387695
0,1988695,-2.1163642406463623,31.032855987548828,15.42955493927002,-36.79104995727539
0,1988697,-17.713043212890625,3.5663211345672607,-6.724566459655762,-24.38252067565918
0,1988699,7.960063457489014,-15.127760887145996,-9.69467830657959,11.84615421295166
0,1988701,9.305925369262695,-12.740367889404297,-37.55458450317383,40.34159469604492
0,1988703,-9.512248039245605,7.7705254554748535,12.752498626708984,-25.033000946044922
0,1988705,18.790571212768555,10.192352294921875,15.692684173583984,-7.988097667694092
0,1988707,-9.394059181213379,-48.33832550048828,14.314435958862305,21.448083877563477
0,1988709,-26.945945739746094,-6.750057220458984,-9.510128021240234,-32.487281799316406
0,1988711,8.737746238708496,43.64430236816406,-45.61549377441406,-11.197707176208496
0,1988713,9.358798027038574,11.989739418029785,30.22446632385254,16.094131469726562
0,1988715,3.3823022842407227,-20.743831634521484,36.866981506347656,-12.633641242980957
0,1988717,-6.986472129821777,2.366258144378662,0.539871335029602,28.494380950927734
0,1988719,3.090486526489258,9.657585144042969,-39.0085563659668,23.214170455932617
0,1988721,15.954217910766602,-17.481197357177734,-17.446155548095703,-15.689764022827148
0,1988723,-15.18066120147705,8.567190170288086,39.09599304199219,7.18622350692749
0,1988725,-20.559810638427734,25.46172332763672,-27.295833587646484,-11.358637809753418
0,1988727,21.79791831970215,-7.847214221954346,33.59877395629883,-6.315002918243408
0,1988729,11.45166301727295,-18.168378829956055,34.53673553466797,4.161255359649658
0,1988731,-22.392032623291016,3.5363500118255615,-76.19947814941406,9.9898099899292
0,1988733,24.970600128173828,6.071597576141357,29.982088088989258,55.87925338745117
0,1988735,17.188220977783203,4.653191089630127,41.98028564453125,1.001812219619751
0,1988737,-25.030128479003906,9.373594284057617,-63.98409652709961,-95.03433990478516
0,1988739,-14.051161766052246,6.9119768142700195,-30.813949584960938,-8.402554512023926
0,1988741,-12.905025482177734,-1.2810603380203247,49.84938049316406,67.04965209960938
0,1988743,-7.3162384033203125,-67.79960632324219,28.045122146606445,-85.01754760742188
0,1988745,21.83966064453125,-12.304219245910645,-31.06722068786621,-221.84812927246094
0,1988747,30.58960723876953,114.9612808227539,35.74871063232422,119.5489273071289
0,1988749,-11.818184852600098,12.363471984863281,-10.760854721069336,342.5994567871094
0,1988751,16.089092254638672,-76.02661895751953,-78.20771026611328,-40.07071304321289
0,1988753,41.6811637878418,-43.02009201049805,17.431785583496094,-147.07247924804688
0,1988756,-79.44715881347656,3.3165345191955566,50.23287582397461,6.155767440795898
0,1988757,-53.34559631347656,39.0728645324707,8.821547508239746,12.231365203857422
0,1988760,74.1960220336914,32.58012008666992,-48.54083251953125,-23.19104766845703
0,1988761,19.437562942504883,14.470224380493164,10.834236145019531,-6.789044380187988
0,1988764,-40.06205749511719,-143.08145141601562,35.788246154785156,62.63410949707031
0,1988765,-20.073320388793945,-46.582000732421875,-28.750822067260742,0.2715158760547638
0,1988768,3.111961603164673,233.89698791503906,43.91866683959961,-68.53416442871094
0,1988769,1.8278648853302002,78.96212005615234,15.943656921386719,-4.04466438293457
0,1988770,-0.8094044923782349,-90.6610107421875,-106.45189666748047,-11.344000816345215
0,1988773,78.10502624511719,-81.99882507324219,17.60465431213379,-52.8840217590332
0,1988774,45.07474899291992,-112.61876678466797,122.30460357666016,47.40919876098633
0,1988777,-89.53033447265625,34.545631408691406,-36.31792449951172,80.86013793945312
0,1988778,-3.2447519302368164,176.31411743164062,-56.6645393371582,-17.189449310302734
0,1988781,29.28805160522461,19.226179122924805,-15.638272285461426,23.94090461730957
0,1988782,-20.76729393005371,-37.486209869384766,-14.763628005981445,43.35134506225586
0,1988785,10.175374984741211,-73.21137237548828,66.05171966552734,-103.87495422363281
0,1988786,-40.84811019897461,-141.41526794433594,-27.296051025390625,-102.32722473144531
0,1988789,-62.10036849975586,-47.941585540771484,-32.64494705200195,-0.9534305334091187
0,1988790,-9.238398551940918,-42.46116638183594,19.798215866088867,35.24020004272461
0,1988794,19.5300235748291,241.60350036621094,-4.538495063781738,144.81399536132812
0,1988795,4.729544639587402,323.60504150390625,52.38038635253906,55.88702392578125
0,1988796,44.85810852050781,-69.13441467285156,-12.593059539794922,-187.85121154785156
0,1988799,186.1223907470703,-159.44020080566406,-60.86824035644531,-86.6755142211914
0,1988800,46.93586349487305,-153.17312622070312,17.895124435424805,79.33102416992188
0,1988803,-215.22384643554688,-55.640724182128906,41.91048812866211,166.36911010742188
0,1988804,-62.59505844116211,28.632781982421875,-25.32110595703125,83.0838394165039
0,1988807,68.87081146240234,6.067049980163574,11.378400802612305,-100.86915588378906
0,1988808,12.573761940002441,90.25825500488281,9.384537696838379,-18.071979522705078
0,1988811,-18.05009651184082,40.705596923828125,-48.33058166503906,0.055995356291532516
0,1988812,-47.11459732055664,-55.590335845947266,9.618428230285645,-82.1209716796875
0,1988815,-9.75200366973877,-116.49884796142578,44.673858642578125,-50.576969146728516
0,1988816,-8.537262916564941,-52.05902862548828,32.30381774902344,12.536003112792969
0,1988819,1.6801587343215942,0.9439842700958252,-67.30465698242188,14.226255416870117
0,1988820,5.544565677642822,63.41164016723633,-19.552934646606445,-12.214740753173828
0,1988823,41.6058349609375,273.6914978027344,66.64480590820312,52.13290023803711
0,1988824,100.20558166503906,44.73991394042969,-18.95003318786621,81.88327026367188
0,1988827,-36.36210250854492,-187.50552368164062,-7.136917591094971,-31.418216705322266
0,1988828,-41.74987030029297,-30.185720443725586,-15.33143424987793,-62.33236312866211
0,1988831,82.87226867675781,28.227216720581055,-27.261188507080078,92.9404067993164
0,1988832,-24.225507736206055,69.89984130859375,47.226890563964844,-35.43202590942383
0,1988835,-26.99398422241211,-72.24958038330078,20.486019134521484,-263.0532531738281
0,1988836,13.111135482788086,-178.82080078125,-22.199247360229492,58.09418869018555
0,1988839,-116.91219329833984,71.34374237060547,-55.1230583190918,261.06024169921875
0,1988840,-36.08696746826172,93.24433898925781,-20.704381942749023,-1.320197343826294
0,1988843,79.38213348388672,-20.99237823486328,47.02713394165039,11.435819625854492
0,1988844,37.15029525756836,24.38139533996582,21.6002197265625,48.551631927490234
0,1988847,3.2113759517669678,10.34886646270752,44.042144775390625,-208.5963592529297
0,1988848,-30.90102195739746,-52.47125244140625,-17.002559661865234,-252.68032836914062
0,1988851,-12.217212677001953,4.984848499298096,-76.35901641845703,197.03114318847656
0,1988852,42.05054473876953,89.53296661376953,34.86296463012695,345.6414489746094
0,1988855,-1.5585945844650269,-3.8069698810577393,45.89060592651367,-131.724609375
0,1988856,-20.00112533569336,-75.25183868408203,-9.703038215637207,-178.31224060058594
0,1988859,32.66864776611328,0.45526278018951416,-10.627457618713379,179.14334106445312
0,1988860,9.712467193603516,27.318222045898438,-2.961266040802002,183.06675720214844
0,1988863,-40.82537841796875,-20.176959991455078,-6.96154260635376,-303.6939697265625
0,1988864,-22.312347412109375,-15.419007301330566,-26.910856246948242,-482.99810791015625
0,1988867,32.82413101196289,-9.620335578918457,43.402774810791016,196.73974609375
0,1988868,-1.9937822818756104,-31.214773178100586,-0.3581356406211853,329.0477600097656
0,1988871,-34.886478424072266,-11.660606384277344,-73.737060546875,58.0249137878418
0,1988872,3.2271783351898193,16.579116821289062,42.9313850402832,230.74700927734375
0,1988875,1.4914835691452026,-25.777250289916992,49.739070892333984,-14.69589900970459
0,1988876,16.32533836364746,31.981021881103516,-25.699357986450195,-231.267333984375
0,1988879,47.07038116455078,339.18988037109375,-59.5788459777832,-574.7569580078125
0,1988880,-1.1386053562164307,195.95849609375,20.302648544311523,-20.276254653930664
0,1988883,25.465303421020508,-414.6678771972656,60.4510498046875,928.7109985351562
0,1988884,96.68177795410156,-377.03912353515625,-28.62689781188965,-2.759054660797119
0,1988887,-104.89111328125,105.23434448242188,8.630967140197754,-505.2274169921875
0,1988888,-177.15296936035156,134.99989318847656,4.656990051269531,-50.20442199707031
0,1988891,43.291255950927734,31.21843910217285,-58.771148681640625,-24.414270401000977
0,1988892,49.70676803588867,77.2830581665039,3.9971225261688232,39.69507598876953
0,1988895,27.880733489990234,6.420934677124023,70.91712188720703,244.68008422851562
0,1988896,16.38026237487793,-88.08106994628906,24.549596786499023,104.54440307617188
0,1988899,-28.472278594970703,-79.12840270996094,-90.25907135009766,-147.1587371826172
0,1988900,69.96341705322266,-11.874155044555664,-25.18302345275879,-7.601239204406738
0,1988903,-15.656548500061035,114.64562225341797,74.98656463623047,75.9376449584961
0,1988904,-104.36371612548828,142.78857421875,-24.62285041809082,-89.5604248046875
0,1988907,34.30335235595703,11.019155502319336,0.9000664353370667,-28.915674209594727
0,1988908,49.765316009521484,-30.695314407348633,44.894222259521484,137.520263671875
0,1988911,22.75925064086914,-70.13721466064453,-21.10822105407715,-41.63597106933594
0,1988912,16.574947357177734,-58.3956298828125,-12.155563354492188,-256.2445373535156
0,1988915,-68.45387268066406,-12.637280464172363,-20.574901580810547,-35.59983444213867
0,1988916,-46.48329162597656,-57.95436096191406,-31.47536849975586,150.8374786376953
0,1988919,25.986417770385742,15.867337226867676,5.063645362854004,-163.9727783203125
0,1988920,3.7696046829223633,50.15644836425781,43.5940055847168,17.155630111694336
0,1988923,-8.921894073486328,-4.997533321380615,18.977060317993164,498.61651611328125
0,1988924,15.852319717407227,35.80562210083008,-28.06302261352539,7.300953388214111
0,1988927,32.13278579711914,45.46699142456055,27.259788513183594,-406.80792236328125
0,1988928,27.505273818969727,3.6138501167297363,15.961695671081543,77.52717590332031
0,1988931,-0.8973971009254456,-15.815946578979492,-55.62177276611328,58.63823699951172
0,1988932,-6.679862022399902,-27.67837905883789,2.3595781326293945,-799.1476440429688
0,1988935,-17.137901306152344,-35.982421875,4.376943111419678,37.96369171142578
0,1988936,-51.01823806762695,-50.0145263671875,-1.3833212852478027,1231.932861328125
0,1988939,0.19066818058490753,20.3775577545166,1.338832974433899,-0.33484411239624023
0,1988940,37.903255462646484,-2.6988935470581055,-9.717697143554688,-497.04180908203125
0,1988943,-26.46319007873535,-107.11968994140625,31.796409606933594,58.980873107910156
0,1988944,-13.942596435546875,161.43792724609375,-1.8513695001602173,-152.37686157226562
0,1988947,48.8785285949707,371.5600891113281,24.809450149536133,177.9394989013672
0,1988948,26.609586715698242,20.263324737548828,-22.289525985717773,545.5239868164062
0,1988951,84.12602996826172,-421.4739990234375,-67.16683197021484,-602.39501953125
0,1988952,27.635272979736328,-255.77183532714844,56.94768142700195,-1109.4462890625
0,1988955,-185.89993286132812,177.96676635742188,33.35273742675781,814.0035400390625
0,1988956,-69.200439453125,11.518677711486816,-8.877885818481445,1196.4329833984375
0,1988959,111.99591827392578,12.694129943847656,-11.110616683959961,-799.1052856445312
0,1988960,-14.937448501586914,128.71780395507812,-39.96825408935547,-707.01806640625
0,1988963,-79.06851196289062,23.22534942626953,-0.27139055728912354,484.56207275390625
0,1988964,57.929351806640625,92.86693572998047,13.0656156539917,-243.388427734375
0,1988967,12.938308715820312,-177.2925567626953,12.185905456542969,246.74154663085938
0,1988968,-30.331281661987305,-400.5540466308594,-21.63664436340332,976.9474487304688
0,1988971,100.46858978271484,257.509765625,1.628515362739563,-1011.8378295898438
0,1988972,7.998529434204102,765.8388671875,46.830501556396484,-1057.4410400390625
0,1988975,-28.695219039916992,1.413985252380371,-7.532292366027832,739.1939697265625
0,1988976,73.79498291015625,-674.3842163085938,2.3607239723205566,613.9419555664062
0,1988979,-62.03482437133789,-383.8327941894531,-35.13774108886719,188.17616271972656
0,1988980,-113.52279663085938,227.97854614257812,-31.63665008544922,17.91216278076172
0,1988983,13.646626472473145,308.3540954589844,63.09777069091797,-360.1326904296875
0,1988984,65.16658020019531,-44.655670166015625,30.54448699951172,-166.11012268066406
0,1988987,7.171783924102783,-121.53850555419922,-4.403092384338379,194.09439086914062
0,1988988,-62.9501838684082,-41.45901870727539,-45.077816009521484,355.7446594238281
0,1988991,-10.591619491577148,32.988616943359375,-50.309627532958984,-633.7572631835938
0,1988992,12.00063419342041,2.9917221069335938,-0.6707043647766113,-533.6790771484375
0,1988995,0.4239846169948578,25.430540084838867,54.557430267333984,1218.2447509765625
0,1988996,57.69871520996094,139.57032775878906,45.088863372802734,315.5816345214844
0,1988999,15.213489532470703,47.23485565185547,-97.7134780883789,-906.5003662109375
0,1989000,-19.621633529663086,-20.87510108947754,-2.764591693878174,-161.05084228515625
0,1989003,61.217830657958984,-28.690645217895508,88.7745590209961,420.3074951171875
0,1989004,46.165802001953125,-65.11688232421875,-29.542804718017578,321.827392578125
0,1989007,-83.86807250976562,-11.015480995178223,15.9072904586792,-221.3709716796875
0,1989008,-69.71471405029297,-34.502986907958984,5.725589752197266,-876.7045288085938
0,1989011,-2.687732219696045,-50.70135498046875,-61.93938446044922,-700.7721557617188
0,1989012,-19.708158493041992,24.830116271972656,28.987489700317383,566.6876831054688
0,1989015,32.62017059326172,51.85398864746094,24.343822479248047,1152.9189453125
0,1989016,20.493793487548828,-12.449050903320312,-24.97003173828125,515.2047729492188
0,1989019,11.499398231506348,20.049755096435547,-5.165877342224121,-434.2499084472656
0,1989021,52.815006256103516,84.22805786132812,17.4173583984375,-614.7885131835938
0,1989023,-22.990636825561523,-24.417320251464844,22.889781951904297,-301.4658508300781
0,1989025,-46.666526794433594,-72.2486343383789,-27.044775009155273,115.2637939453125
0,1989027,1.3692530393600464,-52.08402633666992,27.49898910522461,1012.7890014648438
0,1989029,22.784420013427734,-59.58256912231445,17.603515625,360.8287658691406
0,1989031,5.8170928955078125,165.0067901611328,-80.18921661376953,-1602.763916015625
0,1989033,-24.329761505126953,178.1215057373047,-5.470937728881836,11.741842269897461
0,1989035,19.09872817993164,-133.48728942871094,41.6353759765625,1670.873291015625
0,1989037,60.42117691040039,-114.33576965332031,-1.169480323791504,-745.6782836914062
0,1989039,-58.3554801940918,9.602961540222168,-22.76876449584961,-1087.5789794921875
0,1989041,-117.39295196533203,31.47626495361328,-3.0624372959136963,317.4743957519531
0,1989043,55.98164749145508,-68.38162994384766,24.488704681396484,44.93050003051758
0,1989045,61.02057647705078,-388.55133056640625,-5.075986862182617,-261.45098876953125
0,1989047,-81.99456787109375,223.76388549804688,-3.1043813228607178,1021.2301025390625
0,1989049,-49.93775177001953,776.3251953125,-6.562027931213379,757.1134643554688
0,1989051,66.34908294677734,36.876163482666016,-28.898719787597656,-1420.616455078125
0,1989053,159.95957946777344,-367.0716857910156,51.47415542602539,-1023.8834228515625
0,1989059,99.3687744140625,-462.5962829589844,-63.8907470703125,1253.2918701171875
0,1989059,-84.55398559570312,-100.60738372802734,-118.08799743652344,1316.0545654296875
0,1989059,-102.90052795410156,343.5045471191406,187.10093688964844,-900.7637329101562
0,1989060,-82.39884948730469,89.38206481933594,127.7640380859375,-790.27783203125
0,1989063,-47.23859786987305,-221.93028259277344,-112.55779266357422,311.5796203613281
0,1989064,65.07010650634766,-199.65975952148438,-40.811065673828125,-224.30435180664062
0,1989067,-7.182042598724365,432.49493408203125,38.822086334228516,9.760761260986328
0,1989068,-3.7878668308258057,305.4195251464844,-13.651901245117188,467.3050231933594
0,1989071,186.5842742919922,-550.5569458007812,-35.1151008605957,-300.1053161621094
0,1989072,95.49746704101562,-336.3619384765625,51.236568450927734,260.24920654296875
0,1989075,-248.05165100097656,304.1651306152344,42.8270378112793,689.371826171875
0,1989076,-196.8924102783203,295.8388366699219,-25.67030143737793,-787.0304565429688
0,1989079,144.53514099121094,14.4440336227417,-60.13182830810547,-818.33203125
0,1989080,134.55543518066406,-40.82206726074219,-8.74923324584961,355.5904235839844
0,1989083,-20.228174209594727,-15.437888145446777,28.196287155151367,40.39591598510742
0,1989084,-20.637418746948242,-88.50741577148438,-45.119407653808594,33.79187774658203
0,1989087,-15.952770233154297,-65.87427520751953,23.207727432250977,574.9622192382812
0,1989088,-6.30449104309082,44.76263427734375,38.87155532836914,-34.78762435913086
0,1989091,-3.102327346801758,5.83880090713501,-41.58219909667969,-361.8135986328125
0,1989092,-58.80791091918945,-57.44725036621094,20.817506790161133,154.7892303466797
0,1989095,-5.534430980682373,72.18717193603516,55.467281341552734,710.0055541992188
0,1989096,54.04963684082031,93.90896606445312,-8.691619873046875,-115.09967041015625
0,1989099,33.88208770751953,5.115257263183594,-96.0664291381836,-717.8796997070312
0,1989100,10.984783172607422,-23.29788589477539,-87.0535888671875,-24.156475067138672
0,1989103,3.1613376140594482,-30.94093894958496,58.8912353515625,241.3539276123047
0,1989104,26.349903106689453,6.776174545288086,120.42986297607422,47.81767272949219
0,1989107,-6.781599998474121,-31.99049949645996,60.55119323730469,-6.1115641593933105
0,1989108,-17.88810920715332,-68.88260650634766,-55.45241165161133,-808.866943359375
0,1989111,-49.48703384399414,-39.694698333740234,-104.2042236328125,42.99793243408203
0,1989112,-67.73462677001953,-23.056489944458008,-13.094717025756836,1679.000732421875
0,1989115,30.0467472076416,78.47048950195312,57.35840606689453,-492.90838623046875
0,1989116,62.772369384765625,107.95882415771484,61.534507751464844,-789.103759765625
0,1989119,26.780183792114258,6.5849199295043945,-21.675830841064453,462.07476806640625
0,1989120,-13.839201927185059,-39.252906799316406,-13.382232666015625,-707.060302734375
0,1989123,-48.60516357421875,-25.940500259399414,14.879265785217285,-349.9859619140625
0,1989124,-22.244091033935547,-13.756052017211914,-91.3672103881836,760.6840209960938
0,1989127,53.14210510253906,-77.70037078857422,14.211409568786621,1033.3397216796875
0,1989128,81.74496459960938,-21.16313362121582,87.08300018310547,393.0624694824219
0,1989131,-9.554807662963867,264.9769592285156,-29.918472290039062,-909.8446655273438
0,1989132,-72.19718933105469,151.2316131591797,-6.890568256378174,-690.1995849609375
0,1989135,-33.399967193603516,-541.8819580078125,-6.106987953186035,-788.000732421875
0,1989136,-21.414079666137695,-329.3003845214844,-10.955001831054688,-479.2452697753906
0,1989139,-28.77410316467285,846.848876953125,20.61204719543457,1546.4342041015625
0,1989140,12.246255874633789,554.7032470703125,-2.0876412391662598,745.0726928710938
0,1989143,160.9786376953125,-742.9532470703125,-4.411545753479004,-538.8685302734375
0,1989144,95.51644897460938,-577.44091796875,-17.707242965698242,260.06268310546875
0,1989147,-126.25911712646484,243.89634704589844,55.894527435302734,-209.38685607910156
0,1989148,-110.03392028808594,217.69549560546875,22.56912612915039,-773.2213745117188
0,1989151,-72.28519439697266,-6.90120792388916,-123.71260833740234,-70.3429183959961
0,1989152,49.76888656616211,21.008663177490234,-2.2913920879364014,865.5297241210938
0,1989155,103.71516418457031,-169.23361206054688,72.50691223144531,656.5067749023438
0,1989156,-26.36312484741211,-164.10238647460938,-0.7039499282836914,-1334.7362060546875
0,1989159,4.268290042877197,408.59759521484375,-21.704280853271484,-481.03924560546875
0,1989160,-0.8826464414596558,338.2826232910156,4.697007656097412,1269.939697265625
0,1989163,-40.72725296020508,-317.4585876464844,23.72508430480957,-124.0409164428711
0,1989164,14.145057678222656,-256.965087890625,-35.131309509277344,-497.8881530761719
0,1989167,-10.992376327514648,130.9601593017578,-8.341069221496582,227.74632263183594
0,1989168,-35.65339279174805,89.10087585449219,7.234939098358154,-64.86048889160156
0,1989171,47.034751892089844,5.191386699676514,-1.832699179649353,-182.8915557861328
0,1989172,105.51202392578125,20.029827117919922,61.85389709472656,-138.7095947265625
0,1989175,-6.092172622680664,-38.61569595336914,55.18344497680664,57.30877685546875
0,1989176,-89.95530700683594,-45.752952575683594,-55.08839797973633,739.7570190429688
0,1989179,2.525738000869751,-68.82585144042969,-95.3233642578125,79.69496154785156
0,1989180,26.898090362548828,-44.269500732421875,24.490989685058594,-546.3743896484375
0,1989183,-26.568275451660156,79.7331771850586,52.26248550415039,47.62439727783203
0,1989184,-42.134132385253906,28.802766799926758,-72.13446044921875,-93.4706039428711
0,1989187,-9.89373779296875,-10.321440696716309,0.1695801168680191,-33.05751419067383
0,1989188,40.2397575378418,69.20316314697266,92.73351287841797,291.92523193359375
0,1989191,34.42201232910156,26.434579849243164,-12.326309204101562,-56.22692108154297
0,1989192,0.5335602164268494,-9.781400680541992,-6.37461519241333,28.583271026611328
0,1989195,-10.097122192382812,-29.63575553894043,18.345016479492188,222.4205780029297
0,1989196,-20.808883666992188,-36.98025131225586,-7.77783727645874,260.8915710449219
0,1989199,-23.65591049194336,-29.248950958251953,-51.68338394165039,-467.6771545410156
0,1989200,20.177536010742188,-59.099578857421875,-28.04694175720215,-1359.952392578125
0,1989203,-10.464262962341309,-21.903921127319336,13.679367065429688,262.590576171875
0,1989204,4.419963359832764,63.377689361572266,-18.781070709228516,1516.778564453125
0,1989207,82.08394622802734,131.7625732421875,64.18836975097656,-266.5952453613281
0,1989208,-5.4528703689575195,42.40495300292969,19.33697509765625,-1039.3363037109375
0,1989211,-71.99433898925781,-127.33307647705078,-55.36296081542969,594.1668090820312
0,1989212,-6.461532115936279,-66.39444732666016,38.76906204223633,810.9932861328125
0,1989215,-0.6107357144355774,89.2441635131836,29.660924911499023,-504.5120544433594
0,1989216,-9.905535697937012,30.7562198638916,-37.611793518066406,-305.35498046875
0,1989219,37.14149475097656,-85.32998657226562,-49.78945541381836,273.3177795410156
0,1989220,32.15665817260742,-69.3925552368164,15.008334159851074,118.71112060546875
0,1989223,-46.397361755371094,-70.23555755615234,60.99110794067383,-304.2283630371094
0,1989224,-48.70592498779297,-6.153016090393066,-20.274988174438477,-267.0781555175781
0,1989227,59.90908432006836,381.8905029296875,12.02274227142334,431.369140625
0,1989228,31.652116775512695,264.45355224609375,-7.303151607513428,349.7258605957031
0,1989231,-33.303855895996094,-352.0814514160156,-84.70222473144531,-471.95147705078125
0,1989232,48.213008880615234,-249.0734405517578,53.2135009765625,-462.73486328125
0,1989235,-17.940305709838867,64.01795959472656,40.291873931884766,212.7440643310547
0,1989236,-78.98538970947266,-25.30551528930664,-49.50179672241211,360.5190734863281
0,1989239,125.64143371582031,-27.999942779541016,20.69491195678711,176.7627716064453
0,1989240,69.12557983398438,112.96454620361328,25.570411682128906,-428.5428466796875
0,1989243,-180.21665954589844,-3.9240055084228516,-4.805858612060547,-27.833171844482422
0,1989244,-95.72149658203125,-78.50753784179688,-12.11915111541748,323.0832824707031
0,1989247,105.3167724609375,34.43050003051758,0.08385375142097473,-177.60009765625
0,1989248,32.95055389404297,18.20261573791504,-2.095961570739746,145.56858825683594
0,1989251,-84.93150329589844,-29.814191818237305,-47.40056228637695,43.49607467651367
0,1989253,2.776453733444214,31.701099395751953,0.49455952644348145,-201.30520629882812
0,1989255,50.77202224731445,81.89913177490234,48.43338394165039,75.27252197265625
0,1989257,24.675931930541992,44.72190475463867,6.758388996124268,-33.86690902709961
0,1989259,12.07671070098877,7.208771228790283,-39.29111862182617,-189.96255493164062
0,1989261,17.786291122436523,-1.6478865146636963,21.65869903564453,20.464399337768555
0,1989263,9.698667526245117,-37.11745071411133,40.22306442260742,57.56571960449219
0,1989265,15.100273132324219,-59.96665573120117,-16.1488094329834,165.33546447753906
0,1989267,1.5494413375854492,-38.52927017211914,28.220046997070312,107.77164459228516
0,1989269,-47.374027252197266,-32.335350036621094,-28.8865966796875,-294.5052490234375
0,1989271,-25.595022201538086,10.2898588180542,-82.61756134033203,44.705928802490234
0,1989273,-1.701051950454712,35.0404052734375,10.490406036376953,191.68663024902344
0,1989275,-0.18151164054870605,39.93815612792969,44.337947845458984,-110.00468444824219
0,1989277,-3.380545139312744,8.770767211914062,14.397897720336914,-2.730271339416504
0,1989279,-5.380995273590088,-49.177364349365234,-30.566608428955078,33.83237075805664
0,1989281,-0.8334939479827881,19.228422164916992,1.440410852432251,17.51457405090332
0,1989283,23.459667205810547,129.0126953125,49.62808609008789,-8.576759338378906
0,1989285,25.102933883666992,42.47903060913086,-2.98309326171875,100.739501953125
0,1989288,21.530813217163086,-126.17528533935547,31.65149688720703,191.40390014648438
0,1989289,0.5719901323318481,-136.5482940673828,19.185094833374023,-287.3719482421875
0,1989292,-54.33420944213867,-52.53266143798828,-65.37260437011719,-522.9492797851562
0,1989293,-51.41571807861328,20.743547439575195,-26.186098098754883,338.83087158203125
0,1989296,43.437828063964844,134.1393280029297,8.99660873413086,535.522216796875
0,1989297,80.25029754638672,124.90449523925781,9.341436386108398,-391.27215576171875
0,1989300,-43.8128776550293,-63.37715148925781,-42.13392639160156,365.6214599609375
0,1989301,-35.77372741699219,-101.23575592041016,-10.202513694763184,503.33502197265625
0,1989302,17.065359115600586,-8.579573631286621,70.87036895751953,-1364.41552734375
0,1989305,-45.30679702758789,-23.550142288208008,-1.1063992977142334,-1145.85986328125
0,1989306,-12.6625337600708,-39.48411560058594,-66.81993865966797,1291.3017578125
0,1989309,52.648475646972656,80.12681579589844,-12.095420837402344,1356.03662109375
0,1989310,31.651233673095703,93.61559295654297,44.3775749206543,-861.7734375
0,1989313,3.0634267330169678,-20.24896240234375,40.44344711303711,-349.4185791015625
0,1989314,-8.552836418151855,1.7821729183197021,49.44663619995117,526.30419921875
0,1989317,-45.39261245727539,73.10826110839844,-33.569854736328125,78.21865844726562
0,1989318,22.110824584960938,-6.632175445556641,-53.20369338989258,-570.0516967773438
0,1989324,44.81903839111328,-94.1240463256836,-11.92186164855957,-344.82147216796875
0,1989324,-54.61591720581055,-23.838960647583008,3.167607307434082,937.9686889648438
0,1989325,-17.548730850219727,-38.613304138183594,73.56134033203125,77.54126739501953
0,1989327,61.51409149169922,-11.362760543823242,-4.122299671173096,-478.5544128417969
0,1989329,16.844810485839844,80.00635528564453,-21.057619094848633,-40.0975456237793
0,1989331,-76.8368911743164,42.69690704345703,6.5544281005859375,-218.137451171875
0,1989333,-14.7456636428833,-106.33326721191406,-26.98768424987793,-51.138519287109375
0,1989335,-6.481939315795898,-77.33928680419922,-36.98613739013672,-145.2100067138672
0,1989337,-53.53487777709961,241.2063446044922,-81.93285369873047,-96.6870346069336
0,1989339,60.22743606567383,112.08658599853516,18.305238723754883,444.4624938964844
0,1989341,211.93345642089844,-350.12359619140625,116.8886947631836,416.4621276855469
0,1989343,48.619781494140625,-237.3575897216797,32.88850021362305,-44.81644058227539
0,1989345,-263.0862731933594,245.38050842285156,1.7490692138671875,-151.49871826171875
0,1989347,-88.75238800048828,150.73902893066406,-31.35597801208496,83.95964813232422
0,1989349,100.81272888183594,-65.78934478759766,-62.388057708740234,-133.76284790039062
0,1989351,61.84276580810547,25.383502960205078,6.189427375793457,-58.3536491394043
0,1989353,8.338813781738281,-14.214447021484375,21.55698585510254,79.66069793701172
0,1989355,-66.65280151367188,-59.73724365234375,35.45369338989258,-364.17572021484375
0,1989357,-14.980729103088379,-26.27126693725586,-32.20608139038086,187.83572387695312
0,1989359,32.85871887207031,40.96611022949219,-46.83734893798828,231.1676483154297
0,1989361,10.19180965423584,144.30711364746094,64.390380859375,-145.89154052734375
0,1989363,-6.399333477020264,73.33831787109375,22.744266510009766,59.64237976074219
0,1989365,-8.629003524780273,-116.43427276611328,-27.410614013671875,-414.4344482421875
0,1989367,-14.71053695678711,-89.58975219726562,-24.919527053833008,164.23321533203125
0,1989369,24.325857162475586,36.7957878112793,-10.859885215759277,560.597412109375
0,1989371,67.03484344482422,51.336143493652344,8.108781814575195,-341.6978454589844
0,1989373,7.1236467361450195,-22.990968704223633,34.71152114868164,-98.46794891357422
0,1989375,-32.177799224853516,-44.7729606628418,49.64925003051758,158.1379852294922
0,1989377,-34.463932037353516,-32.12276077270508,-58.2636604309082,-222.9239044189453
0,1989379,-40.54083251953125,-11.463740348815918,-30.585329055786133,-139.1270751953125
0,1989381,21.73274040222168,72.90636444091797,49.76882553100586,269.5856018066406
0,1989383,48.431976318359375,64.05919647216797,-19.67008399963379,171.60440063476562
0,1989385,-13.772600173950195,-35.7100715637207,3.6102335453033447,-261.3473205566406
0,1989387,-20.45926856994629,-36.95509338378906,1.691037654876709,76.72604370117188
0,1989389,-6.800345420837402,10.245156288146973,-32.527503967285156,178.47158813476562
0,1989391,-13.577704429626465,-37.70785903930664,-13.78319263458252,-570.210205078125
0,1989393,17.85523796081543,-4.714057445526123,25.702123641967773,-104.15830993652344
0,1989395,14.771695137023926,77.03162384033203,71.57382202148438,721.7186279296875
0,1989397,-2.744185447692871,-56.11956787109375,-77.77996826171875,107.96414184570312
0,1989399,-40.520240783691406,-122.85594177246094,-71.46517944335938,-293.7474060058594
0,1989401,22.323863983154297,64.2453384399414,100.71885681152344,-185.92431640625
0,1989403,47.650203704833984,123.10711669921875,14.839459419250488,257.12518310546875
0,1989405,-61.61439514160156,42.07503890991211,-25.32257080078125,223.6587371826172
0,1989407,-15.715679168701172,-1.7243809700012207,5.1498847007751465,-262.5323791503906
0,1989409,44.47123718261719,-101.51237487792969,-20.78961944580078,-10.287900924682617
0,1989411,105.64930725097656,-57.02037048339844,5.69655179977417,-101.14448547363281
0,1989413,-26.472673416137695,32.1117057800293,17.634746551513672,-31.859033584594727
0,1989415,-141.74374389648438,-1.6433329582214355,41.21039581298828,132.31472778320312
0,1989417,27.224946975708008,11.465034484863281,-40.16407012939453,-117.8903579711914
0,1989419,-1.5966458320617676,59.979251861572266,-60.00934982299805,65.6565170288086
0,1989421,-19.85186767578125,43.37449264526367,48.365684509277344,61.795654296875
0,1989423,54.36604690551758,-55.86695861816406,6.76544713973999,-338.24761962890625
0,1989425,42.175148010253906,-82.36636352539062,21.06464958190918,54.93507766723633
0,1989427,-17.76019859313965,-55.45992660522461,8.171469688415527,424.11724853515625
0,1989429,-53.062721252441406,44.9437255859375,-49.72148513793945,-56.62098693847656
0,1989431,5.943854808807373,89.30908203125,-12.576532363891602,-96.5572738647461
0,1989433,19.63127326965332,12.875537872314453,20.917932510375977,18.286182403564453
0,1989435,18.7121524810791,14.13747787475586,49.6528434753418,-90.78009033203125
0,1989437,-2.2935848236083984,0.6720386147499084,-44.2806510925293,215.00074768066406
0,1989439,-15.77744197845459,-46.85315704345703,-56.25666809082031,284.1784362792969
0,1989441,15.793006896972656,-78.93865203857422,23.31610679626465,-526.6689453125
0,1989443,18.400714874267578,-1.9514374732971191,11.680994987487793,-1110.290771484375
0,1989445,-25.205324172973633,92.84252166748047,69.20108795166016,455.3648376464844
0,1989447,-47.92777633666992,46.51898193359375,-1.8468600511550903,1326.6339111328125
0,1989449,9.745983123779297,8.275960922241211,-103.18856811523438,-205.90618896484375
0,1989451,27.072254180908203,-7.071539402008057,0.1064334586262703,-367.1239013671875
0,1989453,40.65154266357422,-52.47587585449219,87.37738800048828,47.90099334716797
0,1989455,33.48043441772461,-42.427001953125,72.89441680908203,48.61493682861328
0,1989457,-49.207767486572266,5.574872016906738,-88.36285400390625,-36.783050537109375
0,1989459,-30.798688888549805,28.372007369995117,-72.87073516845703,-494.8677062988281
0,1989461,19.760732650756836,12.00705337524414,63.6226921081543,10.570453643798828
0,1989463,-24.09445571899414,-25.852632522583008,-9.994322776794434,792.2538452148438
0,1989465,-7.1795573234558105,-6.175868988037109,-6.520693302154541,219.8805389404297
0,1989467,3.631335973739624,9.278775215148926,6.167244911193848,-626.9512939453125
0,1989469,-18.657283782958984,6.7791924476623535,-3.125819683074951,-322.4972229003906
0,1989471,31.766422271728516,-0.4274970293045044,-0.6551315784454346,127.73785400390625
0,1989473,35.335025787353516,15.64240837097168,7.315487384796143,96.0362777709961
0,1989475,-7.491820812225342,27.54730796813965,61.26118850708008,1.409828543663025
0,1989477,-51.54425811767578,-42.99987030029297,-80.2654037475586,30.902854919433594
0,1989479,-18.640321731567383,-41.28963088989258,-52.00348663330078,59.51763153076172
0,1989481,74.89693450927734,19.705474853515625,100.21611022949219,18.620107650756836
0,1989483,17.09121322631836,38.491512298583984,0.6894977688789368,-6.051583766937256
0,1989485,-62.84867477416992,-13.589190483093262,-7.195582389831543,14.271818161010742
0,1989487,15.037881851196289,0.46554824709892273,9.033119201660156,-21.57327651977539
0,1989489,12.658247947692871,28.59732437133789,-37.24419021606445,-59.44446563720703
0,1989491,-33.77756118774414,-43.258060455322266,-34.888729095458984,10.225950241088867
0,1989493,37.53565979003906,-30.62587547302246,41.62759017944336,-5.559742450714111
0,1989495,17.970182418823242,-12.177270889282227,69.40473937988281,-9.064224243164062
0,1989497,-53.6915168762207,10.985247611999512,-101.97341918945312,89.38088989257812
0,1989499,3.415968418121338,37.256710052490234,-38.367408752441406,12.549242973327637
0,1989501,49.201473236083984,61.99198913574219,96.37757873535156,-29.768234252929688
0,1989503,-24.9860782623291,5.720271110534668,-4.761828422546387,50.668853759765625
0,1989505,-86.08292388916016,-123.50785064697266,-21.1299991607666,-57.840667724609375
0,1989507,25.817527770996094,46.29155731201172,-10.056867599487305,-74.24897003173828
0,1989509,113.77562713623047,210.49859619140625,-7.474483966827393,85.93582153320312
0,1989511,104.11017608642578,2.944213628768921,4.779930114746094,28.26814842224121
0,1989513,-36.019866943359375,-203.22662353515625,6.44667911529541,-95.13182067871094
0,1989515,-229.46609497070312,-118.32791137695312,55.370933532714844,-4.880150318145752
0,1989517,-18.409198760986328,24.12575340270996,-38.61069869995117,61.946388244628906
0,1989519,125.27469635009766,47.559181213378906,-69.32462310791016,24.459312438964844
0,1989521,-16.564165115356445,36.06715393066406,58.85478210449219,-10.29002571105957
0,1989523,-7.338009834289551,0.13841387629508972,21.97696304321289,-37.77059555053711
0,1989525,21.94887924194336,-24.95176124572754,9.588578224182129,29.741270065307617
0,1989527,-5.504759311676025,-61.15948486328125,7.782807350158691,12.368352890014648
0,1989530,18.026451110839844,11.119154930114746,-33.56575393676758,-63.703895568847656
0,1989531,7.8673810958862305,154.4674835205078,-12.504128456115723,-11.153419494628906
0,1989534,-56.4830207824707,69.1978759765625,3.7720203399658203,12.812077522277832
0,1989535,18.70720672607422,-51.50541305541992,40.319217681884766,4.9788618087768555
0,1989538,52.69586181640625,-70.05732727050781,-56.19293975830078,19.14601707458496
0,1989539,-22.648927688598633,-28.023624420166016,-63.561767578125,8.789199829101562
0,1989542,-0.5477701425552368,45.90496826171875,73.9684066772461,4.137684345245361
0,1989543,18.29800796508789,20.084741592407227,35.622413635253906,-6.438783645629883
0,1989544,-8.501399993896484,-32.153106689453125,-41.0533447265625,-12.655803680419922
0,1989547,-50.660030364990234,-38.922489166259766,-21.166959762573242,26.745838165283203
0,1989548,-17.628868103027344,-2.641732692718506,10.383326530456543,-2.9857900142669678
0,1989551,21.59200096130371,11.191912651062012,10.739087104797363,-22.652074813842773
0,1989552,-1.6860339641571045,-4.895994663238525,55.462860107421875,3.6840059757232666
0,1989555,24.01998519897461,9.511775016784668,15.259860038757324,3.1190185546875
0,1989556,10.62175464630127,10.57736587524414,-42.5067253112793,33.70489501953125
0,1989559,-0.09985600411891937,11.003951072692871,-5.983131408691406,-8.398634910583496
0,1989560,12.947858810424805,6.22178316116333,6.827058792114258,-28.49112319946289
0,1989563,-6.781553745269775,-6.40686559677124,9.301569938659668,19.534536361694336
0,1989564,-20.758682250976562,-16.58304214477539,-45.62874221801758,-15.696734428405762
0,1989567,-9.159049987792969,-20.523235321044922,10.96684455871582,-4.051196575164795
0,1989568,19.011743545532227,6.39066219329834,24.446796417236328,-9.90710735321045
0,1989571,-8.166764259338379,-1.9329729080200195,-61.586402893066406,27.359716415405273
0,1989572,-6.405053615570068,-13.090154647827148,41.794769287109375,20.763938903808594
0,1989575,25.610130310058594,46.87287521362305,31.70171356201172,-76.60194396972656
0,1989576,-7.696138858795166,31.31378746032715,-31.81964683532715,52.777305603027344
0,1989579,-13.310166358947754,-38.63138961791992,-0.01899658516049385,36.28926086425781
0,1989580,12.639174461364746,3.243039131164551,-3.047882318496704,-46.273624420166016
0,1989583,3.736645460128784,17.904579162597656,21.251110076904297,-5.05016565322876
0,1989584,-0.1057378277182579,-15.351090431213379,2.2605059146881104,-5.7059760093688965
0,1989589,-6.015765190124512,-16.464839935302734,73.26624298095703,49.03933334350586
0,1989589,-18.95945930480957,-17.552284240722656,3.695239305496216,29.021507263183594
0,1989590,-4.478221893310547,6.22368049621582,-189.65692138671875,-30.474695205688477
0,1989593,10.067785263061523,8.152599334716797,22.120649337768555,-71.08362579345703
0,1989594,-2.964611291885376,-1.3473457098007202,132.62181091308594,-121.98429870605469
0,1989597,-15.04869556427002,-19.766664505004883,-76.65834045410156,30.53721046447754
0,1989598,9.862202644348145,5.377941131591797,-41.47438430786133,174.90664672851562
0,1989601,-3.7394258975982666,52.65918731689453,60.00818634033203,70.9834976196289
0,1989602,15.746139526367188,27.874305725097656,-11.217514991760254,-44.10020065307617
0,1989605,75.26519012451172,-40.10820007324219,26.330381393432617,-150.54075622558594
0,1989606,-19.034536361694336,-61.48465347290039,21.19124412536621,-70.54448699951172
0,1989609,-98.7978286743164,49.234954833984375,-51.2905158996582,163.06005859375
0,1989610,-8.813905715942383,52.609703063964844,-23.160966873168945,68.73975372314453
0,1989613,92.84965515136719,-41.83974075317383,25.492673873901367,-39.702117919921875
0,1989614,52.48740768432617,-23.019254684448242,69.6252670288086,61.070438385009766
0,1989617,-70.90022277832031,-18.15233612060547,-42.78694152832031,98.83313751220703
0,1989618,-67.4948501586914,-16.516765594482422,-44.39171600341797,-159.19834899902344
0,1989621,7.188350200653076,35.930519104003906,35.10232162475586,-320.8274230957031
0,1989622,23.75356674194336,24.038183212280273,-28.629425048828125,-150.3704376220703
0,1989625,14.983792304992676,-12.184990882873535,50.83729934692383,319.21258544921875
0,1989626,-10.272345542907715,-11.351755142211914,34.477115631103516,483.4108581542969
0,1989629,4.025610446929932,-6.378847599029541,-80.38168334960938,-266.79534912109375
0,1989630,32.90773010253906,-13.134267807006836,-30.82754135131836,-248.44888305664062
0,1989633,-22.01363182067871,4.062406539916992,44.16569519042969,168.12808227539062
0,1989634,-41.24100875854492,38.7183723449707,53.76142501831055,0.08287843316793442
0,1989637,25.36845588684082,2.244832754135132,-46.63795852661133,-19.96555519104004
0,1989638,36.976280212402344,-9.387490272521973,-27.29054069519043,-1.0941683053970337
0,1989641,-1.2183953523635864,27.71131706237793,48.24512481689453,55.99712371826172
0,1989642,-1.7891523838043213,-10.226259231567383,-18.663297653198242,17.84554672241211
0,1989645,-30.632143020629883,-47.891357421875,11.0612211227417,-91.11752319335938
0,1989646,-20.153907775878906,1.5713529586791992,11.407816886901855,-21.933557510375977
0,1989649,47.76316833496094,33.62716293334961,-40.923675537109375,15.418713569641113
0,1989650,-5.454205513000488,-0.5837213397026062,-0.511290431022644,-32.77170944213867
0,1989653,-33.95990753173828,-31.09804916381836,18.88361167907715,5.073073863983154
0,1989654,13.203392028808594,-15.702077865600586,7.607434272766113,37.266502380371094
0,1989657,24.13072967529297,11.892993927001953,-55.20877456665039,3.9059388637542725
0,1989658,5.785130023956299,17.73137092590332,12.49460220336914,24.068378448486328
0,1989661,-37.083377838134766,7.0972208976745605,59.934906005859375,21.590206146240234
0,1989662,-4.976782321929932,-2.708280324935913,-32.46620178222656,-38.55553436279297
0,1989665,50.780181884765625,-3.3023171424865723,29.4964656829834,-7.084908962249756
0,1989666,10.131139755249023,-21.720718383789062,29.311410903930664,-0.5270143747329712
0,1989669,-47.40918731689453,62.89208221435547,-51.473175048828125,-44.58513259887695
0,1989670,-15.868255615234375,77.20939636230469,-29.769262313842773,-6.694441318511963
0,1989673,14.46928596496582,-73.02152252197266,27.964101791381836,33.31367111206055
0,1989674,9.817960739135742,-84.86238098144531,63.74563980102539,42.32422637939453
0,1989677,33.48110580444336,1.0565718412399292,-45.441226959228516,15.69205093383789
0,1989678,-17.691762924194336,32.22908401489258,-66.89138793945312,1.0848071575164795
0,1989681,-30.752700805664062,14.107850074768066,43.60696792602539,-9.901686668395996
0,1989682,10.567870140075684,-2.3465542793273926,9.097797393798828,-36.72768783569336
0,1989685,-14.832767486572266,-22.722017288208008,-12.641426086425781,13.933335304260254
0,1989686,2.7005584239959717,-18.93583869934082,7.643848419189453,25.46686553955078
0,1989689,1.579592227935791,8.076553344726562,-12.870438575744629,-41.775108337402344
0,1989690,-20.181875228881836,-13.104007720947266,-35.9230842590332,-43.509578704833984
0,1989693,26.630510330200195,27.637022018432617,20.83924674987793,22.813594818115234
0,1989694,31.85307502746582,58.14704895019531,83.34439086914062,15.53182601928711
0,1989697,-22.41486930847168,-22.715312957763672,-53.01356506347656,-28.545392990112305
0,1989698,17.155847549438477,-0.6960693597793579,-47.05215835571289,24.64357566833496
0,1989701,23.151432037353516,-0.7603206038475037,67.27145385742188,51.22380828857422
0,1989702,-21.716686248779297,-35.428131103515625,-6.42540979385376,8.165918350219727
0,1989705,-23.581039428710938,18.568443298339844,-14.389888763427734,-26.89177703857422
0,1989706,-15.796343803405762,3.15381121635437,13.870627403259277,11.177938461303711
0,1989709,9.167413711547852,-20.902849197387695,-14.566902160644531,-8.449509620666504
0,1989710,-12.595328330993652,13.726716995239258,-12.33134651184082,-34.6568603515625
0,1989713,31.576915740966797,25.255064010620117,18.727991104125977,21.332317352294922
0,1989714,6.86372184753418,-20.890663146972656,30.070051193237305,27.274126052856445
0,1989717,-40.800636291503906,-14.050681114196777,-61.49808120727539,-73.698486328125
0,1989718,28.229812622070312,36.84780502319336,-5.160076141357422,-32.97902297973633
0,1989721,1.1788989305496216,4.57825231552124,61.227542877197266,132.98304748535156
0,1989722,-25.045917510986328,-15.452585220336914,-36.390480041503906,9.056821823120117
0,1989725,13.430713653564453,3.3238015174865723,31.305089950561523,-65.11573791503906
0,1989726,14.49730110168457,-16.93581199645996,12.349931716918945,-24.090299606323242
0,1989729,-1.3951913118362427,-25.417449951171875,-73.68734741210938,-28.578393936157227
0,1989730,0.3278605043888092,-7.084988594055176,-25.73920440673828,13.749112129211426
0,1989733,3.854055643081665,24.073532104492188,58.817142486572266,45.2242431640625
0,1989734,-8.62851333618164,19.633277893066406,72.05406188964844,25.74204444885254
0,1989737,-15.681126594543457,-3.1662685871124268,-63.053245544433594,11.276336669921875
0,1989738,5.293367385864258,-23.523950576782227,-41.19880294799805,-0.8957899212837219
0,1989741,14.58631420135498,-16.581756591796875,15.10173511505127,-77.16593170166016
0,1989742,-17.628971099853516,30.55650520324707,-32.6564826965332,-42.985984802246094
0,1989745,5.809454441070557,42.13642883300781,66.46184539794922,88.7459945678711
0,1989746,12.51882553100586,-0.21450693905353546,46.5816650390625,44.33013916015625
0,1989749,-5.4020586013793945,-41.49938201904297,-55.96168899536133,-40.253761291503906
0,1989750,13.488286018371582,-28.014060974121094,-25.9359073638916,11.751800537109375
0,1989753,-18.449857711791992,-11.78415584564209,1.9917100667953491,-44.98186492919922
0,1989754,-4.116029262542725,43.17467498779297,73.78749084472656,-59.2840576171875
0,1989757,10.25361442565918,35.91592788696289,-16.88334846496582,48.929290771484375
0,1989758,-7.1406941413879395,-33.52891159057617,-78.68750762939453,49.508052825927734
0,1989761,-3.4745235443115234,-18.657197952270508,29.524328231811523,-16.319149017333984
0,1989762,-7.248668193817139,6.820318698883057,-8.574288368225098,-2.8613874912261963
0,1989765,24.96124267578125,1.4559080600738525,15.13442325592041,20.278644561767578
0,1989766,21.5067195892334,-0.17924204468727112,48.66783905029297,-16.83360481262207
0,1989769,-28.150575637817383,3.48154354095459,-45.45199966430664,-2.8329505920410156
0,1989770,-12.958480834960938,10.696858406066895,-52.6078987121582,1.241711974143982
0,1989773,6.653507709503174,4.89952278137207,17.06928825378418,-17.25088882446289
0,1989774,-18.364896774291992,-21.393463134765625,53.83071517944336,-9.610770225524902
0,1989777,11.56136703491211,5.864078998565674,-27.556795120239258,18.476797103881836
0,1989778,35.19472122192383,5.867804527282715,-9.9091157913208,20.51608657836914
0,1989781,0.32265955209732056,1.8279321193695068,51.34324645996094,-4.210592746734619
0,1989782,-16.078683853149414,24.247732162475586,-25.24634552001953,-15.130426406860352
0,1989785,-16.405805587768555,-9.903179168701172,35.1755256652832,9.286272048950195
0,1989786,6.222410202026367,-53.060707092285156,10.996498107910156,40.368465423583984
0,1989789,3.9527621269226074,5.0555644035339355,-77.72087097167969,-48.64898681640625
0,1989790,-14.004858016967773,53.289363861083984,-3.012779712677002,-37.733638763427734
0,1989793,11.904284477233887,-7.177238941192627,24.199596405029297,49.42195510864258
0,1989794,-3.8029558658599854,7.155843734741211,35.511043548583984,-7.294863224029541
0,1989797,-10.268631935119629,-29.531484603881836,-15.208918571472168,-2.04188871383667
0,1989798,21.33193588256836,-33.516693115234375,-49.5570182800293,4.565644264221191
0,1989801,-11.072673797607422,24.82013511657715,15.077880859375,-24.920307159423828
0,1989803,-13.182875633239746,-2.359898328781128,9.226607322692871,4.096393585205078
0,1989805,17.895231246948242,22.25225067138672,35.301578521728516,21.243480682373047
0,1989807,9.428841590881348,-7.418519020080566,14.048761367797852,17.978673934936523
0,1989809,-11.870416641235352,-23.650787353515625,-72.17720794677734,-25.535907745361328
0,1989811,-8.031529426574707,20.029205322265625,-29.787710189819336,-12.905126571655273
0,1989813,22.539602279663086,25.103591918945312,68.29312133789062,16.05363655090332
0,1989815,0.17014864087104797,0.8633180260658264,75.19711303710938,-15.721606254577637
0,1989817,-9.583379745483398,-23.396812438964844,-66.83525085449219,17.135295867919922
0,1989819,0.017061937600374222,21.919048309326172,-59.570430755615234,29.16739845275879
0,1989821,-17.34243392944336,-8.486417770385742,27.68385887145996,-22.883541107177734
0,1989823,-7.303561687469482,-52.060672760009766,-31.725088119506836,-43.164710998535156
0,1989825,24.087955474853516,31.48525619506836,39.505836486816406,-34.64748001098633
0,1989827,16.285655975341797,44.59966278076172,71.68678283691406,43.13420104980469
0,1989829,-19.219436645507812,-13.465710639953613,-15.412837982177734,73.61968994140625
0,1989831,0.2061881721019745,-24.977697372436523,-31.73123550415039,-17.88105583190918
0,1989833,-5.874899387359619,-13.65053653717041,-25.1508846282959,-6.511301517486572
0,1989835,-1.440230131149292,-0.0575101263821125,6.805721759796143,6.839528560638428
0,1989838,-6.281979560852051,-3.4056296348571777,-48.479095458984375,-41.87506103515625
0,1989839,-10.384261131286621,10.009340286254883,-21.168190002441406,-2.7637827396392822
0,1989842,43.234230041503906,19.757783889770508,76.44491577148438,14.96083927154541
0,1989843,-10.569477081298828,-10.299969673156738,27.700735092163086,18.077489852905273
0,1989846,-23.88582420349121,0.47515764832496643,29.967853546142578,-21.60164451599121
0,1989847,16.317989349365234,22.770183563232422,-18.8801326751709,-39.547080993652344
0,1989850,1.9857895374298096,-21.094757080078125,-58.008148193359375,46.24980926513672
0,1989851,0.6415804028511047,-6.284324645996094,18.7028751373291,10.687600135803223
0,1989855,-16.981435775756836,14.845904350280762,-36.17670822143555,-46.750465393066406
0,1989855,-12.070947647094727,-31.132875442504883,-21.616668701171875,-16.445606231689453
0,1989856,13.083945274353027,-4.580821514129639,93.75959777832031,35.817848205566406
0,1989859,13.685680389404297,35.214439392089844,-2.5549983978271484,71.89826202392578
0,1989860,-4.466519355773926,7.325843811035156,-53.55772399902344,23.4935302734375
0,1989863,7.521005153656006,-20.199867248535156,30.21011734008789,-94.0564193725586
0,1989864,25.052898406982422,-29.001697540283203,-18.720718383789062,-52.4550666809082
0,1989867,-30.822917938232422,-1.3607343435287476,-10.535311698913574,90.81128692626953
0,1989868,-15.664599418640137,55.87792205810547,7.1163153648376465,4.5388898849487305
0,1989871,40.963924407958984,24.061140060424805,-10.403488159179688,-47.59912872314453
0,1989872,-24.406890869140625,-37.25078582763672,45.453617095947266,18.398681640625
0,1989875,-16.604434967041016,-5.118996620178223,9.255940437316895,0.3638027608394623
0,1989876,24.69482421875,22.8516845703125,-0.7440460324287415,-20.538145065307617
0,1989879,-19.334848403930664,-21.963687896728516,-22.63109588623047,14.416532516479492
0,1989880,4.99010705947876,-17.173147201538086,-36.188812255859375,26.592117309570312
0,1989883,27.732465744018555,14.991060256958008,31.50011444091797,-32.58522033691406
0,1989884,-20.912044525146484,-14.045866012573242,-37.281253814697266,-16.33234405517578
0,1989887,-14.272567749023438,-1.022498369216919,-21.613428115844727,50.94286346435547
0,1989888,21.9778995513916,30.032068252563477,53.64429473876953,-11.024029731750488
0,1989891,-10.783917427062988,-9.201818466186523,8.03067684173584,-63.273075103759766
0,1989892,-26.12993049621582,-40.03282928466797,-3.9427990913391113,-21.721132278442383
0,1989895,6.752569198608398,5.133975505828857,-9.998786926269531,52.176490783691406
0,1989896,49.422454833984375,45.979042053222656,33.6227912902832,46.19415283203125
0,1989899,4.247414588928223,-0.6946196556091309,-12.722981452941895,-25.82195281982422
0,1989900,-35.922019958496094,-11.043386459350586,-25.667463302612305,10.881046295166016
0,1989903,-8.239809036254883,3.339587450027466,54.35994338989258,31.40325164794922
0,1989904,12.735857009887695,4.773784637451172,-1.2400233745574951,-9.405133247375488
0,1989907,-4.807796001434326,-12.802061080932617,-44.75635528564453,-12.262629508972168
0,1989908,-35.46812057495117,-47.71905517578125,-90.64546203613281,-13.31786823272705
0,1989911,18.222497940063477,10.608105659484863,-3.4617040157318115,-92.38563537597656
0,1989912,31.151643753051758,32.91178894042969,128.3091278076172,-5.140589714050293
0,1989915,15.522177696228027,3.3756754398345947,14.291437149047852,145.0108642578125
0,1989916,-2.493304967880249,9.979682922363281,-37.170711517333984,16.143430709838867
0,1989919,-27.0084285736084,22.70320701599121,1.8497376441955566,-78.18965148925781
0,1989920,-5.016529083251953,-1.3795983791351318,-15.848502159118652,-10.213428497314453
0,1989923,8.756693840026855,-42.306209564208984,18.349273681640625,18.291505813598633
0,1989924,-2.4309558868408203,-12.372337341308594,-21.162931442260742,-12.252594947814941
0,1989927,0.024486426264047623,38.168212890625,6.1564531326293945,12.370744705200195
0,1989928,14.187594413757324,-19.99583625793457,18.607824325561523,25.70230484008789
0,1989931,-13.343340873718262,-36.68785095214844,-38.93458938598633,18.442407608032227
0,1989932,1.970504641532898,49.60991287231445,60.52696990966797,2.5004897117614746
0,1989935,9.017127990722656,11.676843643188477,-14.6936616897583,-59.18802261352539
0,1989936,-18.12300682067871,-35.9024658203125,-81.60026550292969,-64.1116943359375
0,1989939,2.2898237705230713,3.817187786102295,15.397546768188477,56.215576171875
0,1989940,-8.506485939025879,-2.679720640182495,20.66636848449707,75.88880920410156
0,1989943,-9.97070026397705,-4.90196418762207,17.502517700195312,-90.47584533691406
0,1989944,14.018525123596191,32.123985290527344,-1.1450003385543823,-22.318838119506836
0,1989947,27.272314071655273,8.707304954528809,37.48579025268555,67.66983795166016
0,1989948,5.977217197418213,-19.647184371948242,8.76636791229248,2.5366108417510986
0,1989951,-15.572916984558105,10.708240509033203,-52.79967498779297,8.695194244384766
0,1989952,-12.690215110778809,-10.866863250732422,15.479228019714355,-5.68997859954834
0,1989955,1.3149768114089966,-15.30589771270752,-0.7473549842834473,-0.9035247564315796
0,1989956,14.418027877807617,15.401972770690918,-1.6943223476409912,13.806227684020996
0,1989959,-1.8538440465927124,11.722941398620605,23.011924743652344,-29.808712005615234
0,1989960,-8.78169059753418,8.914968490600586,-9.26357650756836,-28.636096954345703
0,1989963,-8.67457103729248,-48.676353454589844,-45.14793395996094,-4.360456466674805
0,1989964,4.184716701507568,-36.54136657714844,-87.148681640625,2.1720776557922363
0,1989967,-4.925998687744141,34.205650329589844,78.1568603515625,-1.1330280303955078
0,1989968,-0.799933135509491,26.7343692779541,124.76525115966797,16.557811737060547
0,1989971,37.27354049682617,37.20330047607422,-48.284114837646484,43.374755859375
0,1989972,-5.4335856437683105,-0.9550338983535767,-3.0709033012390137,-18.39801597595215
0,1989975,-35.07176971435547,-48.546546936035156,-28.643970489501953,-17.408870697021484
0,1989976,2.726712703704834,7.3086466789245605,-37.75444793701172,30.252872467041016
0,1989979,-5.394805908203125,19.869874954223633,39.23567199707031,-17.446260452270508
0,1989980,15.18589973449707,4.920859336853027,9.27807331085205,-10.115364074707031
0,1989983,15.835281372070312,-19.331327438354492,-21.6449031829834,0.452136754989624
0,1989984,-32.78569412231445,-30.72868537902832,-43.292564392089844,-10.290837287902832
0,1989987,15.116589546203613,19.747095108032227,45.472145080566406,13.883439064025879
0,1989988,18.092554092407227,13.493624687194824,15.676482200622559,-13.891251564025879
0,1989991,-40.42057800292969,1.989325761795044,-29.22999382019043,3.9951729774475098
0,1989992,-0.18772989511489868,-11.592928886413574,35.17625427246094,12.69752311706543
0,1989995,34.00712966918945,-18.339733123779297,-39.50166320800781,-26.925071716308594
0,1989996,4.088369369506836,17.54456329345703,-30.112607955932617,3.8608767986297607
0,1989999,0.12830956280231476,29.103174209594727,39.67145538330078,18.510055541992188
0,1990000,11.816221237182617,-3.1743078231811523,27.2059268951416,6.428897380828857
0,1990003,-6.743000030517578,-11.549020767211914,45.81327819824219,12.373098373413086
0,1990004,-27.420747756958008,9.684215545654297,-21.329833984375,34.409393310546875
0,1990007,14.893641471862793,-10.323477745056152,-30.19681167602539,1.6691780090332031
0,1990008,15.231799125671387,-13.823236465454102,-17.167747497558594,-56.24724197387695
0,1990011,-33.83876037597656,8.659523963928223,-38.009422302246094,-24.137266159057617
0,1990012,2.9147722721099854,-18.366857528686523,45.66474533081055,12.950098037719727
0,1990015,17.11614990234375,-16.034290313720703,-11.212808609008789,25.64533233642578
0,1990016,1.495538592338562,44.758113861083984,-7.172972679138184,-5.789304733276367
0,1990019,-14.259302139282227,-5.4199066162109375,7.911136150360107,-20.389785766601562
0,1990020,-40.79320526123047,-42.42599105834961,-31.34334373474121,46.80205154418945
0,1990023,24.212909698486328,33.73006057739258,68.44883728027344,-22.064157485961914
0,1990024,51.744468688964844,26.90956687927246,1.6050257682800293,-57.108917236328125
0,1990027,-5.625092506408691,-11.366249084472656,-32.42540740966797,43.29294967651367
0,1990028,-20.25220489501953,8.063654899597168,3.5816495418548584,1.6395167112350464
0,1990031,-24.1328067779541,1.5745757818222046,-10.474512100219727,-4.794524669647217
0,1990032,9.86146354675293,-1.1202478408813477,56.47551345825195,15.722346305847168
0,1990035,18.301198959350586,-30.568729400634766,-60.7548942565918,-11.571249961853027
0,1990036,-27.346837997436523,-38.43891525268555,-77.91981506347656,7.937198638916016
0,1990039,-4.2442193031311035,30.218551635742188,65.55073547363281,3.9733426570892334
0,1990040,39.59523010253906,26.68922233581543,45.801692962646484,-30.808956146240234
0,1990043,3.6828489303588867,-17.061553955078125,14.434039115905762,-9.9390869140625
0,1990044,-36.93351364135742,10.306462287902832,-25.64630699157715,24.720548629760742
0,1990047,16.972902297973633,35.0101432800293,10.827875137329102,3.4214069843292236
0,1990048,15.388111114501953,-40.16769790649414,-8.973823547363281,32.21349334716797
0,1990051,-28.280609130859375,-23.469907760620117,-37.423736572265625,-24.94483757019043
0,1990052,2.9052436351776123,41.59238815307617,49.41864776611328,-58.37438201904297
0,1990055,40.79963684082031,-21.551671981811523,-21.164358139038086,49.769710540771484
0,1990056,-7.765377044677734,-8.776968002319336,-23.766693115234375,18.395936965942383
0,1990059,-39.20147705078125,35.480995178222656,8.811946868896484,-29.119596481323242
0,1990060,20.964706420898438,-5.295324325561523,-8.769420623779297,31.030664443969727
0,1990063,7.660397529602051,-12.785033226013184,61.96376419067383,21.37835693359375
0,1990064,-4.580810546875,14.386651039123535,-3.0536081790924072,-54.428253173828125
0,1990067,-0.9620088934898376,-19.691085815429688,-42.76286697387695,2.167980670928955
0,1990069,-13.336136817932129,-29.293933868408203,-14.828152656555176,32.95014572143555
1,1990071,19.062435150146484,20.720182418823242,3.255450487136841,-14.332792282104492
1,1990073,3.2564871311187744,43.90586471557617,84.44713592529297,28.9609317779541
1,1990075,-36.27519607543945,-14.785432815551758,-60.23698425292969,-26.3210506439209
1,1990077,10.25987434387207,-44.8587532043457,-83.12885284423828,-28.24028778076172
1,1990079,36.57200241088867,27.586681365966797,67.83518981933594,26.397350311279297
1,1990081,-17.79071617126465,27.44127082824707,18.776081085205078,-16.756792068481445
1,1990083,-26.38241195678711,-17.248300552368164,17.988847732543945,-30.636377334594727
1,1990085,9.051811218261719,-29.42360496520996,-2.3253893852233887,11.24246883392334
1,1990087,8.003080368041992,18.972564697265625,-2.9323763847351074,80.25642395019531
1,1990089,-4.35581111907959,30.959806442260742,-0.6268141865730286,20.400562286376953
1,1990091,2.604201078414917,-30.088834762573242,-45.569801330566406,-84.58455657958984
1,1990093,-11.368948936462402,-32.3399658203125,20.302427291870117,-19.772613525390625
1,1990095,13.869179725646973,20.88907814025879,-19.1588077545166,53.00019836425781
1,1990097,7.518085479736328,27.824649810791016,-23.074750900268555,-4.317254543304443
1,1990099,-24.255287170410156,-20.572219848632812,52.23493957519531,-15.777229309082031
1,1990101,4.722630023956299,-14.517552375793457,-7.693634986877441,13.960668563842773
1,1990104,0.5302251577377319,12.221237182617188,9.389525413513184,2.7693488597869873
1,1990105,7.129922389984131,8.150238037109375,28.938556671142578,-6.341239929199219
1,1990108,13.904876708984375,4.246861934661865,-20.575956344604492,13.74325942993164
1,1990109,-4.095037460327148,-11.594283103942871,-49.5245475769043,-19.765052795410156
1,1990112,10.163430213928223,0.5869325399398804,10.70966625213623,-58.53507995605469
1,1990113,19.530603408813477,23.5937442779541,80.07537078857422,28.759286880493164
1,1990119,-12.936195373535156,-17.26854705810547,-202.1448516845703,6.59350061416626
1,1990119,-26.147775650024414,-7.556249141693115,-119.31612396240234,-16.236650466918945
1,1990119,2.8322832584381104,27.69634437561035,322.20068359375,53.54230499267578
1,1990121,-4.660602569580078,-21.71640968322754,79.90827941894531,-10.190592765808105
1,1990123,-12.959249496459961,-9.569482803344727,-139.23866271972656,-23.36468505859375
1,1990125,15.887809753417969,23.346424102783203,22.001615524291992,28.687026977539062
1,1990127,17.604633331298828,-25.797487258911133,21.15410614013672,14.046862602233887
1,1990129,-7.740822792053223,4.128818511962891,-40.61360549926758,-15.217460632324219
1,1990131,-24.34298324584961,22.358478546142578,14.65625286102295,-5.815535545349121
1,1990133,1.9630688428878784,-41.79628372192383,71.85111236572266,19.139179229736328
1,1990135,20.080665588378906,13.769036293029785,-70.0905532836914,-15.372528076171875
1,1990137,4.928951263427734,38.12821578979492,-38.07984161376953,-3.9333603382110596
1,1990139,2.850196361541748,-35.71839141845703,67.236572265625,11.007451057434082
1,1990141,-9.022284507751465,3.5134637355804443,-32.8997688293457,-33.976165771484375
1,1990143,-8.54094123840332,27.698041915893555,-7.223150253295898,-17.0915584564209
1,1990145,5.633872032165527,-12.98373031616211,-4.006420135498047,29.0623836517334
1,1990147,7.852790832519531,-1.3730621337890625,-28.083101272583008,25.31455421447754
1,1990149,-15.319424629211426,-10.98780632019043,-17.5588321685791,-30.328693389892578
1,1990151,-3.312251091003418,-10.66423511505127,-4.458291530609131,3.872774124145508
1,1990153,31.905792236328125,26.950878143310547,91.95256805419922,28.35965347290039
1,1990155,-27.667747497558594,-6.023006916046143,8.434343338012695,-32.66255569458008
1,1990157,-18.49190902709961,-10.511855125427246,-56.86575698852539,9.015769958496094
1,1990159,44.026248931884766,10.682154655456543,-22.032529830932617,24.663837432861328
1,1990161,-1.4561092853546143,-3.2228901386260986,-13.253360748291016,-5.670466423034668
1,1990163,-39.46006774902344,1.1066577434539795,30.666744232177734,-28.54514503479004
1,1990165,6.268040657043457,-26.907236099243164,-5.740363597869873,-29.941749572753906
1,1990167,30.677330017089844,3.023627519607544,7.652304649353027,42.386077880859375
1,1990169,-25.976470947265625,32.844974517822266,-12.861391067504883,11.119061470031738
1,1990171,-4.699571132659912,7.811431884765625,-1.403315782546997,-16.946317672729492
1,1990173,26.3759822845459,-8.546323776245117,96.4433364868164,30.668560028076172
1,1990175,-2.6044249534606934,1.4771007299423218,-39.4555778503418,-7.086262226104736
1,1990177,-1.8883296251296997,5.803057670593262,-71.9552001953125,-20.579214096069336
1,1990179,-3.8261916637420654,-58.509849548339844,40.552215576171875,6.817183017730713
1,1990181,-1.251861810684204,-9.055596351623535,-28.72867202758789,-1.1550556421279907
1,1990183,-11.067453384399414,50.784793853759766,-10.148210525512695,1.4634532928466797
1,1990185,8.104830741882324,6.529751777648926,38.82674026489258,14.308221817016602
1,1990187,10.882279396057129,-2.981804609298706,16.185556411743164,-24.253339767456055
1,1990189,-27.388750076293945,-14.663521766662598,-53.88443374633789,-37.19044876098633
1,1990191,-0.995071530342102,5.4330153465271,-22.274011611938477,28.893205642700195
1,1990193,0.8536714911460876,7.558947563171387,116.67890930175781,41.28999328613281
1,1990195,14.739948272705078,-10.782376289367676,-25.68096923828125,4.661202430725098
1,1990197,32.20657730102539,24.1386661529541,-62.68330383300781,-37.766963958740234
1,1990199,-14.038610458374023,-5.199421405792236,43.86872482299805,-36.998207092285156
1,1990201,-12.923041343688965,-26.73699378967285,-21.20830535888672,62.73587417602539
1,1990203,-11.917830467224121,11.460009574890137,-3.0791497230529785,33.74456787109375
1,1990205,11.003854751586914,22.908937454223633,21.36066436767578,-88.43318939208984
1,1990207,12.403022766113281,-22.21605682373047,-17.045570373535156,1.6821869611740112
1,1990209,-10.824064254760742,-25.27198028564453,-9.618227005004883,65.84707641601562
1,1990211,10.62430477142334,23.83433723449707,12.571449279785156,-14.928204536437988
1,1990213,-16.633241653442383,12.189726829528809,19.702220916748047,-21.78544044494629
1,1990215,-3.5672507286071777,-9.612448692321777,-29.104583740234375,0.9612235426902771
1,1990217,21.290449142456055,2.311776638031006,-0.32647624611854553,16.47119903564453
1,1990219,-22.359424591064453,3.811725616455078,17.30374526977539,-22.123374938964844
1,1990221,-8.61904525756836,-3.183130979537964,-31.979124069213867,-14.868921279907227
1,1990223,41.93561553955078,21.011035919189453,50.873809814453125,41.31024932861328
1,1990225,6.608089923858643,6.194944858551025,11.973306655883789,0.7067006230354309
1,1990227,-44.19414138793945,-25.816476821899414,-55.79707336425781,-24.377620697021484
1,1990229,-7.328918933868408,-13.552952766418457,-3.601625680923462,-25.839282989501953
1,1990231,28.62114715576172,7.250982284545898,8.4392671585083,20.588069915771484
1,1990233,1.211431622505188,7.116166114807129,35.58716583251953,17.986568450927734
1,1990235,-16.059715270996094,-12.229512214660645,-20.58292007446289,-17.604310989379883
1,1990237,4.594034671783447,-10.174842834472656,-19.031679153442383,23.61166763305664
1,1990239,3.5646965503692627,24.836841583251953,8.553248405456543,-18.620046615600586
1,1990241,-4.510685920715332,16.179046630859375,-6.3878865242004395,-12.694233894348145
1,1990243,-7.282573223114014,-25.675100326538086,43.01529312133789,38.142601013183594
1,1990245,-4.549353122711182,-13.9326810836792,-33.166748046875,-26.716018676757812
1,1990247,32.4470100402832,15.84622573852539,-10.005654335021973,0.8618131875991821
1,1990249,0.2626047134399414,-2.202855348587036,21.765146255493164,47.64887237548828
1,1990251,-33.56175994873047,-0.044566161930561066,-21.32369041442871,-31.65214729309082
1,1990253,9.090495109558105,16.0709285736084,50.66230392456055,-22.844375610351562
1,1990255,-2.0449745655059814,-32.17314910888672,-41.336814880371094,17.33042335510254
1,1990257,-6.1574225425720215,-1.9891177415847778,-27.67144203186035,-0.008694110438227654
1,1990259,12.674391746520996,22.48813247680664,34.36732864379883,-10.564735412597656
1,1990261,0.7516263127326965,-14.804798126220703,-44.0507698059082,-6.097044467926025
1,1990263,8.497559547424316,25.058311462402344,56.20742416381836,14.149779319763184
1,1990265,-1.7736159563064575,8.644192695617676,30.923810958862305,9.059121131896973
1,1990267,5.0149407386779785,-19.358339309692383,-34.66987228393555,-15.378337860107422
1,1990269,2.4340431690216064,15.956995010375977,-5.609436511993408,-7.466757774353027
1,1990271,-34.84416580200195,-12.48404598236084,-38.82951736450195,1.2962123155593872
1,1990526,1.7569247484207153,-12.368099212646484,-86.71399688720703,3.410038471221924
1,1990527,36.96604919433594,15.169534683227539,-78.632080078125,22.398195266723633
1,1990530,-14.414552688598633,2.516105890274048,103.49714660644531,-27.30109405517578
1,1990531,-19.537174224853516,8.407979965209961,133.41253662109375,-12.814624786376953
1,1990534,16.700164794921875,-17.584489822387695,121.228515625,-1.5284680128097534
1,1990535,-8.780921936035156,-21.96295928955078,78.87235260009766,-12.368976593017578
1,1990538,-9.104327201843262,2.9438655376434326,-54.04459762573242,95.09028625488281
1,1991390,12.492085456848145,7.9564595222473145,-30.0511531829834,30.367124557495117
1,1991391,15.907567977905273,13.188350677490234,-114.5613021850586,-79.0533218383789
1,1991393,25.96554183959961,7.753732204437256,-163.29376220703125,-10.088737487792969
1,1991395,-10.3725004196167,-10.078411102294922,-85.44534301757812,-6.465536117553711
1,1991397,-34.458438873291016,-25.952808380126953,-3.2867844104766846,-48.311222076416016
1,1991399,15.467720985412598,22.97884178161621,109.09048461914062,18.991418838500977
1,1991401,6.778396129608154,37.834075927734375,110.18050384521484,54.478057861328125
1,1991403,-24.102378845214844,-28.18662452697754,118.39698028564453,27.174673080444336
1,1991405,15.147138595581055,-25.161596298217773,41.908390045166016,-2.5878336429595947
1,1991407,20.557096481323242,23.758577346801758,-69.86922454833984,-17.59230613708496
1,1991409,-15.419689178466797,23.949159622192383,-30.178157806396484,12.008936882019043
1,1991411,-32.023685455322266,-13.880143165588379,-89.62504577636719,-27.289119720458984
1,1991413,-8.491805076599121,-37.49604797363281,-92.29594421386719,-54.92683410644531
1,1991415,20.074865341186523,7.671132564544678,0.23876671493053436,-28.766117095947266
1,1991417,-3.3100712299346924,26.377273559570312,13.733492851257324,13.52831745147705
1,1991419,5.229809761047363,-6.695384979248047,60.081180572509766,98.45618438720703
1,1991421,21.714935302734375,-8.300556182861328,71.78461456298828,15.099400520324707
1,1991423,-2.6797103881835938,-5.972804546356201,60.04142761230469,-78.1361312866211
1,1991425,-9.679753303527832,-10.372507095336914,-4.079108715057373,5.144697189331055
1,1991427,-7.665956020355225,-6.661873817443848,-65.94819641113281,15.709364891052246
1,1991429,0.23073558509349823,39.341766357421875,8.28610897064209,11.821280479431152
1,1991431,10.491549491882324,21.95426368713379,0.7368478775024414,25.91259002685547
1,1991433,22.786785125732422,-24.909372329711914,-44.346900939941406,-40.95998764038086
1,1991435,-14.774726867675781,5.311949253082275,-65.27629089355469,-18.32598114013672
1,1991437,-31.018198013305664,-17.728557586669922,-8.707481384277344,50.936397552490234
1,1991439,3.5073156356811523,-23.776412963867188,68.05606079101562,-9.795788764953613
1,1991441,10.203006744384766,33.3317985534668,22.07859230041504,-35.68889617919922
1,1991443,27.633567810058594,33.93409729003906,73.80774688720703,38.092350006103516
1,1991445,-11.048802375793457,-26.638648986816406,0.4210735559463501,-0.8467193245887756
1,1991447,-40.644737243652344,-33.00922775268555,-102.57652282714844,-44.12201690673828
1,1991449,16.006507873535156,12.565603256225586,20.36137580871582,13.923105239868164
1,1991451,23.251239776611328,8.826859474182129,27.136699676513672,37.24138641357422
1,1991453,-7.428241729736328,-20.0389347076416,-26.485939025878906,5.803802967071533
1,1991455,5.628589153289795,-0.9504605531692505,-43.80906677246094,-5.152061939239502
1,1991457,8.714345932006836,38.24446105957031,0.3371756970882416,3.797269582748413
1,1991459,-18.967687606811523,-15.468216896057129,45.39061737060547,-55.868526458740234
1,1991461,-17.355119705200195,-34.937843322753906,-28.03570556640625,-44.228816986083984
1,1991463,12.936112403869629,8.811508178710938,21.231468200683594,81.08528900146484
1,1991465,12.314957618713379,28.249353408813477,52.66236877441406,53.171913146972656
1,1991467,-18.817310333251953,11.858355522155762,-11.310709953308105,-61.45097732543945
1,1991469,-6.207297325134277,-34.4812126159668,2.176973819732666,-19.615034103393555
1,1991471,20.943872451782227,5.184077262878418,-10.313971519470215,27.26163673400879
1,1991473,13.818915367126465,29.60843276977539,-12.1239013671875,-18.79483985900879
1,1991475,-1.643100380897522,-11.500364303588867,-46.885677337646484,-7.053502082824707
1,1991477,-18.64936637878418,-15.203143119812012,-35.561546325683594,26.432701110839844
1,1991479,3.8176231384277344,-7.437488079071045,58.766456604003906,16.34567642211914
1,1991481,12.839872360229492,-10.623540878295898,27.514686584472656,-10.80484676361084
1,1991483,-16.0768985748291,18.985549926757812,31.431480407714844,-7.987119674682617
1,1991485,1.8819916248321533,35.807579040527344,1.7214319705963135,9.075295448303223
1,1991487,-6.604648590087891,-0.07972200214862823,-66.7479019165039,-27.66806983947754
1,1991489,0.08987915515899658,-20.726146697998047,32.13231658935547,-24.472644805908203
1,1991491,16.79930305480957,-1.9906126260757446,6.47552490234375,24.082996368408203
1,1991493,-6.8814778327941895,5.342581272125244,-55.853248596191406,18.162158966064453
1,1991495,23.073083877563477,-2.9477615356445312,0.5608227252960205,-7.570871829986572
1,1991497,-24.26356315612793,-13.514850616455078,11.428972244262695,-1.5349935293197632
1,1991499,-47.370391845703125,-10.19790267944336,25.27408790588379,7.621944427490234
1,1991501,42.494834899902344,28.370243072509766,12.3257417678833,14.353687286376953
1,1991503,26.316030502319336,-5.6678853034973145,15.568272590637207,-15.940319061279297
1,1991505,-23.5849609375,-41.7394905090332,-20.054630279541016,-32.82792663574219
1,1991507,3.1840779781341553,9.224437713623047,-34.25396728515625,37.25799560546875
1,1991509,13.616374015808105,22.367414474487305,41.83015441894531,32.91529083251953
1,1991511,-9.76511001586914,-6.409688472747803,4.974663734436035,-45.26430892944336
1,1991513,-19.549829483032227,-5.288299083709717,-26.48476219177246,4.958928108215332
1,1991515,8.81000804901123,38.319549560546875,-6.969978332519531,27.993806838989258
1,1991517,27.37990379333496,10.789669036865234,4.717139720916748,-44.7736930847168
1,1991519,-15.830850601196289,-37.71003723144531,15.884773254394531,27.703262329101562
1,1991521,-17.861745834350586,-4.894425392150879,-12.862566947937012,6.7059807777404785
1,1991523,11.879729270935059,11.411981582641602,27.185531616210938,-31.79196548461914
1,1991525,2.8367433547973633,-2.9239137172698975,-13.309273719787598,14.715051651000977
1,1991527,-6.38584566116333,-4.527468681335449,-63.53462219238281,-27.25202751159668
1,1991529,14.826377868652344,18.338403701782227,57.64922332763672,27.28917121887207
1,1991531,-3.587609052658081,-10.666841506958008,35.97816848754883,51.885982513427734
1,1991533,-32.92168426513672,-28.31873893737793,-34.47986602783203,-30.67386817932129
1,1991535,18.531503677368164,25.293542861938477,-36.540977478027344,-39.078514099121094
1,1991537,24.901185989379883,16.65193748474121,-5.133543491363525,1.7678204774856567
1,1991539,-8.167869567871094,-33.2098388671875,61.062591552734375,13.264174461364746
1,1991541,-6.868673324584961,8.800192832946777,11.622997283935547,24.518653869628906
1,1991543,-19.964122772216797,33.42625045776367,-7.649582386016846,-30.033376693725586
1,1991545,10.801946640014648,-10.745012283325195,-11.627508163452148,-30.940078735351562
1,1991547,18.146657943725586,-17.517658233642578,-61.08354187011719,49.752140045166016
1,1991549,-14.758996963500977,-1.9376121759414673,18.861061096191406,28.571258544921875
1,1991551,-0.4817470610141754,-6.310084819793701,45.54301834106445,-38.083003997802734
1,1991553,-3.7752902507781982,-6.3708038330078125,-20.74028968811035,-42.06930160522461
1,1991555,4.8365702629089355,6.954793453216553,-48.68031692504883,16.763935089111328
1,1991557,12.449195861816406,-6.995666980743408,-3.4464216232299805,20.724781036376953
1,1991559,4.0328240394592285,26.7337646484375,69.26455688476562,-3.314608573913574
1,1991561,2.059525728225708,24.436107635498047,17.757549285888672,8.72396469116211
1,1991564,-9.671157836914062,-32.92354202270508,10.825235366821289,16.562252044677734
1,1991565,-15.635236740112305,-20.225812911987305,-25.45621109008789,7.276717185974121
1,1991568,-7.815509796142578,17.546754837036133,-62.16062927246094,-16.692256927490234
1,1991569,-3.184443712234497,12.567669868469238,49.80638122558594,-12.54270076751709
1,1991572,-3.2324090003967285,-15.91481876373291,27.068071365356445,-3.3562636375427246
1,1991573,23.220291137695312,-5.090921878814697,-24.132160186767578,-0.06446943432092667
1,1991576,29.48593521118164,34.00869369506836,-11.08624267578125,24.403316497802734
1,1991577,-16.229537963867188,-6.324913024902344,-26.20262336730957,35.476783752441406
1,1991578,-39.083309173583984,-51.267704010009766,12.962172508239746,-9.268636703491211
1,1991581,13.578124046325684,14.474427223205566,4.589463710784912,-64.99146270751953
1,1991582,19.017162322998047,14.169788360595703,-36.991355895996094,-20.15213966369629
1,1991585,-4.856709957122803,-20.276752471923828,24.641183853149414,27.798885345458984
1,1991586,3.825869560241699,19.42038917541504,25.33628273010254,21.53310775756836
1,1991589,-14.325242042541504,18.23641014099121,3.630863904953003,-2.1581947803497314
1,1991590,12.672877311706543,-12.51285457611084,45.21278762817383,-4.531724452972412
1,1991593,12.806428909301758,2.0697808265686035,-28.979310989379883,-8.404699325561523
1,1991594,-26.245494842529297,13.58080768585205,-18.518587112426758,-2.673546552658081
1,1991597,22.563282012939453,-3.8824100494384766,19.981826782226562,35.88113021850586
1,1991598,13.43886947631836,-0.7754069566726685,-29.245948791503906,-16.866741180419922
1,1991601,-34.313331604003906,2.4562172889709473,14.135881423950195,-31.353374481201172
1,1991602,6.026535511016846,-17.506893157958984,-5.4755401611328125,16.046186447143555
1,1991605,12.746196746826172,-2.778122663497925,-22.25577735900879,13.710606575012207
1,1991606,-8.851244926452637,7.922977447509766,5.10178279876709,-14.577014923095703
1,1991609,-20.837932586669922,-16.535398483276367,5.427069187164307,-6.237498760223389
1,1991610,-7.736823558807373,-2.9037601947784424,30.07316017150879,23.58591079711914
1,1991613,16.677438735961914,10.161290168762207,-18.30368995666504,3.318770170211792
1,1991614,10.42001724243164,-0.4467216730117798,-25.50355339050293,-13.930283546447754
1,1991619,9.39488410949707,-0.564508855342865,-14.393364906311035,-1.753422737121582
1,1991619,3.212390661239624,4.006125450134277,-3.1394715309143066,7.488210678100586
1,1991621,-13.26684284210205,17.97867774963379,53.33041763305664,23.060014724731445
1,1991623,-11.625651359558105,1.8738757371902466,23.669153213500977,-10.438153266906738
1,1991625,12.587697982788086,-13.035280227661133,-29.45510482788086,-23.291532516479492
1,1991627,4.9115071296691895,6.070830821990967,-48.952022552490234,35.53339385986328
1,1991629,-0.08205223828554153,14.60006332397461,39.39442825317383,-56.53846740722656
1,1991631,8.228411674499512,-5.172004222869873,30.745384216308594,-49.04319763183594
1,1991633,-25.657608032226562,-40.7130126953125,-47.977867126464844,87.21085357666016
1,1991635,-15.397377014160156,-20.206649780273438,-9.976341247558594,26.19980812072754
1,1991637,20.87258529663086,54.266578674316406,26.212451934814453,-40.333683013916016
1,1991639,3.4722037315368652,26.497188568115234,35.36791229248047,-20.58244514465332
1,1991641,8.089424133300781,-40.30894470214844,-14.861769676208496,10.559256553649902
1,1991643,17.880971908569336,-9.740311622619629,-0.15398229658603668,-2.0996572971343994
1,1991645,-11.63008975982666,-2.6274678707122803,-17.440643310546875,11.902728080749512
1,1991647,0.5358385443687439,5.722794055938721,-44.8233757019043,50.17058181762695
1,1991649,2.1665382385253906,21.8626651763916,41.88111114501953,-4.942733287811279
1,1991651,-32.01771926879883,-0.22724775969982147,16.681427001953125,-40.9964599609375
1,1991653,-7.782379150390625,5.266399383544922,-25.106983184814453,-18.439285278320312
1,1991655,27.035625457763672,-11.031665802001953,-18.252788543701172,20.174320220947266
1,1991657,1.466088891029358,-36.081260681152344,-4.78614616394043,-18.007110595703125
1,1991659,-6.1474714279174805,16.34783172607422,55.817440032958984,-24.436134338378906
1,1991661,1.4537564516067505,24.068832397460938,9.898350715637207,57.908973693847656
1,1991663,-10.02669906616211,-18.87277603149414,-5.768600940704346,3.0344324111938477
1,1991665,10.19080638885498,7.915010929107666,-11.531639099121094,-29.06780433654785
1,1991667,1.0707303285598755,6.135129928588867,-46.64094543457031,15.486040115356445
1,1991669,-6.875871658325195,-25.628183364868164,27.609811782836914,5.519287109375
1,1991671,23.108959197998047,8.010295867919922,26.175434112548828,-14.602058410644531
1,1991673,-11.556113243103027,15.43759536743164,-11.343853950500488,0.9648513197898865
1,1991675,-18.010744094848633,2.085346221923828,-25.218666076660156,-9.847078323364258
1,1991677,19.947650909423828,9.253565788269043,16.844572067260742,-31.936071395874023
1,1991679,9.231595039367676,-12.220519065856934,36.953025817871094,42.74720764160156
1,1991681,-12.648266792297363,3.7137303352355957,-52.7771110534668,26.12322235107422
1,1991683,-11.03051471710205,7.520237445831299,7.774423599243164,-38.00647735595703
1,1991685,6.217998027801514,-10.171355247497559,32.12965393066406,12.725028038024902
1,1991687,0.14638899266719818,1.7309550046920776,-62.875797271728516,11.405810356140137
1,1991689,-6.501068592071533,-3.091219425201416,18.624160766601562,-10.054217338562012
1,1991691,3.7063097953796387,-2.849121570587158,37.50053787231445,9.727679252624512
1,1991693,18.961275100708008,-7.130216121673584,-40.85292053222656,4.556309700012207
1,1991695,-4.018368721008301,10.02574348449707,-13.449418067932129,0.4495539665222168
1,1991697,-40.70027542114258,18.717811584472656,23.5026798248291,-15.058073997497559
1,1991699,-7.309096813201904,-35.142662048339844,21.929418563842773,-19.684925079345703
1,1991701,46.52119064331055,-11.162240028381348,-2.0437822341918945,8.59280776977539
1,1991703,21.843669891357422,25.366920471191406,22.77033042907715,23.17422866821289
1,1991705,-16.755035400390625,0.04963093623518944,-9.192657470703125,-7.016545295715332
1,1991707,-26.294498443603516,0.35641512274742126,-75.01753997802734,-38.513511657714844
1,1991709,5.521647930145264,1.9611124992370605,22.093917846679688,15.558388710021973
1,1991711,23.891530990600586,-4.068820476531982,70.5235824584961,19.4176082611084
1,1991713,-25.904800415039062,-7.034261226654053,-12.265052795410156,-38.52766036987305
1,1991715,-3.8276612758636475,-14.926700592041016,-48.56382369995117,-3.0138044357299805
1,1991717,29.74995231628418,0.9589399695396423,-2.4124104976654053,36.49043655395508
1,1991719,-12.215517044067383,49.04711151123047,27.251928329467773,43.41651153564453
1,1991721,-14.986719131469727,8.081649780273438,-19.329126358032227,-24.40532112121582
1,1991723,-9.79057502746582,-49.44029235839844,27.37259864807129,-39.803585052490234
1,1991725,0.3965783417224884,15.677973747253418,20.65011215209961,33.185420989990234
1,1991727,36.393531799316406,23.189002990722656,-52.501773834228516,13.758675575256348
1,1991729,-5.205036640167236,-48.75838851928711,27.55937385559082,-18.139991760253906
1,1991731,-26.19516944885254,2.4770143032073975,27.04330062866211,21.431949615478516
1,1991733,19.698848724365234,47.60336685180664,-12.279106140136719,-8.331788063049316
1,1991735,10.58926773071289,-17.628437042236328,-35.130706787109375,-69.73458862304688
1,1991737,-35.80747604370117,-26.87081527709961,-33.705039978027344,45.4358024597168
1,1991739,-19.126928329467773,21.79201889038086,47.96733474731445,33.379173278808594
1,1991741,23.674253463745117,18.512981414794922,5.001231670379639,-61.435882568359375
1,1991743,30.29937744140625,-8.183463096618652,0.1764204055070877,45.60759735107422
1,1991745,15.299274444580078,15.906193733215332,9.459240913391113,20.834442138671875
1,1991747,17.881811141967773,-23.86861228942871,-46.40444564819336,-42.263587951660156
1,1991749,-10.017574310302734,-28.95481300354004,21.155778884887695,33.669315338134766
1,1991751,-48.431854248046875,28.412612915039062,43.133827209472656,-39.3885612487793
1,1991753,-8.474367141723633,-25.157859802246094,-13.7696533203125,-44.221683502197266
1,1991755,6.752022743225098,-24.326562881469727,-51.92940139770508,103.40354919433594
1,1991757,16.36005973815918,21.98333168029785,-12.86546802520752,30.17275619506836
1,1991759,-5.569054126739502,-7.754061698913574,32.374141693115234,-202.66014099121094
1,1991761,-39.83388137817383,-4.532183647155762,-13.722455978393555,-75.31834411621094
1,1991763,24.538036346435547,52.142921447753906,51.0362548828125,273.85699462890625
1,1991765,23.126564025878906,23.99506187438965,41.28171920776367,95.94669342041016
1,1991767,-27.2578125,-21.718791961669922,-91.03907012939453,-185.0496826171875
1,1991769,5.082169532775879,21.820833206176758,-6.0984206199646,-36.338111877441406
1,1991771,40.48262023925781,-16.491336822509766,62.281211853027344,81.23057556152344
1,1991773,11.851275444030762,-37.91999816894531,-10.059629440307617,-7.461070537567139
1,1991775,-22.771888732910156,29.514795303344727,-48.540958404541016,-30.224210739135742
1,1991777,8.02270793914795,0.9051005244255066,1.3113492727279663,41.98560333251953
1,1991779,4.250827312469482,-33.21289825439453,36.1594352722168,3.812840461730957
1,1991781,-41.545654296875,-56.89176940917969,-14.937101364135742,-34.510337829589844
1,1991783,-12.756908416748047,-8.196321487426758,22.832191467285156,32.00412368774414
1,1991785,18.680200576782227,97.18453979492188,-4.5503621101379395,-4.674450397491455
1,1991787,7.755396366119385,24.502147674560547,-50.891544342041016,-61.11183166503906
1,1991789,-4.4565935134887695,-33.803165435791016,36.07866668701172,-25.979907989501953
1,1991791,-20.130578994750977,-2.480318546295166,17.26177978515625,21.98430633544922
1,1991793,11.324649810791016,-32.06755447387695,-14.223493576049805,59.417076110839844
1,1991795,28.804059982299805,-21.56568717956543,-8.96622085571289,20.81612777709961
1,1991797,0.09355852752923965,72.0612564086914,0.7989946007728577,-23.95136833190918
1,1991799,34.755680084228516,107.57032775878906,20.608009338378906,-10.280786514282227
1,1991801,-16.34119987487793,-2.967118501663208,-13.60379409790039,-20.703645706176758
1,1991803,-81.4727554321289,-121.4935073852539,19.054805755615234,-42.108787536621094
1,1991805,10.312564849853516,-80.22383880615234,-22.810209274291992,2.527355194091797
1,1991807,58.04737854003906,18.257768630981445,-35.56767654418945,39.352294921875
1,1991809,-21.947912216186523,-10.152036666870117,51.91824722290039,18.834447860717773
1,1991811,-55.70283126831055,6.583461761474609,-24.28468132019043,-7.008915901184082
1,1991813,18.022613525390625,86.05257415771484,-21.893482208251953,-9.902612686157227
1,1991815,43.70136260986328,98.52461242675781,33.89153289794922,19.090778350830078
1,1991817,7.729621887207031,25.553625106811523,12.704504013061523,20.0163516998291
1,1991819,80.29666137695312,-142.6245880126953,21.48784065246582,-11.099763870239258
1,1991821,49.79742431640625,-148.68650817871094,-17.097759246826172,-4.519525051116943
1,1991823,-188.90525817871094,-11.948799133300781,2.1750500202178955,-10.776000022888184
1,1991825,-85.19490814208984,64.57998657226562,0.8992422223091125,10.774187088012695
1,1991827,120.46331024169922,178.9368438720703,-47.37312316894531,9.998223304748535
1,1991829,37.19782257080078,122.22948455810547,7.91975212097168,-27.264726638793945
1,1991831,-2.72237491607666,-150.6056671142578,19.29568862915039,3.760648727416992
1,1991833,19.473390579223633,-141.0656280517578,-7.977959156036377,-23.325584411621094
1,1991836,-48.47150421142578,-135.93357849121094,-38.561424255371094,-48.65774154663086
1,1991837,-71.45179748535156,-123.56403350830078,3.2620816230773926,26.622928619384766
1,1991840,48.984092712402344,256.14306640625,76.43355560302734,108.77840423583984
1,1991841,77.91375732421875,287.2513427734375,10.121658325195312,37.83641815185547
1,1991844,-23.504840850830078,-10.341317176818848,-8.37299919128418,-55.2411003112793
1,1991845,-48.714271545410156,-88.5244140625,-30.15869903564453,-61.56208419799805
1,1991848,5.745453357696533,-115.24395751953125,-56.504215240478516,-51.782020568847656
1,1991849,32.492828369140625,-20.174009323120117,27.183181762695312,38.64927291870117
1,1991850,10.300252914428711,101.6602554321289,76.63765716552734,62.858150482177734
1,1991853,-26.957361221313477,14.46543025970459,-10.348058700561523,6.545470714569092
1,1991854,-11.142898559570312,-33.19431686401367,-49.726226806640625,13.766783714294434
1,1991859,2.931623935699463,-26.70515251159668,-16.567136764526367,-109.7890853881836
1,1991859,-17.551788330078125,-41.61665344238281,-23.040817260742188,-149.59207153320312
1,1991861,-12.053888320922852,-15.959356307983398,38.03465270996094,160.90309143066406
1,1991863,47.30921936035156,163.90293884277344,59.97584533691406,103.5085220336914
1,1991865,77.7556381225586,176.90304565429688,-2.009805202484131,-125.96770477294922
1,1991867,-46.167083740234375,-332.0432434082031,-83.11701965332031,39.74564743041992
1,1991869,-84.62387084960938,-369.8251953125,-14.822307586669922,52.16822814941406
1,1991871,36.27770233154297,57.58773422241211,59.017024993896484,30.133108139038086
1,1991873,22.472665786743164,99.04391479492188,-11.55197811126709,40.38792037963867
1,1991875,1.9147061109542847,163.69395446777344,-27.25125503540039,-35.24135971069336
1,1991877,30.138219833374023,191.8734893798828,16.189876556396484,8.70107650756836
1,1991879,-54.176513671875,48.269561767578125,25.845455169677734,-27.175539016723633
1,1991881,-33.27976608276367,-92.62413787841797,-16.37028694152832,-55.23612976074219
1,1991883,18.2148494720459,-163.28909301757812,15.661619186401367,-39.86723709106445
1,1991885,-12.885416030883789,32.624298095703125,-0.6343710422515869,-7.319465160369873
1,1991887,27.928977966308594,155.47708129882812,-47.44094467163086,84.50367736816406
1,1991889,38.407413482666016,70.87462615966797,49.9376106262207,-16.239309310913086
1,1991891,-27.23259925842285,29.98299217224121,46.69173049926758,-69.41958618164062
1,1991893,-31.854076385498047,-58.821163177490234,-29.191917419433594,54.0383415222168
1,1991895,16.27545738220215,-138.37403869628906,-75.35684967041016,12.094557762145996
1,1991897,-2.977092742919922,-142.80160522460938,-40.86845779418945,-37.81666946411133
1,1991899,-7.06947660446167,-89.61109924316406,90.72957611083984,42.82148361206055
1,1991901,60.32898712158203,47.983882904052734,28.163415908813477,49.76930618286133
1,1991903,16.005062103271484,124.0379409790039,-27.739286422729492,-56.65837097167969
1,1991905,-75.5273666381836,65.46807098388672,-7.708460330963135,-37.62413787841797
1,1991907,-8.84811019897461,10.41775894165039,-42.392127990722656,39.81449508666992
1,1991909,55.606380462646484,-24.9509220123291,15.779976844787598,-1.2890383005142212
1,1991911,18.691001892089844,69.70497131347656,43.05788040161133,14.35398006439209
1,1991913,4.948049545288086,98.9535140991211,11.01225757598877,17.252275466918945
1,1991915,-50.16521453857422,-69.36238861083984,-31.339292526245117,-84.69791412353516
1,1991917,-77.85417938232422,-31.464962005615234,-15.19239330291748,-62.792137145996094
1,1991919,40.521018981933594,-60.51782989501953,42.35190200805664,99.3523178100586
1,1991921,54.55388641357422,-84.93607330322266,-15.015429496765137,88.94340515136719
1,1991923,14.41445255279541,-22.504074096679688,0.08759299665689468,-0.02282637171447277
1,1991925,3.358396291732788,-34.19677734375,-2.0330333709716797,3.6697940826416016
1,1991927,-41.1871452331543,94.21710968017578,-51.34060287475586,-59.21548080444336
1,1991929,-4.8362040519714355,83.01439666748047,54.12051010131836,-62.29484176635742
1,1991931,13.102527618408203,4.890900135040283,45.65577697753906,19.879047393798828
1,1991933,-3.419773578643799,57.862789154052734,-47.639808654785156,27.651552200317383
1,1991935,-15.184042930603027,-21.876718521118164,-28.07500457763672,-21.316072463989258
1,1991937,-17.75909423828125,-82.24827575683594,5.649290561676025,-1.2775851488113403
1,1991939,32.65336608886719,-8.592294692993164,10.685572624206543,60.93892288208008
1,1991941,41.709407806396484,-30.780202865600586,-9.963339805603027,3.327420949935913
1,1991943,-11.321001052856445,-73.87413024902344,28.899866104125977,-74.82008361816406
1,1991945,-14.185687065124512,29.374244689941406,31.39645767211914,-15.891073226928711
1,1991947,13.468523979187012,104.67154693603516,-62.07863235473633,31.219507217407227
1,1991949,-26.760746002197266,13.46252155303955,-20.317564010620117,-65.38252258300781
1,1991951,-41.14700698852539,59.4085693359375,45.65391540527344,0.8351365923881531
1,1991953,-2.0840022563934326,74.11782836914062,11.979451179504395,88.16729736328125
1,1991955,21.104578018188477,-22.786773681640625,-47.14762496948242,10.07273006439209
1,1991957,26.386341094970703,-33.55595016479492,-5.683197975158691,53.422752380371094
1,1991959,26.81532859802246,-246.381103515625,68.09202575683594,-7.860605239868164
1,1991961,6.413678169250488,-214.8990936279297,-39.453407287597656,-97.57267761230469
1,1991963,-31.060331344604492,127.18424987792969,-28.371809005737305,27.272830963134766
1,1991965,7.817290782928467,129.51171875,39.37975311279297,55.52647018432617
1,1991967,5.451647758483887,113.96305847167969,-37.20403289794922,-72.17919158935547
1,1991969,-44.421287536621094,99.7320327758789,23.136775970458984,-60.49159240722656
1,1991971,-5.740535736083984,-38.09833526611328,60.073036193847656,74.43209838867188
1,1991973,27.019638061523438,-113.18209075927734,-18.06742286682129,34.1338996887207
1,1991975,-2.049220561981201,-46.693946838378906,-57.7712287902832,-34.407161712646484
1,1991977,-26.06810188293457,273.098876953125,-22.162128448486328,-5.545433521270752
1,1991979,58.013187408447266,243.6552276611328,50.12289047241211,-13.385062217712402
1,1991981,58.405906677246094,-63.396488189697266,18.824138641357422,10.614786148071289
1,1991983,-65.88091278076172,-260.897705078125,10.386667251586914,6.05783224105835
1,1991985,-37.12918472290039,-304.1235046386719,-41.015743255615234,8.155425071716309
1,1991987,8.430767059326172,-20.909645080566406,-48.212886810302734,30.061864852905273
1,1991989,-24.64215660095215,79.83517456054688,68.75615692138672,-28.08011245727539
1,1991991,27.792110443115234,-115.0324935913086,10.141724586486816,25.64594268798828
1,1991993,43.73481369018555,-52.11399841308594,-26.83504295349121,41.23329162597656
1,1991995,-51.11732864379883,188.69589233398438,-11.859598159790039,-33.6821174621582
1,1991997,-30.281614303588867,166.35511779785156,1.5536909103393555,-56.569210052490234
1,1991999,24.565311431884766,1.0468467473983765,44.608924865722656,-39.67962646484375
1,1992001,-7.8926310539245605,20.07680320739746,-27.207748413085938,40.3035774230957
1,1992003,-25.354598999023438,38.53465270996094,-12.603646278381348,42.963218688964844
1,1992005,11.139792442321777,-1.142749309539795,-1.0926727056503296,-15.74134349822998
1,1992007,59.025482177734375,135.48263549804688,-7.694402694702148,-23.07256317138672
1,1992009,27.146865844726562,30.227886199951172,58.574764251708984,23.85433578491211
1,1992011,1.4715238809585571,-267.1329040527344,-13.702895164489746,15.099949836730957
1,1992013,23.733613967895508,-233.9033966064453,-50.38886260986328,-61.31157302856445
1,1992015,-31.044368743896484,-160.00906372070312,-49.56357192993164,-39.589874267578125
1,1992017,-51.655487060546875,-30.957569122314453,6.654288291931152,62.408203125
1,1992019,42.53871154785156,331.01422119140625,108.84443664550781,73.81782531738281
1,1992021,-4.029948711395264,263.1986083984375,4.496339321136475,8.055977821350098
1,1992023,-75.08149719238281,-101.37413787841797,-16.75164222717285,-60.24414825439453
1,1992025,16.883989334106445,-38.1878547668457,-5.544497489929199,-40.48278045654297
1,1992027,30.22812271118164,91.7657470703125,-75.71498107910156,39.51728057861328
1,1992029,-28.542184829711914,50.45148468017578,16.091867446899414,7.325586795806885
1,1992031,18.33867645263672,-49.552398681640625,41.40047073364258,7.761593818664551
1,1992033,40.80547332763672,-94.1875,5.368718147277832,-1.6550092697143555
1,1992035,-22.861343383789062,-104.08106231689453,-18.111343383789062,-46.45952606201172
1,1992037,-7.761686325073242,-40.685707092285156,-26.64797592163086,-4.905428886413574
1,1992039,7.814223766326904,142.52239990234375,41.27556228637695,18.451993942260742
1,1992041,-7.672284126281738,45.40583801269531,10.213953971862793,45.20792770385742
1,1992043,-9.432046890258789,-100.78279113769531,9.430685043334961,-48.93878173828125
1,1992045,-2.600828170776367,-61.90595245361328,8.589531898498535,-93.58258056640625
1,1992047,34.37676239013672,-69.58269500732422,-45.29690933227539,140.8317413330078
1,1992049,16.775938034057617,-42.791587829589844,-2.081390142440796,75.10736846923828
1,1992051,-18.521102905273438,172.43316650390625,7.636363983154297,-139.33419799804688
1,1992053,-34.01021957397461,183.5924835205078,14.244333267211914,17.188024520874023
1,1992055,-39.841121673583984,-10.587041854858398,-36.56532287597656,22.4112491607666
1,1992057,9.489734649658203,0.9348694682121277,-30.01694107055664,-55.34171676635742
1,1992059,45.19992446899414,-69.6146240234375,55.90190124511719,61.8461799621582
1,1992061,14.316764831542969,-89.83634185791016,-14.965034484863281,41.725982666015625
1,1992063,70.33133697509766,-57.15467071533203,14.072568893432617,1.4967182874679565
1,1992065,26.65091323852539,-157.27224731445312,8.337915420532227,15.459613800048828
1,1992067,-134.2634735107422,6.66126012802124,-39.01603317260742,-60.58799743652344
1,1992069,-34.33854675292969,167.6600341796875,63.20757293701172,-30.94706153869629
1,1992071,67.18701934814453,152.89566040039062,11.232514381408691,28.1927433013916
1,1992073,-15.668309211730957,35.23417282104492,-41.80839157104492,-3.319546699523926
1,1992075,-34.11355972290039,-172.92210388183594,-21.09660530090332,-60.255096435546875
1,1992077,10.132261276245117,-67.82284545898438,-7.639514446258545,-31.732439041137695
1,1992079,41.807926177978516,183.2836456298828,59.551910400390625,107.77105712890625
1,1992081,3.024808883666992,62.77326202392578,-13.015974998474121,53.97570037841797
1,1992083,-77.07164001464844,-94.42282104492188,-27.752904891967773,-106.09236907958984
1,1992085,-8.737788200378418,-95.10613250732422,-6.616110324859619,-61.15191650390625
1,1992087,81.48527526855469,-95.37154388427734,-35.93020248413086,120.8477783203125
1,1992089,24.742773056030273,60.34703826904297,48.33058166503906,57.13970184326172
1,1992092,19.868244171142578,-26.594640731811523,26.08415412902832,-44.52848434448242
1,1992093,54.522708892822266,57.65774917602539,-3.5693109035491943,10.112367630004883
1,1992096,-58.973148345947266,223.51199340820312,-12.454038619995117,-19.517608642578125
1,1992097,-81.85712432861328,-125.82550048828125,-38.38640213012695,-34.94321060180664
1,1992100,2.277414083480835,-99.57164001464844,31.508329391479492,-81.07316589355469
1,1992101,-0.4573400020599365,114.44123840332031,18.274280548095703,17.54151725769043
1,1992104,-2.022651433944702,46.223358154296875,1.1782662868499756,158.11514282226562
1,1992105,10.736814498901367,-71.84593963623047,-4.797268390655518,-78.84232330322266
1,1992106,-20.07367706298828,-155.84689331054688,-84.712158203125,-171.26686096191406
1,1992110,1.005303978919983,23.39120101928711,11.454878807067871,90.58357238769531
1,1992111,82.15396881103516,184.85643005371094,97.0062026977539,131.8578643798828
1,1992112,2.157109498977661,-4.669780254364014,-6.58558988571167,-38.559349060058594
1,1992115,-23.383155822753906,-119.16122436523438,-39.438480377197266,-7.199316501617432
1,1992116,11.515658378601074,-53.35824966430664,-1.6426175832748413,33.05085754394531
1,1992119,-41.56426239013672,9.626792907714844,22.4608097076416,-40.13059997558594
1,1992120,3.6434924602508545,56.610511779785156,-25.035114288330078,10.938237190246582
1,1992123,20.17807388305664,45.602718353271484,14.539433479309082,21.297536849975586
1,1992124,-11.727479934692383,45.44974899291992,39.052433013916016,-20.685049057006836
1,1992127,-19.655176162719727,15.55894947052002,-67.76399993896484,-79.96485900878906
1,1992128,-37.71163558959961,-5.579652786254883,-30.564868927001953,-87.38899993896484
1,1992131,27.54241180419922,-14.154106140136719,39.492923736572266,149.98687744140625
1,1992132,56.66567611694336,-88.21981811523438,19.01914405822754,130.38980102539062
1,1992135,-34.584014892578125,-58.56340408325195,-36.97711944580078,-173.3953399658203
1,1992136,0.8189132213592529,108.88370513916016,25.46245002746582,-29.66046905517578
1,1992139,38.570465087890625,75.893310546875,78.53804779052734,110.23379516601562
1,1992140,-32.253211975097656,-177.81922912597656,-62.2818717956543,-30.229354858398438
1,1992143,2.7652995586395264,-346.02032470703125,-37.16441345214844,19.53513526916504
1,1992144,39.97674560546875,-73.66252899169922,34.81130599975586,70.47156524658203
1,1992147,6.178519248962402,419.79046630859375,-15.953445434570312,12.833630561828613
1,1992148,-13.913443565368652,320.129150390625,73.20764923095703,-50.8123893737793
1,1992151,-46.5101432800293,-33.5594482421875,33.23006820678711,-99.77581787109375
1,1992152,-39.52392578125,-75.97486877441406,-94.23124694824219,-63.51848220825195
1,1992155,4.912040710449219,-89.40164947509766,-72.53115844726562,44.06187057495117
1,1992156,5.684991836547852,-31.0955867767334,5.141078948974609,49.197731018066406
1,1992159,17.33439064025879,121.51343536376953,51.56474304199219,-29.69241714477539
1,1992160,15.471464157104492,169.6042938232422,-7.259944438934326,-36.846527099609375
