Aktueller Finger,timestamp_ms,sensor_0,sensor_1,sensor_2,sensor_3
0,278028,-24.654123306274414,-16.615707397460938,37.554931640625,47.51997756958008
0,278028,-3.9386188983917236,18.84636116027832,-17.874692916870117,-6.556864261627197
0,278028,36.08277130126953,37.291770935058594,79.33829498291016,-28.695457458496094
0,278028,22.42953109741211,6.854703426361084,3.8632454872131348,-6.102841377258301
0,278028,-27.469722747802734,-28.603857040405273,-88.13909912109375,8.489866256713867
0,278028,-8.007804870605469,4.989262580871582,-70.86902618408203,-27.42278289794922
0,278029,-6.274154186248779,-25.397235870361328,-119.77665710449219,-20.363338470458984
0,278029,-30.727752685546875,-51.45090103149414,-75.64739227294922,19.71917152404785
0,278029,-4.209103107452393,6.393846035003662,3.4690890312194824,11.342835426330566
0,278029,17.586475372314453,19.667072296142578,26.76909637451172,-11.964488983154297
0,278029,11.688627243041992,-3.015795946121216,55.25104522705078,-3.6301474571228027
0,278030,-0.6340020298957825,2.8198442459106445,76.61546325683594,11.282495498657227
0,278030,2.583425998687744,33.51757049560547,92.79212188720703,0.6371113061904907
0,278030,23.089818954467773,43.29146194458008,45.5111083984375,6.314110279083252
0,278030,10.233476638793945,-10.76364803314209,-48.8129997253418,22.798803329467773
0,278030,-27.80706214904785,-45.275489807128906,-55.718467712402344,15.282421112060547
0,278030,0.3105802834033966,0.09636156260967255,-38.02962875366211,-18.681201934814453
0,278031,3.5068678855895996,5.517093181610107,-45.669158935546875,-15.296302795410156
0,278031,-38.66166687011719,-17.029348373413086,-15.200369834899902,25.75060272216797
0,278031,0.5112550258636475,3.3925580978393555,12.542234420776367,-5.157094955444336
0,278031,28.853784561157227,10.339239120483398,33.08817672729492,-25.94194984436035
0,278031,4.01045036315918,-6.163173675537109,49.62266540527344,9.449832916259766
0,278031,6.543687343597412,7.6377739906311035,14.453320503234863,-1.9895033836364746
0,278032,-3.6036038398742676,9.098978996276855,-21.932527542114258,-14.995230674743652
0,278032,-18.034610748291016,-18.112483978271484,-13.93808650970459,-0.3108798563480377
0,278032,6.837334632873535,-7.870079517364502,-33.65937042236328,15.486960411071777
0,278032,1.9702435731887817,3.4496803283691406,-58.888214111328125,3.5660934448242188
0,278032,-9.296109199523926,-25.20282554626465,-30.84665870666504,-6.966102123260498
0,278032,-3.236546754837036,-8.175910949707031,-7.527130126953125,13.491357803344727
0,278033,-10.804268836975098,31.811006546020508,10.123800277709961,-6.341831684112549
0,278033,7.89419412612915,-3.5835940837860107,34.3409423828125,-21.454669952392578
0,278033,17.226654052734375,-12.067808151245117,30.814069747924805,4.7353034019470215
0,278033,-3.3399477005004883,20.834688186645508,-2.900738477706909,29.669858932495117
0,278033,4.703348636627197,12.667424201965332,-7.4199419021606445,-5.706661224365234
0,278033,4.95458984375,-2.745450258255005,5.890880584716797,-20.625160217285156
0,278034,-37.590728759765625,-12.164634704589844,-19.452465057373047,8.54733657836914
0,278034,3.7937936782836914,-6.859032154083252,-37.6212043762207,-15.958612442016602
0,278034,36.160850524902344,-3.174252986907959,-22.178443908691406,-1.401064395904541
0,278034,-30.391714096069336,-24.095205307006836,31.713024139404297,6.953784465789795
0,278034,1.1645534038543701,-9.194499969482422,20.0147705078125,-7.075948715209961
0,278035,8.250884056091309,27.486785888671875,-15.622986793518066,12.257123947143555
0,278035,-14.360679626464844,21.19277572631836,52.68899917602539,1.0036393404006958
0,278035,42.743587493896484,-9.07114028930664,32.89437484741211,-11.856663703918457
0,278035,-8.08558464050293,-16.39757537841797,-28.365659713745117,18.116138458251953
0,278035,-40.94997787475586,11.852686882019043,2.082200527191162,20.88468360900879
0,278035,24.03986358642578,-1.98825204372406,9.235095024108887,-21.89158058166504
0,278036,8.12293815612793,-19.17576026916504,-27.343544006347656,0.29833680391311646
0,278036,-14.579215049743652,29.91717529296875,-19.686630249023438,8.146227836608887
0,278036,19.149871826171875,12.47818374633789,15.568421363830566,-27.702638626098633
0,278036,2.6658809185028076,-14.885430335998535,-1.182450771331787,-13.254627227783203
0,278036,-18.823583602905273,14.235814094543457,-9.427247047424316,23.87355613708496
0,278036,10.599984169006348,4.223668098449707,39.83027267456055,21.410491943359375
0,278037,14.080606460571289,-26.132949829101562,24.89057159423828,-25.50865364074707
0,278037,-21.69430923461914,-11.975607872009277,-28.698699951171875,-4.863709926605225
0,278037,-4.398390293121338,23.64519691467285,4.671672344207764,11.650797843933105
0,278037,20.394140243530273,-0.8606362342834473,-2.2571935653686523,1.5086240768432617
0,278037,-25.538206100463867,-4.158346176147461,-29.792659759521484,14.988998413085938
0,278037,-17.58745002746582,-4.031707286834717,10.376383781433105,-8.4393892288208
0,278038,20.73405647277832,-28.170196533203125,17.60048484802246,-5.304915904998779
0,278038,16.295753479003906,14.647624015808105,-7.801268577575684,-2.683375835418701
0,278038,-3.828397274017334,35.160301208496094,7.9966020584106445,-17.11226463317871
0,278038,-11.734697341918945,-7.630579948425293,33.890380859375,23.852344512939453
0,278038,7.507622241973877,-3.6542019844055176,14.49833869934082,29.944028854370117
0,278038,1.34638249874115,24.68985939025879,-19.338712692260742,-21.32670783996582
0,278039,9.348474502563477,-4.617127418518066,-21.490745544433594,-23.047208786010742
0,278039,12.30567455291748,-13.74824047088623,10.911299705505371,2.6266982555389404
0,278039,-21.322511672973633,2.109961986541748,17.899248123168945,23.60296630859375
0,278039,13.79932975769043,-16.61046028137207,-15.257894515991211,9.156288146972656
0,278039,14.419777870178223,-22.097917556762695,-22.70609474182129,-14.24182415008545
0,278039,-35.8527717590332,12.878457069396973,-0.958648681640625,-2.198861598968506
0,278040,-2.245656728744507,12.555367469787598,-3.0741310119628906,-11.132283210754395
0,278040,21.850669860839844,-1.443820834159851,-3.251556396484375,-9.56618881225586
0,278040,4.628452777862549,15.42599105834961,-5.230587482452393,3.8519692420959473
0,278040,-4.370779991149902,-16.614505767822266,-9.584784507751465,-4.35042142868042
0,278040,-23.25658416748047,-17.455867767333984,-6.553350448608398,5.47019100189209
0,278040,-13.282513618469238,29.193767547607422,-5.794715881347656,-4.482382774353027
0,278041,23.599437713623047,0.5128985643386841,6.0395612716674805,-26.828338623046875
0,278041,0.12896868586540222,-33.61066436767578,-1.1784571409225464,14.527189254760742
0,278042,-19.15230941772461,3.5193819999694824,16.815582275390625,44.27743911743164
0,278042,18.0632381439209,25.705711364746094,36.29633331298828,-5.991607666015625
0,278042,-2.023219347000122,-8.47265338897705,14.70168685913086,-23.9353084564209
0,278042,-16.91529083251953,-3.1748368740081787,15.123540878295898,27.013761520385742
0,278043,35.3171501159668,22.330299377441406,21.611858367919922,4.928505897521973
0,278043,12.00374698638916,-7.348447322845459,4.64314603805542,-19.83843994140625
0,278043,-19.268095016479492,-6.010214328765869,23.207700729370117,3.767834424972534
0,278044,11.550517082214355,31.62503433227539,99.42708587646484,7.974106311798096
0,278046,33.47545623779297,26.676925659179688,105.01358032226562,7.990434646606445
0,278048,21.204803466796875,28.626487731933594,13.589268684387207,-3.6004505157470703
0,278050,-27.610212326049805,-0.7736371159553528,-45.65581512451172,1.7246372699737549
0,278305,-30.936922073364258,-41.0775032043457,-204.2118377685547,-12.800322532653809
0,278308,-10.651222229003906,-39.41267776489258,-252.19972229003906,-32.582523345947266
0,278309,-20.825212478637695,-34.57624435424805,19.13666534423828,9.606128692626953
0,278312,-5.457296848297119,-21.874839782714844,20.28644561767578,16.795446395874023
0,278313,-3.0550029277801514,-16.239822387695312,-55.5304069519043,-16.55521011352539
0,280041,-8.579776763916016,38.061405181884766,163.07000732421875,15.187416076660156
0,280041,17.03924560546875,32.1919059753418,72.82305145263672,8.911515235900879
0,280041,-3.114074468612671,-30.173480987548828,-110.8480453491211,-18.33806800842285
0,280041,-14.6980562210083,-12.203746795654297,14.332618713378906,16.747507095336914
0,280041,22.455244064331055,8.712080955505371,75.294921875,-2.060006618499756
0,280042,38.183021545410156,28.269445419311523,40.561771392822266,-27.931842803955078
0,280042,-1.7132701873779297,12.724246978759766,44.09172439575195,24.561054229736328
0,280042,-7.205820560455322,0.6923226714134216,67.9273910522461,8.940113067626953
0,280042,13.312299728393555,26.310264587402344,17.65218734741211,-29.173357009887695
0,280042,-14.775901794433594,5.9085373878479,-55.476715087890625,17.97472381591797
0,280043,0.6943206787109375,-6.399216651916504,-28.032072067260742,8.301074981689453
0,280043,11.315658569335938,-5.622281551361084,-36.05288314819336,-8.831107139587402
0,280043,-20.831533432006836,-12.590286254882812,-61.72329330444336,16.87758445739746
0,280043,-4.979910373687744,-1.623464584350586,-14.803010940551758,1.6124311685562134
0,280043,15.469705581665039,-0.20873279869556427,33.713382720947266,-21.01902198791504
0,280043,-8.77236557006836,-20.1722412109375,26.60227394104004,4.477517604827881
0,280044,-19.619152069091797,-4.692839622497559,16.457630157470703,21.380916595458984
0,280044,5.370391845703125,26.769527435302734,28.338924407958984,-5.837815761566162
0,280044,28.152833938598633,22.448894500732422,9.460758209228516,-3.3752453327178955
0,280044,5.492303371429443,-11.603656768798828,-21.95576286315918,-7.705244064331055
0,280044,-26.721567153930664,-36.754249572753906,-42.38864517211914,1.7905302047729492
0,280044,5.828195571899414,-2.2689061164855957,-31.228771209716797,4.065404415130615
0,280045,25.655500411987305,8.216262817382812,-14.391647338867188,-25.31754493713379
0,280045,-12.779881477355957,1.3656998872756958,-19.968666076660156,2.7632524967193604
0,280045,-19.24143409729004,9.052104949951172,18.97320556640625,26.04959487915039
0,280045,1.62214994430542,9.091007232666016,55.510597229003906,3.6351318359375
0,280045,14.303767204284668,15.243393898010254,8.698441505432129,-18.30927848815918
0,280045,2.769692897796631,-16.351726531982422,-8.286632537841797,6.931745529174805
0,280046,-10.594396591186523,-3.4874677658081055,-9.812495231628418,11.57278060913086
0,280046,-7.32217264175415,12.015780448913574,-21.851900100708008,-26.565406799316406
0,280046,-10.25550651550293,-22.217206954956055,-4.406830787658691,-13.861673355102539
0,280046,7.996299743652344,-8.826627731323242,-3.0837037563323975,26.09571075439453
0,280046,-3.356318473815918,-1.9419370889663696,-27.715965270996094,-3.9290616512298584
0,280047,-21.355419158935547,-8.611939430236816,-14.922178268432617,-20.988624572753906
0,280047,20.808753967285156,7.293302059173584,19.025686264038086,9.277042388916016
0,280047,16.69941520690918,3.426389455795288,13.624980926513672,-4.252763748168945
0,280047,-13.718645095825195,5.111667633056641,26.567676544189453,18.710155487060547
0,280047,8.047639846801758,11.758163452148438,23.440645217895508,-2.386779546737671
0,280047,12.181063652038574,-14.913164138793945,13.113809585571289,-27.196910858154297
0,280048,-16.85455322265625,-3.636399030685425,17.42922019958496,50.417572021484375
0,280048,0.7515427470207214,34.318050384521484,-7.604579925537109,14.455870628356934
0,280048,21.489315032958984,-1.9839327335357666,-19.903236389160156,-65.88250732421875
0,280048,-17.615079879760742,-42.10561752319336,-14.433387756347656,-14.896097183227539
0,280048,-18.39020538330078,10.351985931396484,-8.74500846862793,41.318572998046875
0,280048,15.581405639648438,34.20671463012695,5.81217098236084,15.522988319396973
0,280049,-0.9615466594696045,-24.771533966064453,10.925361633300781,1.6276508569717407
0,280049,1.8642656803131104,-4.28824520111084,-19.64754867553711,-3.954533338546753
0,280049,12.003612518310547,29.716718673706055,-40.003997802734375,-27.025028228759766
0,280049,-11.839706420898438,-21.703697204589844,0.6434128880500793,6.434994220733643
0,280049,-7.379835605621338,7.2151665687561035,18.15946388244629,34.26963806152344
0,280049,1.709692358970642,24.22679901123047,-13.12108039855957,0.9634557366371155
0,280050,4.637915134429932,-36.989845275878906,-23.051864624023438,-23.337478637695312
0,280050,13.365652084350586,-7.369128227233887,-9.460654258728027,-3.3344664573669434
0,280050,-5.9658331871032715,20.043642044067383,-18.076374053955078,4.265003681182861
0,280050,-5.166545391082764,-10.960209846496582,12.833353042602539,-1.8144594430923462
0,280050,3.9416611194610596,-15.252447128295898,36.60411071777344,3.3358538150787354
0,280050,-20.989177703857422,2.721099376678467,-33.110042572021484,-10.568896293640137
0,280051,8.96961498260498,-10.925909996032715,-18.763187408447266,7.150874137878418
0,280051,11.82565689086914,-29.588830947875977,13.375261306762695,12.828102111816406
0,280051,-39.739051818847656,30.597192764282227,-11.042410850524902,-34.12153244018555
0,280051,2.0253188610076904,32.03224182128906,18.63117218017578,-2.695117950439453
0,280051,47.73130798339844,-29.066089630126953,4.500010967254639,24.873470306396484
0,280051,-22.2913875579834,-8.844019889831543,-20.962047576904297,1.1172393560409546
0,280052,-32.41686248779297,11.558623313903809,13.924575805664062,-2.332758665084839
0,280052,40.253997802734375,5.658937454223633,-1.2416377067565918,0.7539805769920349
0,280052,3.262873411178589,2.6426444053649902,-5.08072566986084,7.605423927307129
0,280052,-23.913829803466797,-4.154501438140869,17.300825119018555,-11.722872734069824
0,280052,14.360822677612305,2.7772042751312256,-4.563326835632324,-18.983278274536133
0,280052,11.337431907653809,-11.092986106872559,-1.1969743967056274,11.11596965789795
0,280053,2.8685576915740967,-0.20295687019824982,15.59511947631836,28.407447814941406
0,280054,-22.9536075592041,9.555776596069336,-31.874370574951172,-11.403429985046387
0,280054,-17.909528732299805,-18.271038055419922,-36.05772018432617,-21.733478546142578
0,280054,32.21387481689453,-7.524585247039795,33.401947021484375,7.573610305786133
0,280054,2.818047046661377,8.686530113220215,26.955368041992188,0.12304618209600449
0,280055,-25.30636978149414,20.69500160217285,13.580623626708984,7.289544582366943
0,280055,13.451020240783691,4.76095724105835,12.297861099243164,7.38853120803833
0,280055,12.372530937194824,5.756782531738281,-9.693182945251465,-7.5775227546691895
0,280056,-30.635517120361328,1.7382237911224365,3.5706403255462646,-17.665634155273438
0,280057,-19.73048210144043,-35.45918273925781,-24.591163635253906,-12.912707328796387
0,280060,39.450103759765625,-4.090662956237793,25.181861877441406,30.956012725830078
0,280061,24.95596694946289,32.54359436035156,166.77601623535156,30.96272850036621
0,280064,17.458017349243164,67.21885681152344,176.246826171875,-14.230318069458008
0,280065,22.600025177001953,20.86883544921875,18.738248825073242,-8.013070106506348
0,280068,-20.711328506469727,-30.547529220581055,-73.98624420166016,10.772602081298828
0,280069,-20.52971839904785,21.8238525390625,-28.03888511657715,-0.6586343050003052
0,280072,-7.997135639190674,-43.721675872802734,-232.25567626953125,-39.89396286010742
0,280073,-16.417449951171875,-70.04840087890625,-252.50570678710938,-26.35917854309082
0,280076,-6.032941818237305,1.3814297914505005,70.20748138427734,55.766414642333984
0,280077,2.3359508514404297,-13.030139923095703,37.944766998291016,7.160255432128906
0,280080,-6.560266971588135,-6.08946418762207,-23.021745681762695,-33.1670036315918
0,280081,15.221331596374512,28.943618774414062,137.98388671875,21.41813850402832
0,280084,13.828550338745117,18.862058639526367,142.80911254882812,11.45296859741211
0,280085,-0.6938291788101196,22.852142333984375,3.123037576675415,-10.356928825378418
0,280088,-6.271838188171387,33.035823822021484,-0.5111163854598999,-4.07007360458374
0,280090,15.340060234069824,-21.530363082885742,37.70665740966797,12.708072662353516
0,280092,3.286194324493408,-44.01072692871094,-197.05055236816406,-6.908097267150879
0,280094,-51.94295883178711,1.6167833805084229,-171.29824829101562,-19.840808868408203
0,280096,1.2337809801101685,1.6904666423797607,128.80271911621094,8.983124732971191
0,280098,18.529809951782227,-22.914772033691406,22.18448257446289,12.88979721069336
0,280100,-7.161787509918213,1.7058541774749756,-28.186561584472656,-12.793183326721191
0,280102,12.256025314331055,29.366762161254883,117.95512390136719,-3.890681743621826
0,280253,0.7203767895698547,1.0050783157348633,-86.03247833251953,0.620571494102478
0,280253,-12.30749225616455,-34.53810501098633,-210.9257049560547,-16.557096481323242
0,280254,-18.403745651245117,-19.79828643798828,39.592769622802734,15.394786834716797
0,280254,1.2077980041503906,22.578445434570312,147.9337615966797,26.430185317993164
0,280254,22.504589080810547,38.622596740722656,99.1037826538086,4.870434761047363
0,280254,11.737472534179688,29.72196388244629,74.18358612060547,-8.93776798248291
0,280254,22.556310653686523,-6.73063325881958,43.62987518310547,-12.655557632446289
0,280254,19.290584564208984,-16.227874755859375,-18.31319236755371,12.037908554077148
0,280255,-21.87511444091797,34.6627311706543,-58.06532287597656,-5.528395652770996
0,280255,-29.814861297607422,19.61931610107422,-61.67412185668945,-21.999704360961914
0,280255,-0.33058300614356995,-52.563045501708984,-93.7981185913086,18.96827507019043
0,280255,-3.4978890419006348,-48.3073616027832,-39.89903259277344,-2.631842851638794
0,280255,4.352675914764404,11.528861999511719,43.525245666503906,-32.197418212890625
0,280255,12.124665260314941,31.10051918029785,51.125770568847656,12.059776306152344
0,280256,-10.901311874389648,8.662040710449219,58.098880767822266,23.883651733398438
0,280256,0.5291146636009216,-20.505311965942383,48.37543487548828,-14.051383018493652
0,280256,10.678874015808105,-9.169001579284668,15.602362632751465,2.413015127182007
0,280256,7.904735565185547,26.241544723510742,-6.265546798706055,30.43509292602539
0,280256,-3.9382238388061523,18.77831268310547,-28.76737403869629,-21.441829681396484
0,280256,-17.624692916870117,-19.953561782836914,-56.47806930541992,-23.961782455444336
0,280257,0.5827243328094482,-34.223655700683594,-61.63886260986328,22.44307518005371
0,280257,-0.3842237889766693,-11.568885803222656,-39.06698989868164,-5.277164936065674
0,280257,-10.628341674804688,-5.577230930328369,-14.919466018676758,-27.669231414794922
0,280257,4.567702293395996,-11.564715385437012,15.94532585144043,4.34266471862793
0,280257,1.7445579767227173,28.127782821655273,62.54049301147461,23.876842498779297
0,280257,3.533100128173828,33.14405822753906,49.37503433227539,3.5817389488220215
0,280258,-2.4696693420410156,-15.195356369018555,-2.5674588680267334,-8.372390747070312
0,280258,0.013337517157196999,-0.42599716782569885,-10.991573333740234,-2.742229461669922
0,280258,13.988967895507812,14.08830451965332,-29.648773193359375,11.142226219177246
0,280258,-10.219428062438965,-17.01064109802246,-15.148740768432617,3.821441650390625
0,280258,-3.3995580673217773,-21.23288345336914,1.9029216766357422,-4.764173984527588
0,280259,9.293102264404297,-7.068934917449951,-6.214017868041992,20.41070556640625
0,280259,-6.289795875549316,14.264278411865234,38.345394134521484,13.854804992675781
0,280259,-2.253903388977051,19.91627311706543,40.188026428222656,-16.71181869506836
0,280259,9.0365571975708,10.065067291259766,24.619037628173828,-6.143373966217041
0,280259,18.498666763305664,3.5293936729431152,25.644277572631836,-1.4125218391418457
0,280259,15.521775245666504,-11.834038734436035,18.435062408447266,-8.581576347351074
0,280260,-5.794737339019775,12.725964546203613,16.543701171875,14.31752872467041
0,280260,-24.24275016784668,21.828256607055664,-12.359129905700684,10.710055351257324
0,280260,-7.449273109436035,-12.505843162536621,-21.118520736694336,-12.594575881958008
0,280260,19.761478424072266,-5.32212495803833,-10.638130187988281,-26.45292854309082
0,280260,4.8488593101501465,-9.0953950881958,-24.145034790039062,-9.036928176879883
0,280260,-17.9509220123291,-12.98620319366455,16.44324493408203,30.991788864135742
0,280261,5.652937412261963,23.767934799194336,38.5922966003418,16.10367202758789
0,280261,25.3801212310791,18.556245803833008,-7.873970985412598,-23.136554718017578
0,280261,-10.224692344665527,-16.70555877685547,29.00983238220215,6.018896102905273
0,280261,-25.139299392700195,-14.253486633300781,7.2323737144470215,-3.8484084606170654
0,280261,13.80746078491211,-3.9027957916259766,-52.814632415771484,-18.032245635986328
0,280261,0.6915521025657654,24.07500457763672,-17.00554847717285,16.15898895263672
0,280262,-18.768159866333008,6.035897254943848,1.012490153312683,-22.637680053710938
0,280262,26.63216209411621,-43.44028854370117,-43.71609115600586,-14.118824005126953
0,280262,3.710714817047119,-6.026523590087891,-39.54821014404297,31.364221572875977
0,280262,-23.352128982543945,15.166872024536133,57.21542739868164,0.07342289388179779
0,280262,-3.0076653957366943,13.80059814453125,30.24331283569336,-8.454367637634277
0,280262,-14.933816909790039,-1.0797829627990723,-25.68083381652832,26.361902236938477
0,280263,5.785183429718018,-7.162229061126709,10.032877922058105,-5.565954685211182
0,280263,18.4596004486084,2.0094172954559326,1.6695924997329712,-10.723201751708984
0,280263,-17.22098159790039,-2.9291248321533203,-7.416954517364502,29.80362319946289
0,280263,0.22234345972537994,29.11029052734375,0.2290889471769333,-7.634494304656982
0,280263,22.116819381713867,6.085907936096191,11.045681953430176,-14.665096282958984
0,280263,-9.423260688781738,-18.915884017944336,4.755868911743164,3.4258480072021484
0,280264,-2.616593599319458,4.573897361755371,-27.08207893371582,-2.3527727127075195
0,280264,15.435261726379395,4.590381145477295,-17.642621994018555,14.184453010559082
0,280264,-3.5816266536712646,7.574063777923584,6.08250617980957,-11.55374526977539
0,280264,0.6463813781738281,3.384068727493286,9.711305618286133,-15.930943489074707
0,280264,7.714223861694336,-17.7816162109375,8.559354782104492,11.773307800292969
0,280264,8.446907997131348,-6.975039482116699,-27.753177642822266,-9.373284339904785
0,280265,-13.349666595458984,0.5983694195747375,-28.960155487060547,-15.374316215515137
0,280265,-33.46061706542969,-31.19944953918457,26.929807662963867,2.788508892059326
0,280265,11.202502250671387,-13.823836326599121,12.883623123168945,24.791141510009766
0,280265,20.598346710205078,15.773691177368164,-19.44049072265625,6.019835948944092
0,280265,-3.9218811988830566,21.31145477294922,9.910698890686035,-21.87432098388672
0,280265,-11.091780662536621,7.846953868865967,2.6052238941192627,-7.151895523071289
0,280266,-14.041055679321289,-28.41992950439453,-10.269766807556152,-1.3335895538330078
0,280266,1.4507989883422852,1.3008089065551758,11.088300704956055,-2.2530620098114014
0,280266,10.721261978149414,17.638946533203125,-4.646244525909424,-0.4031692147254944
0,280267,23.619829177856445,10.232933044433594,42.915184020996094,17.38349723815918
0,280267,17.619853973388672,3.6471774578094482,43.27486801147461,33.46259307861328
0,280268,-18.485107421875,-15.404576301574707,-25.601886749267578,-11.701560974121094
0,280268,-23.125865936279297,4.5584564208984375,-27.017332077026367,-31.12224006652832
0,280268,1.8847229480743408,0.4313390552997589,-9.398411750793457,7.380801200866699
0,280268,5.302311420440674,7.158232688903809,16.05318260192871,-0.2226954996585846
0,280268,-4.181780815124512,-2.086564779281616,-34.974212646484375,-18.624710083007812
0,280270,5.521389007568359,-18.04459571838379,-46.16115951538086,7.236566543579102
0,280272,-4.254387378692627,-23.677547454833984,-154.0168914794922,28.878755569458008
0,280274,-32.9752197265625,-27.354583740234375,-185.14285278320312,15.704524040222168
0,280276,-26.084508895874023,-32.184715270996094,54.41656494140625,-3.537541627883911
0,280278,12.51279067993164,-5.527578353881836,15.95472526550293,-52.30125427246094
0,280280,6.896517276763916,90.80472564697266,84.44508361816406,-72.27183532714844
0,280282,7.954051494598389,41.12094497680664,274.9720764160156,19.664304733276367
0,280284,45.24020004272461,-40.98936462402344,110.02076721191406,110.77423858642578
0,280286,9.452432632446289,0.08861012756824493,-29.600805282592773,39.29294204711914
0,280288,6.670955181121826,39.50428771972656,84.02950286865234,-35.49591827392578
0,280290,13.012245178222656,-4.48084831237793,34.26049041748047,0.8229885697364807
0,280292,-78.20093536376953,-44.570613861083984,-301.07183837890625,-0.8313276767730713
0,280294,-22.465272903442383,20.233036041259766,-120.29136657714844,15.409960746765137
0,280296,130.72579956054688,40.90726089477539,199.48477172851562,-20.974910736083984
0,280298,1.7939525842666626,-70.66927337646484,-93.43709564208984,-67.65440368652344
0,280300,-155.2243194580078,-69.40076446533203,-140.94573974609375,-56.50495529174805
0,280302,14.998560905456543,67.43923950195312,208.30825805664062,11.603058815002441
0,280304,129.05372619628906,55.200531005859375,177.59063720703125,120.852783203125
0,280306,-21.300691604614258,-44.249698638916016,-56.82509231567383,35.13679504394531
0,280459,-120.37014770507812,-79.88725280761719,-366.0211486816406,-82.44949340820312
0,280460,-12.041153907775879,5.629269599914551,-196.09112548828125,-48.87622833251953
0,280460,75.87234497070312,68.62078857421875,371.7121276855469,21.577800750732422
0,280460,16.062211990356445,22.45323944091797,211.85987854003906,33.79999542236328
0,280460,-4.667752265930176,22.392147064208984,-36.35835647583008,23.323360443115234
0,280460,23.142974853515625,16.546348571777344,-1.691506266593933,3.269455671310425
0,280460,10.168200492858887,-24.115846633911133,-52.762001037597656,-8.757650375366211
0,280461,-12.048965454101562,-19.11993408203125,-77.5963134765625,9.515734672546387
0,280461,-20.5815486907959,17.64327621459961,-48.56681442260742,-9.86391830444336
0,280461,3.8786754608154297,24.72572898864746,27.541240692138672,-14.349056243896484
0,280461,11.313992500305176,-25.360477447509766,63.20353698730469,-13.484726905822754
0,280461,-6.5664215087890625,-29.832496643066406,68.23746490478516,-16.269140243530273
0,280461,10.763896942138672,33.202632904052734,56.952911376953125,16.107091903686523
0,280462,10.08044719696045,20.853029251098633,32.88717269897461,12.5370454788208
0,280462,-10.452040672302246,-13.809569358825684,3.4450366497039795,11.862858772277832
0,280462,-8.074756622314453,0.9395350813865662,-45.86784744262695,19.59596824645996
0,280462,-8.244028091430664,13.133824348449707,-77.08094024658203,-9.563212394714355
0,280462,-7.689225673675537,-29.188655853271484,-70.53948974609375,-1.2424803972244263
0,280463,0.7194200158119202,-40.371795654296875,-23.019872665405273,4.883665084838867
0,280463,15.401893615722656,25.5500545501709,12.720576286315918,-8.624224662780762
0,280463,4.167508125305176,27.196491241455078,27.316410064697266,-17.601863861083984
0,280463,-13.382840156555176,-15.124138832092285,40.32526397705078,-15.908045768737793
0,280463,10.065699577331543,-15.736291885375977,30.479141235351562,5.5628252029418945
0,280463,-1.73349130153656,3.0615291595458984,27.776695251464844,10.661953926086426
0,280464,-13.112234115600586,17.67949104309082,-6.568240642547607,9.640581130981445
0,280464,11.22566032409668,-3.000458240509033,-56.69298553466797,-11.117670059204102
0,280464,-1.0533971786499023,-34.19427490234375,-43.194305419921875,-7.528046131134033
0,280464,-6.597546100616455,16.133398056030273,-2.3674142360687256,26.932260513305664
0,280464,-2.8415935039520264,34.32120895385742,-3.219111204147339,-3.8286736011505127
0,280464,10.233942985534668,-14.225350379943848,-29.86142349243164,-37.68784713745117
0,280465,17.75518798828125,-20.491823196411133,-15.615734100341797,10.840011596679688
0,280465,-26.57889747619629,12.614540100097656,37.77763748168945,25.56642723083496
0,280465,-13.095148086547852,36.662872314453125,58.20554733276367,-14.511761665344238
0,280465,28.037717819213867,-11.453548431396484,2.9085686206817627,-19.708656311035156
0,280465,-6.447916507720947,-38.03780746459961,-24.701873779296875,14.700016021728516
0,280465,-1.2584078311920166,6.047263145446777,8.787186622619629,43.76526641845703
0,280466,17.867080688476562,26.21930694580078,-10.476365089416504,-2.6761271953582764
0,280466,-9.171305656433105,-11.459525108337402,-37.04022979736328,-35.118690490722656
0,280466,-30.43349838256836,-28.632036209106445,-3.758026599884033,19.022377014160156
0,280466,-13.999502182006836,1.1637446880340576,5.6704792976379395,25.184268951416016
0,280466,28.403335571289062,10.222620010375977,12.59947681427002,-29.200267791748047
0,280466,19.760263442993164,14.671174049377441,27.294857025146484,-24.20425796508789
0,280467,-5.509087562561035,0.6901364922523499,10.647501945495605,9.906756401062012
0,280467,-5.8911871910095215,-17.983837127685547,18.04189109802246,29.848445892333984
0,280467,-6.570872783660889,14.26831340789795,10.132611274719238,-1.0624505281448364
0,280467,1.5419307947158813,18.482999801635742,-16.773141860961914,-38.492706298828125
0,280467,23.500160217285156,-4.652333736419678,-3.536797523498535,-8.221721649169922
0,280467,0.9312981963157654,-2.1520891189575195,-13.358038902282715,2.044003486633301
0,280468,-38.07479476928711,4.705798625946045,-18.205297470092773,-4.509034156799316
0,280468,10.374141693115234,4.257781028747559,10.732207298278809,-12.504720687866211
0,280468,36.61381530761719,-23.028764724731445,-2.3121256828308105,-0.7057812213897705
0,280468,-17.90045166015625,-5.217209815979004,-14.00202751159668,-2.8794775009155273
0,280468,-24.253232955932617,18.666345596313477,7.012815952301025,-21.010316848754883
0,280469,9.37088394165039,-8.000107765197754,9.5040283203125,22.5854434967041
0,280469,8.947386741638184,-9.786344528198242,-17.777090072631836,6.934127330780029
0,280469,-13.099970817565918,-18.294124603271484,-32.08869934082031,-10.47333812713623
0,280469,-13.873673439025879,-3.5449955463409424,-7.951996803283691,26.569805145263672
0,280469,14.323288917541504,17.312082290649414,-9.604390144348145,12.562535285949707
0,280469,-1.3517569303512573,-2.715439796447754,-14.389578819274902,-13.204923629760742
0,280470,-21.294227600097656,3.4809327125549316,7.6384406089782715,-1.8123666048049927
0,280470,3.7394704818725586,8.438356399536133,-0.4241839647293091,42.23314666748047
0,280470,3.688899517059326,-18.081554412841797,17.685728073120117,42.72702407836914
0,280470,26.846712112426758,-11.059757232666016,18.620866775512695,-6.0363593101501465
0,280470,15.164016723632812,43.36831283569336,-10.805834770202637,2.1542108058929443
0,280470,-18.334409713745117,14.322623252868652,-21.64925765991211,1.1602040529251099
0,280471,4.966510772705078,-54.4758415222168,-16.565078735351562,-12.752846717834473
0,280471,4.048372268676758,7.803652763366699,2.0315334796905518,-1.7528257369995117
0,280471,-9.835712432861328,23.73303985595703,-1.9114114046096802,-18.10594940185547
0,280471,2.5251333713531494,-37.915897369384766,8.577292442321777,-27.210477828979492
0,280471,12.312089920043945,-1.350297212600708,6.866300106048584,-30.190776824951172
0,280471,-27.680124282836914,11.713961601257324,-14.13537311553955,-6.736905574798584
0,280471,-14.477294921875,-14.208974838256836,-10.215863227844238,-0.7883800864219666
0,280472,15.071513175964355,8.863991737365723,8.84688949584961,-17.643138885498047
0,280472,-17.6919002532959,19.697080612182617,24.21359634399414,-6.404794692993164
0,280472,22.371116638183594,-2.083587169647217,0.9999808073043823,-6.185970783233643
0,280472,25.237655639648438,-16.92276382446289,-3.820356845855713,13.424086570739746
0,280472,-32.5270881652832,7.852545261383057,25.162612915039062,22.160091400146484
0,280474,-23.51811981201172,-15.16492748260498,-58.61917495727539,-0.5003935694694519
0,280474,-1.2940380573272705,-30.839447021484375,-62.791015625,-6.391762733459473
0,280474,6.881015777587891,31.906070709228516,67.22061920166016,24.920808792114258
0,280474,9.776147842407227,22.116825103759766,30.561519622802734,25.809410095214844
0,280474,21.478931427001953,-13.565143585205078,-5.166223049163818,1.8075183629989624
0,280474,-8.027730941772461,-13.79408073425293,28.090213775634766,11.618186950683594
0,280475,-14.972742080688477,16.383390426635742,14.600573539733887,-22.5614070892334
0,280476,18.389867782592773,17.986263275146484,-18.44546890258789,-6.7038893699646
0,280477,-13.89009952545166,-15.656803131103516,-39.90824890136719,46.977867126464844
0,280480,-11.361420631408691,-6.876981258392334,75.76616668701172,-8.280730247497559
0,280481,29.615657806396484,21.1859073638916,172.2943572998047,-39.98454666137695
0,280484,33.19280242919922,58.894771575927734,114.25769805908203,6.533468723297119
0,280485,5.556034564971924,14.792387962341309,7.871942043304443,21.40408706665039
0,280488,-0.3404043912887573,-11.927966117858887,-25.351104736328125,8.638065338134766
0,280489,39.02821350097656,74.00418090820312,-17.66602325439453,-22.74309730529785
0,280492,-29.928268432617188,-53.901527404785156,-236.5418243408203,-34.564910888671875
0,280493,-93.25553894042969,-161.6527862548828,-257.93133544921875,-14.38931941986084
0,280496,-12.8900146484375,18.01471519470215,35.36798858642578,-17.312318801879883
0,280497,32.66623306274414,40.69164276123047,-0.9498478174209595,31.873571395874023
0,280500,15.482343673706055,-30.183834075927734,18.920581817626953,54.48153305053711
0,280501,-3.794315814971924,10.177335739135742,204.75579833984375,-21.103212356567383
0,280504,16.390939712524414,57.297874450683594,128.85809326171875,-25.972457885742188
0,280505,30.508331298828125,32.583351135253906,-43.7242317199707,15.008299827575684
0,280508,-15.223551750183105,-21.727519989013672,-17.01565933227539,22.763275146484375
0,280509,-19.60494613647461,-5.995293140411377,50.68300247192383,-7.987000942230225
0,280512,-3.7801151275634766,-35.02717208862305,-209.06814575195312,-38.458770751953125
0,280513,-12.204155921936035,-19.987070083618164,-171.9121856689453,-26.242223739624023
0,280516,10.08037281036377,49.34789276123047,147.22813415527344,45.023902893066406
0,280517,-10.569255828857422,-21.180517196655273,1.3390287160873413,-11.561810493469238
0,280520,-14.352081298828125,-44.598045349121094,-31.308670043945312,-53.45309066772461
0,280521,38.42152404785156,32.988895416259766,190.48794555664062,112.4535140991211
0,280524,13.971689224243164,52.97525405883789,90.58882904052734,22.20485496520996
0,280689,-12.392181396484375,24.325063705444336,-20.45464324951172,-100.40289306640625
0,280689,9.254070281982422,-23.996421813964844,-35.37028884887695,9.564176559448242
0,280689,3.479315996170044,-40.64057922363281,-34.24029541015625,41.47006607055664
0,280689,2.94313383102417,15.09394359588623,84.71505737304688,19.15854835510254
0,280689,13.063223838806152,50.00675582885742,95.41411590576172,1.3651453256607056
0,280689,-5.26699161529541,-15.707171440124512,-7.987748146057129,-9.814570426940918
0,280690,-12.468280792236328,-13.508910179138184,-77.52979278564453,-0.25395479798316956
0,280690,-2.163498878479004,27.215679168701172,-111.06563568115234,-15.192444801330566
0,280690,-5.043568134307861,-34.07738494873047,-122.18132019042969,-21.080345153808594
0,280690,-27.2618350982666,-52.80641555786133,-131.39199829101562,-18.022472381591797
0,280690,-27.051958084106445,-20.605125427246094,-75.00125122070312,-5.022370338439941
0,280690,2.929281234741211,6.095041751861572,26.301006317138672,11.195109367370605
0,280691,11.63302993774414,-8.59829044342041,59.95392608642578,4.624343395233154
0,280691,8.273941993713379,-13.467814445495605,82.08617401123047,17.746339797973633
0,280691,8.134016036987305,41.65620040893555,100.04987335205078,12.41596794128418
0,280691,15.476295471191406,43.30245590209961,51.17718505859375,-18.656837463378906
0,280691,12.012235641479492,5.607019901275635,-13.979049682617188,-5.104470252990723
0,280691,-19.502967834472656,-29.960620880126953,-66.32135009765625,26.244779586791992
0,280692,-21.419857025146484,-18.878034591674805,-66.59490203857422,0.6224694848060608
0,280692,2.8866844177246094,3.3874454498291016,-31.452709197998047,-29.408628463745117
0,280692,3.6586859226226807,-10.990935325622559,-22.0703067779541,-3.813422441482544
0,280692,-7.44891357421875,-14.533275604248047,3.098611354827881,18.37598991394043
0,280692,-7.857771396636963,13.613045692443848,43.1970100402832,-1.27144455909729
0,280692,14.853007316589355,27.77779769897461,85.34839630126953,-10.358028411865234
0,280693,30.51441764831543,8.209691047668457,52.1529655456543,-9.933271408081055
0,280693,-7.023787021636963,-0.3823447823524475,-5.473875522613525,3.8620030879974365
0,280693,-22.47156524658203,-8.624616622924805,12.361478805541992,22.010183334350586
0,280693,21.580780029296875,-2.2473576068878174,-5.223803997039795,6.341723918914795
0,280693,26.771913528442383,14.87755298614502,-47.793846130371094,-15.534685134887695
0,280694,-3.9343247413635254,9.801925659179688,-43.51680374145508,-11.774839401245117
0,280694,-26.63501739501953,-16.88075065612793,5.100667953491211,5.073927879333496
0,280694,-14.581449508666992,-9.974724769592285,24.510589599609375,-2.0564181804656982
0,280694,8.717987060546875,10.986693382263184,9.97176456451416,5.647398948669434
0,280694,4.157205581665039,10.253645896911621,26.784753799438477,15.064920425415039
0,280694,-4.5440449714660645,0.3053888976573944,39.19500732421875,-4.354481220245361
0,280695,2.3298802375793457,-9.31026840209961,27.64177894592285,-16.97972297668457
0,280695,19.998458862304688,8.784268379211426,-17.75120735168457,4.853770732879639
0,280695,-16.689191818237305,0.2091444879770279,-11.29896354675293,21.6245059967041
0,280695,-24.938068389892578,-24.676877975463867,-18.344743728637695,-21.413188934326172
0,280695,17.719552993774414,-11.340929985046387,-71.0258560180664,-8.832773208618164
0,280695,-2.8603713512420654,13.248238563537598,-3.9117653369903564,34.34657669067383
0,280696,-10.013080596923828,-1.619709849357605,41.03815841674805,-15.784357070922852
0,280696,8.508185386657715,-25.519683837890625,-6.30753755569458,-9.932148933410645
0,280696,1.585945963859558,-1.425805926322937,16.264968872070312,21.1209774017334
0,280696,-0.7434951066970825,30.86264991760254,34.767578125,-8.209321975708008
0,280696,0.5425910949707031,23.7441349029541,-33.70856475830078,-2.5599989891052246
0,280696,3.2773120403289795,-8.045242309570312,-36.621707916259766,-1.4357671737670898
0,280697,4.461566925048828,-12.545159339904785,-2.9892752170562744,-8.698078155517578
0,280697,4.79841947555542,-28.313533782958984,-18.927574157714844,-8.413166999816895
0,280697,-6.04224967956543,-7.2929816246032715,-21.60980224609375,15.467833518981934
0,280697,-11.199224472045898,53.50886154174805,-4.5650434494018555,19.076087951660156
0,280697,3.9645845890045166,-22.070907592773438,12.470683097839355,-20.722970962524414
0,280697,-5.590461730957031,-51.57022476196289,24.48161506652832,-13.399272918701172
0,280698,2.1605701446533203,39.45207977294922,23.97345542907715,9.791276931762695
0,280698,29.362346649169922,25.78627586364746,12.427488327026367,18.696081161499023
0,280698,0.4058634042739868,-9.315613746643066,13.95242977142334,-13.884539604187012
0,280698,-5.46749210357666,14.506796836853027,14.410070419311523,-30.300493240356445
0,280698,3.3541624546051025,19.491716384887695,6.095836162567139,22.30210304260254
0,280698,-17.228673934936523,-10.050694465637207,4.658604621887207,11.62281608581543
0,280699,12.419882774353027,-1.855824589729309,1.6363213062286377,-12.584883689880371
0,280699,8.16848087310791,14.7117919921875,-2.2616608142852783,24.13713264465332
0,280699,-12.78534984588623,-11.331154823303223,3.148805856704712,-10.749106407165527
0,280699,13.671431541442871,-23.50272560119629,-2.415926694869995,-35.716209411621094
0,280699,-7.137991905212402,-9.908714294433594,-1.776559591293335,21.38254165649414
0,280699,-17.95035743713379,22.846954345703125,27.498729705810547,25.397544860839844
0,280700,-6.930918216705322,5.062265872955322,48.12635803222656,5.342555046081543
0,280700,10.428641319274902,1.6840922832489014,3.045841693878174,-2.465362310409546
0,280700,24.766124725341797,13.267829895019531,-37.478294372558594,-10.76961612701416
0,280700,-9.22106647491455,-46.050201416015625,-5.026180267333984,-2.3195269107818604
0,280700,-7.353658676147461,-23.13681411743164,-5.566286087036133,-0.8507033586502075
0,280700,1.4530441761016846,39.569034576416016,-4.826938152313232,15.115470886230469
0,280701,-6.569575786590576,28.847532272338867,18.105451583862305,4.182934761047363
0,280701,2.626251697540283,-18.462844848632812,-9.972179412841797,-20.827451705932617
0,280701,-1.1969126462936401,-16.28534507751465,-12.77369499206543,14.07077407836914
0,280701,5.133332252502441,39.727046966552734,5.201029300689697,-3.0088624954223633
0,280701,-2.7032806873321533,-9.110856056213379,-15.06419849395752,-29.119609832763672
0,280701,-23.090208053588867,-36.36017608642578,-2.046107530593872,6.577199935913086
0,280702,8.404573440551758,27.963281631469727,23.44715118408203,-2.0718889236450195
0,280702,23.56986427307129,1.0178183317184448,1.817905068397522,-0.18229618668556213
0,280702,-12.03465747833252,-17.803773880004883,-5.864706516265869,14.480823516845703
0,280702,-8.531017303466797,5.254702091217041,-20.178800582885742,6.754910469055176
0,280702,12.740885734558105,15.440752029418945,-20.340103149414062,-2.283961772918701
0,280704,22.42117691040039,28.366100311279297,63.51601791381836,-7.390938758850098
0,280704,5.990654468536377,-11.740795135498047,29.570144653320312,11.027591705322266
0,280704,-21.50370216369629,-8.851892471313477,-78.16578674316406,-13.241297721862793
0,280704,4.837638854980469,2.2307660579681396,-35.944618225097656,-19.194150924682617
0,280704,2.548522710800171,-29.252939224243164,3.1905956268310547,30.125253677368164
0,280704,-22.43562889099121,-4.530153274536133,3.6131155490875244,7.468127727508545
0,280705,-4.160598278045654,10.820928573608398,1.9965887069702148,-28.734785079956055
0,280705,-2.6626386642456055,-12.351789474487305,-25.910335540771484,9.750006675720215
0,280706,11.293962478637695,-9.011136054992676,13.655409812927246,-15.186025619506836
0,280707,28.500459671020508,19.55437660217285,113.06354522705078,19.734773635864258
0,280710,-0.3232952654361725,30.365478515625,-57.518821716308594,17.11585807800293
0,280711,-29.135347366333008,19.998292922973633,-263.3673400878906,-134.34690856933594
0,280714,-7.718888282775879,-98.14322662353516,-105.46234893798828,45.2599983215332
0,280716,-8.028753280639648,-82.17735290527344,32.05802536010742,127.67218017578125
0,280718,-42.639957427978516,64.89231872558594,26.832508087158203,-51.24162292480469
0,280720,12.717748641967773,20.018001556396484,72.34481811523438,2.3270668983459473
0,280722,56.52680969238281,40.13294219970703,275.05108642578125,12.678017616271973
0,280724,17.688663482666016,49.904197692871094,218.05747985839844,-19.563289642333984
0,280726,-13.803509712219238,-17.5622501373291,-97.25527954101562,7.483377933502197
0,280728,9.595586776733398,8.601778030395508,-53.092247009277344,23.139909744262695
0,280730,-3.4614760875701904,-14.815500259399414,-65.10415649414062,0.8824917674064636
0,280732,-29.334585189819336,-36.436912536621094,-183.41162109375,-29.51659393310547
0,280734,-8.092100143432617,-12.982898712158203,-31.52278709411621,-8.724071502685547
0,280736,-12.719898223876953,-19.940393447875977,58.12211608886719,-26.51442527770996
0,280738,15.921710014343262,20.648181915283203,-20.075366973876953,30.147960662841797
0,280740,7.427623748779297,11.321187973022461,-17.789655685424805,63.62753677368164
0,280742,-2.6185262203216553,6.357936382293701,171.25694274902344,-71.8228530883789
0,280744,33.67033767700195,40.28417205810547,113.7913589477539,-76.61392211914062
0,280746,1.1352325677871704,-17.427162170410156,-93.62727355957031,63.24397277832031
0,280748,-9.722012519836426,-5.113800525665283,12.654739379882812,66.56959533691406
0,280750,-5.351662635803223,9.62911605834961,-19.96778678894043,-14.685295104980469
0,280752,-28.218914031982422,-26.207944869995117,-182.38023376464844,-41.90418243408203
0,280754,-14.290432929992676,-12.65906810760498,-15.047904014587402,-16.640182495117188
0,280928,70.37385559082031,65.76438903808594,407.29302978515625,36.897796630859375
0,280928,67.90141296386719,70.35924530029297,280.3599853515625,23.801137924194336
0,280928,-61.44025421142578,-46.50486373901367,-353.0640869140625,-29.273401260375977
0,280928,-57.05565643310547,-46.10185623168945,-274.0702209472656,-8.983382225036621
0,280929,1.3812460899353027,-11.929427146911621,-2.6387224197387695,-13.907791137695312
0,280929,-5.107542991638184,-51.11743927001953,-54.87518310546875,2.3215227127075195
0,280929,-1.3355658054351807,-14.88744831085205,15.818679809570312,45.2261848449707
0,280929,11.763840675354004,40.66314697265625,76.59812927246094,-12.819515228271484
0,280929,8.294404029846191,15.838324546813965,53.26856994628906,-13.641715049743652
0,280929,5.038207530975342,-3.5380685329437256,34.28089141845703,26.519067764282227
0,280930,-2.463552236557007,4.964421272277832,-2.749828338623047,-17.62505340576172
0,280930,-14.179633140563965,-3.421889543533325,-84.736328125,-37.54977798461914
0,280930,-1.9471715688705444,-26.06727409362793,-102.72887420654297,18.264039993286133
0,280930,-3.914916753768921,-15.751819610595703,-52.788597106933594,19.443042755126953
0,280930,-9.099931716918945,1.9714031219482422,-25.819538116455078,-21.299375534057617
0,280931,-2.0335259437561035,-1.1854948997497559,15.151397705078125,-1.0282278060913086
0,280931,-2.1501622200012207,2.1362059116363525,55.401641845703125,-8.094484329223633
0,280931,0.3677557408809662,-5.363999366760254,47.44905090332031,2.479952573776245
0,280931,8.765315055847168,17.90175437927246,71.97001647949219,24.505891799926758
0,280931,14.325981140136719,30.68796730041504,46.22172927856445,-12.792325973510742
0,280931,3.2242565155029297,-8.370726585388184,-20.694271087646484,-8.562491416931152
0,280932,3.6376724243164062,-6.9314727783203125,-22.356082916259766,17.916563034057617
0,280932,-0.34554436802864075,21.074281692504883,-21.843612670898438,-0.9700909852981567
0,280932,-22.617252349853516,-5.325015068054199,-51.87852478027344,32.67761993408203
0,280932,18.662046432495117,-21.975677490234375,-27.143421173095703,10.70358943939209
0,280932,9.556852340698242,5.909921169281006,35.02669143676758,-76.0148696899414
0,280932,-21.403179168701172,-4.142881870269775,23.042098999023438,-0.11992304027080536
0,280933,20.33896255493164,-21.329246520996094,23.170507431030273,45.054046630859375
0,280933,2.848226547241211,10.492765426635742,28.285234451293945,5.159901142120361
0,280933,-11.901090621948242,33.95269012451172,18.606740951538086,-19.126752853393555
0,280933,13.679616928100586,-0.708622395992279,17.40886116027832,-10.022865295410156
0,280933,-22.59043312072754,-24.6556396484375,-5.554596424102783,24.854143142700195
0,280933,-6.455678462982178,8.93061637878418,-37.0401496887207,-20.09148597717285
0,280934,38.657657623291016,10.54134750366211,-17.279888153076172,-20.121437072753906
0,280934,-18.09416961669922,-24.31913185119629,-2.0551230907440186,27.16557502746582
0,280934,-20.338394165039062,-19.92417335510254,-33.216068267822266,-2.313113212585449
0,280934,4.438002109527588,23.749055862426758,21.025665283203125,-2.5711231231689453
0,280934,-0.8144678473472595,30.066190719604492,42.30216979980469,12.06944751739502
0,280934,19.464414596557617,-19.992229461669922,55.09416580200195,11.172383308410645
0,280935,2.937058210372925,-1.0226213932037354,32.634273529052734,18.203296661376953
0,280935,-11.9273681640625,28.774837493896484,-63.85197830200195,-24.245492935180664
0,280935,2.3265540599823,-14.920916557312012,-14.623696327209473,-31.229427337646484
0,280935,5.559345245361328,-25.147838592529297,4.571816921234131,19.077251434326172
0,280935,-7.104628086090088,3.908529043197632,-35.04344177246094,23.077529907226562
0,280935,-9.676372528076172,27.533540725708008,-3.5116777420043945,-22.94689178466797
0,280936,5.158380031585693,12.153022766113281,12.756424903869629,-16.850574493408203
0,280936,7.368691921234131,-16.344484329223633,-2.143958330154419,14.315803527832031
0,280936,-1.2317843437194824,-21.716670989990234,-3.2643024921417236,-14.463951110839844
0,280936,-0.675087571144104,-12.870084762573242,8.975485801696777,-9.634881019592285
0,280936,6.782796859741211,0.5962284207344055,-19.75809097290039,24.52165985107422
0,280936,-5.522289276123047,3.867591619491577,-27.080368041992188,-6.065703392028809
0,280937,-6.711254596710205,3.0299789905548096,12.810193061828613,-15.75108528137207
0,280937,11.783095359802246,13.623184204101562,5.297471046447754,8.276285171508789
0,280937,-0.2872666120529175,13.2791748046875,-21.815828323364258,3.130703926086426
0,280937,-20.866138458251953,-21.3526554107666,1.792611002922058,-4.748333930969238
0,280937,9.061498641967773,1.037833333015442,19.28382682800293,1.6863330602645874
0,280937,9.907444953918457,4.163621425628662,9.581108093261719,13.763834953308105
0,280938,-16.832796096801758,1.1594815254211426,22.91077995300293,3.0230536460876465
0,280938,10.32358169555664,31.653730392456055,24.375669479370117,-1.4894862174987793
0,280938,0.46898674964904785,-26.485641479492188,0.6251112222671509,-12.346193313598633
0,280938,-6.6598029136657715,-28.647293090820312,16.85710906982422,4.670251846313477
0,280938,16.141080856323242,32.254493713378906,27.268983840942383,36.27222442626953
0,280939,-6.782027721405029,13.824739456176758,-6.368464946746826,-13.399734497070312
0,280939,-8.523466110229492,-24.767656326293945,-14.726815223693848,-19.998348236083984
0,280939,17.63442039489746,-8.845366477966309,10.024020195007324,22.13764190673828
0,280939,-0.14449243247509003,17.45635986328125,-0.36841240525245667,-5.314101696014404
0,280939,-22.182767868041992,0.26857346296310425,-5.773371696472168,-15.901773452758789
0,280939,10.7556734085083,-2.473475694656372,17.727218627929688,26.9434814453125
0,280940,26.77007293701172,13.698116302490234,-3.6606552600860596,-8.913381576538086
0,280940,-9.445131301879883,-6.018208980560303,-14.26418685913086,-33.12965774536133
0,280940,-4.457206726074219,-2.2116355895996094,13.695873260498047,29.726720809936523
0,280940,15.697195053100586,29.00145149230957,30.179462432861328,6.68367338180542
0,280940,-14.616548538208008,-0.8530336022377014,-5.3793439865112305,-37.60307693481445
0,280940,-15.17119026184082,-34.7669677734375,-41.68843078613281,13.469966888427734
0,280941,14.033912658691406,3.941075325012207,7.5521464347839355,30.591232299804688
0,280941,10.50407600402832,18.614912033081055,10.44008731842041,-26.96617889404297
0,280941,-22.275774002075195,-16.451976776123047,-12.315740585327148,-9.709698677062988
0,280941,-21.646385192871094,-13.90108871459961,6.987276077270508,15.906044006347656
0,280941,11.794868469238281,10.671796798706055,-10.718432426452637,-15.79373836517334
0,280941,14.700725555419922,19.942060470581055,2.2928342819213867,-4.5378594398498535
0,280942,13.0295991897583,9.935311317443848,-6.864103317260742,1.4537290334701538
0,280942,-5.215689659118652,-23.087984085083008,-12.362137794494629,21.494853973388672
0,280942,-1.439468264579773,-7.597497463226318,29.852094650268555,13.257988929748535
0,280942,7.404748439788818,13.966997146606445,3.5430712699890137,-19.134294509887695
0,280942,-20.661819458007812,-21.198984146118164,-36.352989196777344,-2.472487211227417
0,280942,-9.724539756774902,1.179813265800476,-8.467177391052246,2.653325080871582
0,280943,31.850067138671875,34.511234283447266,18.071775436401367,2.4714348316192627
0,280944,18.771692276000977,1.323875904083252,11.407573699951172,-3.407362461090088
0,280944,-33.23775863647461,-18.27475929260254,5.333627223968506,9.20263957977295
0,280944,-14.27554702758789,-11.84204387664795,-23.22318458557129,-4.974203586578369
0,280944,12.519353866577148,-4.366881370544434,-33.38557052612305,-21.61536407470703
0,280945,-15.547025680541992,16.10235595703125,15.216998100280762,9.311074256896973
0,280945,9.43412971496582,6.389998435974121,14.018125534057617,5.0389838218688965
0,280945,22.823678970336914,-23.500717163085938,-27.095365524291992,-1.7265548706054688
0,280945,-17.201204299926758,13.174750328063965,14.3714599609375,5.916133880615234
0,280946,10.615047454833984,17.17643928527832,21.6165771484375,5.5853705406188965
0,280948,34.15597152709961,-3.398493766784668,49.352779388427734,3.1260874271392822
0,280950,-32.47881317138672,2.8452348709106445,-92.20585632324219,-4.3896331787109375
0,280952,-52.23172378540039,-44.18055725097656,-277.7117004394531,-7.315304279327393
0,280954,10.09479808807373,-51.174015045166016,-49.353816986083984,5.041166305541992
0,280956,8.27840805053711,-2.224341630935669,99.98116302490234,-10.609265327453613
0,280958,-22.39361000061035,21.30886459350586,9.84111499786377,9.484967231750488
0,280960,10.444759368896484,-0.3352602422237396,70.03620147705078,26.18019676208496
0,280962,50.97157669067383,25.411911010742188,264.8150939941406,-38.99452209472656
0,280964,12.343074798583984,61.99285888671875,155.064208984375,-14.10729694366455
0,280966,-16.118091583251953,12.113937377929688,-71.88114166259766,25.447540283203125
0,280968,12.95364761352539,2.5704452991485596,9.5523681640625,7.67861270904541
0,280970,-11.99165153503418,-5.816651821136475,-118.78125762939453,-9.774821281433105
0,280972,-15.013269424438477,-32.926719665527344,-233.1936798095703,-15.331591606140137
0,280974,-6.620758056640625,-37.15182876586914,5.760459899902344,9.483804702758789
0,280976,-20.194740295410156,-17.98033332824707,64.04027557373047,-6.795044422149658
0,280978,-4.671566486358643,22.711000442504883,-13.357941627502441,4.085456371307373
0,280980,13.373844146728516,19.571264266967773,20.576257705688477,37.666473388671875
0,280982,29.81310272216797,20.210153579711914,188.89059448242188,-15.813750267028809
0,280984,11.19794750213623,3.864680051803589,83.59912109375,-26.560379028320312
0,280986,-2.070171594619751,-7.015998840332031,-115.7223129272461,27.45123291015625
0,280988,-14.733716011047363,3.452744960784912,39.1180534362793,37.364139556884766
0,280990,-23.5800838470459,1.1283682584762573,-65.3658676147461,-25.942882537841797
0,280992,9.104246139526367,-1.2533947229385376,-180.9224853515625,-55.29209518432617
0,280994,17.792654037475586,-33.65758514404297,35.19780349731445,16.878002166748047
0,280996,-24.258089065551758,-3.5534119606018066,65.5184555053711,24.03951072692871
0,281180,-4.75937557220459,14.7441987991333,64.98640441894531,-9.80086612701416
0,281180,34.71822738647461,-15.088927268981934,2.569622278213501,-7.267471790313721
0,281180,-26.02595329284668,-9.654537200927734,-160.810302734375,-0.8960422873497009
0,281180,-40.53157043457031,-34.03104019165039,-74.2688217163086,7.869414329528809
0,281181,18.377275466918945,4.755552291870117,44.063194274902344,5.241161823272705
0,281181,38.953338623046875,30.371442794799805,76.13587188720703,-3.1126132011413574
0,281181,4.854924201965332,5.919374942779541,119.77301788330078,17.151411056518555
0,281181,-28.17873764038086,43.074668884277344,117.50013732910156,13.324089050292969
0,281181,27.461294174194336,23.33016586303711,50.39736557006836,-33.74313735961914
0,281181,48.738834381103516,-22.014461517333984,-4.451939105987549,-13.053496360778809
0,281182,-31.328317642211914,10.542276382446289,-25.236915588378906,28.51618766784668
0,281182,-14.66005802154541,24.681921005249023,-96.25645446777344,-15.490799903869629
0,281182,7.567093849182129,-35.21807861328125,-126.91512298583984,-32.120967864990234
0,281182,-26.243242263793945,-34.44776916503906,-56.958595275878906,23.503841400146484
0,281182,-2.5833425521850586,20.024906158447266,19.91007423400879,20.559284210205078
0,281182,18.452281951904297,-0.5080061554908752,33.260223388671875,-14.820391654968262
0,281183,17.99498748779297,-30.44560432434082,59.54988479614258,-13.463537216186523
0,281183,-19.242238998413086,5.418712615966797,91.35035705566406,20.003198623657227
0,281183,-27.056215286254883,41.13154983520508,17.333635330200195,21.76007080078125
0,281183,11.98429012298584,23.44412612915039,-5.026605606079102,-20.561859130859375
0,281183,22.669158935546875,-20.54145050048828,-22.065866470336914,-13.671969413757324
0,281184,5.996971130371094,-15.732078552246094,-78.83625793457031,20.30147933959961
0,281184,-40.30889892578125,7.363927364349365,-51.76405715942383,9.376958847045898
0,281184,-16.697490692138672,-5.793145656585693,-34.974510192871094,-35.84474563598633
0,281184,22.36094856262207,-26.057056427001953,-5.892510890960693,-6.502472877502441
0,281184,-0.6591689586639404,-0.65285724401474,8.144888877868652,30.20907974243164
0,281184,3.1415367126464844,36.68454360961914,18.555173873901367,-17.23560905456543
0,281185,17.580705642700195,-25.708526611328125,74.80108642578125,0.2067476511001587
0,281185,19.687978744506836,-26.834970474243164,40.523704528808594,28.2570743560791
0,281185,-1.7308001518249512,54.97124099731445,-32.814247131347656,-2.5313796997070312
0,281185,-21.005979537963867,-15.961615562438965,-13.273905754089355,0.12776429951190948
0,281185,-7.231176853179932,-43.46971130371094,11.120558738708496,-11.842507362365723
0,281185,10.006875991821289,45.41846466064453,-42.52616500854492,-24.44585609436035
0,281186,7.7227983474731445,9.400432586669922,-36.79636764526367,9.93637466430664
0,281186,-8.185041427612305,-20.839824676513672,16.261428833007812,20.164798736572266
0,281186,-7.903844833374023,2.79864239692688,17.844877243041992,-0.4984491169452667
0,281186,-5.58299446105957,-11.625736236572266,20.892274856567383,2.2406954765319824
0,281186,7.78708028793335,0.7949950695037842,50.831966400146484,-10.55466079711914
0,281186,23.30455207824707,41.88053512573242,43.22925567626953,-8.241000175476074
0,281187,2.1340718269348145,30.74292755126953,2.6542446613311768,5.194246292114258
0,281187,-11.472406387329102,-39.47054672241211,-10.93199348449707,-6.654359817504883
0,281187,-19.781856536865234,-23.02290916442871,-39.656044006347656,27.722692489624023
0,281187,-6.598507404327393,32.53814697265625,-46.61158752441406,-15.089567184448242
0,281187,22.636934280395508,-11.792643547058105,-16.041656494140625,-46.461517333984375
0,281187,-5.949482440948486,-37.96693420410156,-2.201329469680786,19.184221267700195
0,281188,-22.67622947692871,-2.193145275115967,4.6345062255859375,10.227306365966797
0,281188,8.793381690979004,15.385063171386719,-6.034048557281494,4.19051456451416
0,281188,2.28367018699646,15.385205268859863,-5.694782733917236,10.315926551818848
0,281188,2.885615110397339,-5.4922051429748535,-5.69713830947876,-16.708778381347656
0,281188,6.433210372924805,-25.74049186706543,-6.951044082641602,14.508219718933105
0,281188,-8.184110641479492,9.967628479003906,-7.903447151184082,14.118593215942383
0,281189,9.743128776550293,26.538280487060547,-15.15960693359375,-7.299202919006348
0,281189,1.5466177463531494,-13.826848030090332,-2.5431418418884277,2.5095837116241455
0,281189,-12.031024932861328,-27.50274085998535,-7.021762847900391,-30.786598205566406
0,281189,-16.78319549560547,2.236689329147339,-12.455856323242188,0.6527649760246277
0,281189,-1.4047784805297852,17.12710189819336,2.5717689990997314,22.967243194580078
0,281189,24.361324310302734,-13.303475379943848,-1.3617794513702393,-13.113486289978027
0,281190,-7.933755397796631,-10.79142951965332,-8.60961627960205,19.787527084350586
0,281190,-7.5189642906188965,20.029083251953125,13.275559425354004,15.875434875488281
0,281190,23.54941177368164,19.086196899414062,11.073969841003418,-25.74940299987793
0,281190,-6.571162700653076,-13.544236183166504,-5.864614009857178,-12.717066764831543
0,281190,-17.060224533081055,-30.066650390625,-6.519009113311768,6.761720657348633
0,281190,14.492584228515625,-3.592066764831543,-0.48463860154151917,9.437161445617676
0,281191,-10.625297546386719,27.993160247802734,13.996781349182129,19.017518997192383
0,281191,-18.31713104248047,19.543018341064453,-6.071357727050781,3.1971147060394287
0,281191,32.05730438232422,-32.55378723144531,-18.249221801757812,-22.92266845703125
0,281191,7.6849284172058105,-18.3930606842041,27.406578063964844,13.134344100952148
0,281191,-28.31583595275879,46.39836883544922,53.65619659423828,3.8145813941955566
0,281191,-4.20650577545166,4.9849629402160645,6.3290815353393555,-32.874332427978516
0,281192,17.03468132019043,-32.72340393066406,-30.20241355895996,-5.848515033721924
0,281192,13.199470520019531,-0.4143860936164856,-9.892460823059082,19.383358001708984
0,281192,-14.575212478637695,-1.0470466613769531,-8.72802448272705,19.124853134155273
0,281192,-2.3106932640075684,7.279694557189941,0.2595606744289398,-10.948638916015625
0,281192,7.419322967529297,12.023269653320312,12.326342582702637,-7.667383670806885
0,281192,-8.968817710876465,6.134239673614502,-2.864835262298584,1.0670180320739746
0,281193,15.356758117675781,3.6975831985473633,-7.687413692474365,-23.74613380432129
0,281193,9.237669944763184,-18.48930549621582,-10.157169342041016,5.441256046295166
0,281193,-24.312654495239258,-14.215059280395508,17.147220611572266,33.05546188354492
0,281193,-2.8624379634857178,11.943277359008789,27.761032104492188,-9.208540916442871
0,281193,13.427753448486328,7.560274600982666,-15.691893577575684,-20.30430030822754
0,281194,-7.624044895172119,-4.936138153076172,-19.00347900390625,-0.8168491125106812
0,281194,-7.353059768676758,14.468488693237305,26.36512565612793,-5.6688385009765625
0,281194,13.06231689453125,-4.275722980499268,20.671964645385742,9.01811408996582
0,281194,-0.26292043924331665,-34.08666229248047,-17.61334800720215,7.838871479034424
0,281194,-26.741138458251953,5.644516468048096,-10.99674129486084,4.575829982757568
0,281194,17.000154495239258,19.91518783569336,14.037339210510254,5.665258884429932
0,281195,30.966163635253906,-4.035489082336426,29.111440658569336,-11.112120628356934
0,281195,-24.583627700805664,4.712337493896484,-12.784833908081055,10.013082504272461
0,281195,-8.680453300476074,25.84027862548828,-13.322264671325684,8.098834037780762
0,281195,14.653597831726074,7.285804748535156,29.4338321685791,-8.975626945495605
0,281195,6.1284308433532715,-24.72221565246582,-17.617427825927734,11.4111328125
0,281195,15.380125999450684,-5.48195743560791,-23.330368041992188,7.676586627960205
0,281197,-24.166784286499023,-5.9305830001831055,-54.70022964477539,-22.6466121673584
0,281197,-31.954233169555664,-16.97939682006836,-63.21464538574219,-13.562248229980469
0,281197,24.427396774291992,20.47260856628418,65.35649871826172,18.354108810424805
0,281197,17.668169021606445,9.764880180358887,53.3257942199707,-5.247137069702148
0,281197,-21.80618667602539,-19.920879364013672,-21.367876052856445,-0.08011052012443542
0,281197,-9.254277229309082,-1.333045244216919,-3.847325086593628,8.562142372131348
0,281198,21.517868041992188,11.246533393859863,24.753822326660156,-17.316667556762695
0,281198,11.306299209594727,-4.609578609466553,7.777256965637207,8.620855331420898
0,281199,-12.1686372756958,0.24800291657447815,52.6553840637207,9.360807418823242
0,281200,0.44683781266212463,33.244834899902344,173.89059448242188,-4.492638111114502
0,281202,22.445215225219727,46.31635284423828,104.97649383544922,5.135298252105713
0,281204,20.996702194213867,14.998403549194336,19.65081787109375,14.501126289367676
0,281206,17.07023811340332,-13.277968406677246,4.794723987579346,1.0552394390106201
0,281208,-7.316768646240234,15.360149383544922,-66.5527114868164,-22.05508041381836
0,281210,-24.374038696289062,-2.41304087638855,-153.75718688964844,-4.617550849914551
0,281212,-33.28732681274414,-85.46916961669922,-294.9344482421875,-11.85546588897705
0,281214,-33.13581466674805,-63.188655853271484,-123.41561126708984,-4.231698036193848
0,281216,15.114771842956543,23.189857482910156,102.83894348144531,24.1318302154541
0,281218,8.30836296081543,-9.616352081298828,-38.10475540161133,-1.6223423480987549
0,281220,-4.324895858764648,-11.342626571655273,110.6654052734375,-15.857794761657715
0,281222,10.16678237915039,66.46366882324219,240.39137268066406,3.953296184539795
0,281224,16.120441436767578,38.22039794921875,1.8413647413253784,25.115203857421875
0,281226,28.218143463134766,-9.621920585632324,-36.16798782348633,-8.609259605407715
0,281228,-12.0032320022583,6.279683589935303,29.507192611694336,-34.21504211425781
0,281230,-22.909000396728516,8.910286903381348,-37.16153335571289,-6.011609077453613
0,281232,-3.8124749660491943,-60.1575813293457,-198.4925994873047,29.011472702026367
0,281234,1.1985374689102173,-30.29065704345703,-68.95165252685547,24.674148559570312
0,281236,-11.633952140808105,22.850494384765625,79.76447296142578,-36.85736846923828
0,281238,-20.759883880615234,-29.17232322692871,-78.45126342773438,-6.918838977813721
0,281240,26.011369705200195,35.03968048095703,134.3693084716797,37.086891174316406
0,281242,24.436111450195312,64.85137939453125,231.34678649902344,4.002703666687012
0,281244,12.314804077148438,-10.645073890686035,-89.88215637207031,-7.120843887329102
0,281246,-6.124780178070068,-48.43825912475586,-60.61294174194336,1.2776614427566528
0,281248,-21.266939163208008,-14.988980293273926,75.68801879882812,-1.9006645679473877
0,281250,-1.1593204736709595,38.03400421142578,-52.746337890625,-24.86574363708496
0,281442,-15.40700626373291,5.609500885009766,-3.3267970085144043,5.5451979637146
0,281442,13.418044090270996,8.539566040039062,193.14102172851562,37.89289093017578
0,281442,34.65291976928711,32.47550582885742,18.4268856048584,-10.680950164794922
0,281442,-3.796295404434204,-4.013017177581787,-141.0742950439453,-25.525222778320312
0,281442,-18.549226760864258,-32.19639205932617,-104.1751708984375,3.1906514167785645
0,281443,0.4270097613334656,-33.49434280395508,-119.63189697265625,-5.624048709869385
0,281443,-23.78732681274414,-27.902982711791992,-56.05462646484375,-0.8114621043205261
0,281443,-23.24063491821289,-6.760352611541748,15.165301322937012,6.690472602844238
0,281443,11.531044006347656,4.159061908721924,38.549983978271484,0.053637318313121796
0,281443,11.005431175231934,-4.386188983917236,67.7642822265625,5.2232513427734375
0,281443,17.492963790893555,41.30977249145508,84.42367553710938,-2.544912815093994
0,281444,12.473855972290039,30.8945255279541,85.01313781738281,-5.392951011657715
0,281444,-2.9274847507476807,-13.093792915344238,14.84427261352539,-15.481799125671387
0,281444,-11.246015548706055,11.119569778442383,-82.55697631835938,4.408801078796387
0,281444,-1.61744225025177,-4.363032341003418,-68.66455841064453,19.955129623413086
0,281444,17.489980697631836,-13.758491516113281,-53.34269714355469,-10.596570014953613
0,281445,5.62429666519165,-3.9112162590026855,-59.97418975830078,12.614185333251953
0,281445,-28.705989837646484,-11.348505020141602,17.130022048950195,14.089245796203613
0,281445,-9.91446590423584,-0.9113048315048218,55.793460845947266,-29.20854949951172
0,281445,9.735026359558105,22.910053253173828,52.29502868652344,-1.8806415796279907
0,281445,2.5085196495056152,14.9896821975708,36.00905990600586,8.761286735534668
0,281445,23.14075469970703,-3.9268879890441895,17.80084228515625,-12.173800468444824
0,281446,-0.11612620949745178,-0.3708965480327606,27.7111759185791,14.98910140991211
0,281446,-26.54378890991211,-12.978409767150879,-20.439680099487305,11.880406379699707
0,281446,6.040870189666748,2.7831757068634033,-60.366249084472656,-20.615623474121094
0,281446,4.680890083312988,-9.81344223022461,-33.37976837158203,2.1481516361236572
0,281446,-26.59055519104004,-32.46931076049805,3.708932876586914,21.64352035522461
0,281446,-3.103484630584717,2.8676042556762695,8.801061630249023,-1.6891974210739136
0,281447,33.69426727294922,22.982242584228516,19.908241271972656,-5.348708629608154
0,281447,30.054380416870117,25.444095611572266,27.442211151123047,-4.57883358001709
0,281447,-8.391256332397461,-4.181718349456787,17.796213150024414,7.904086112976074
0,281447,-14.689947128295898,-0.8292719721794128,34.36418151855469,0.4676142632961273
0,281447,15.401652336120605,17.06344223022461,-14.492032051086426,-19.13676643371582
0,281447,-10.659286499023438,-10.035856246948242,-52.433528900146484,21.015649795532227
0,281448,-24.565643310546875,-11.469184875488281,-2.855788230895996,14.8335599899292
0,281448,-4.764601707458496,-13.655677795410156,-23.53466796875,-43.14087677001953
0,281448,-8.97075366973877,-12.5791597366333,-64.99317169189453,-8.387625694274902
0,281448,6.980194091796875,9.843140602111816,-1.4500161409378052,44.37818908691406
0,281448,19.21906089782715,3.0465621948242188,32.982486724853516,-5.660046100616455
0,281448,1.2319949865341187,-10.679353713989258,6.294673919677734,-26.472740173339844
0,281449,3.3986268043518066,3.260779857635498,-12.248324394226074,6.412866592407227
0,281449,-8.96208667755127,13.631699562072754,-22.12889862060547,-2.717806100845337
0,281449,-8.967344284057617,-2.593872308731079,34.52133560180664,-2.1295430660247803
0,281449,17.039470672607422,-19.9332332611084,-4.7556657791137695,0.6362419128417969
0,281449,-10.728615760803223,0.8104564547538757,-72.2538070678711,-13.685221672058105
0,281449,-13.781039237976074,10.734959602355957,-3.1423404216766357,-3.2299227714538574
0,281450,-1.589919924736023,-2.7708070278167725,-11.371957778930664,-8.270316123962402
0,281450,-27.131715774536133,-16.11775016784668,-10.272790908813477,-0.07461738586425781
0,281450,-8.348156929016113,-20.601028442382812,61.761844635009766,20.141942977905273
0,281450,32.01659393310547,14.693595886230469,32.97972869873047,-1.5476229190826416
0,281450,16.164411544799805,14.705254554748535,-15.834383964538574,-3.212337017059326
0,281450,-18.171646118164062,-3.3230907917022705,20.067108154296875,10.372629165649414
0,281451,13.189040184020996,2.439340591430664,14.886591911315918,13.097731590270996
0,281451,10.98651123046875,0.09160410612821579,-22.1336612701416,3.937352418899536
0,281451,-13.512638092041016,6.931117534637451,6.50045919418335,-2.990452289581299
0,281451,20.216838836669922,7.883831977844238,2.1484169960021973,-1.159027338027954
0,281451,8.157313346862793,-14.777935028076172,-26.674880981445312,1.4401625394821167
0,281451,-20.01177215576172,-9.900486946105957,3.9839625358581543,11.552993774414062
0,281452,4.264206409454346,21.994287490844727,25.880346298217773,-0.6288283467292786
0,281452,4.288664817810059,5.796172618865967,-3.8572158813476562,-3.6455750465393066
0,281452,-21.696176528930664,-2.4777824878692627,12.729832649230957,-4.40313196182251
0,281452,10.252333641052246,-10.772366523742676,16.67451286315918,5.188602447509766
0,281452,11.996759414672852,-11.117976188659668,-14.024230003356934,18.049558639526367
0,281452,-17.73026466369629,29.113265991210938,1.4164984226226807,-11.520101547241211
0,281453,-10.988767623901367,-2.270296812057495,0.37207117676734924,-27.649845123291016
0,281453,4.047447681427002,-24.60245132446289,-4.3103718757629395,-0.5677840113639832
0,281453,24.152048110961914,9.598146438598633,14.049537658691406,15.704933166503906
0,281453,11.344192504882812,8.730688095092773,-9.504982948303223,-5.678410053253174
0,281453,-7.953143119812012,-8.627440452575684,-9.828824996948242,-1.100163459777832
0,281453,5.240500450134277,12.337738037109375,30.940780639648438,10.170276641845703
0,281454,-6.132904052734375,22.223896026611328,17.15393829345703,-14.92494010925293
0,281454,-9.68797492980957,-33.56718063354492,-9.758831024169922,-33.24134826660156
0,281454,-0.34292110800743103,-10.34989070892334,1.8562525510787964,15.856508255004883
0,281454,3.2041378021240234,28.484424591064453,3.1915652751922607,34.08536148071289
0,281454,-6.554718017578125,-3.883918285369873,-11.7811861038208,-18.47530174255371
0,281455,-20.299978256225586,-1.6294589042663574,1.8299040794372559,-14.993950843811035
0,281455,24.59387969970703,-18.320213317871094,-11.852594375610352,-4.847712516784668
0,281455,0.791077733039856,-6.565011978149414,-9.927431106567383,19.025955200195312
0,281455,-34.5374641418457,23.815105438232422,10.15923023223877,25.835622787475586
0,281455,15.12094783782959,-3.2763707637786865,-21.033334732055664,-34.00642395019531
0,281455,15.059327125549316,-15.675076484680176,-1.251003384590149,-5.599438667297363
0,281456,-13.9972505569458,14.53729248046875,22.900693893432617,39.30912780761719
0,281456,1.3586549758911133,23.038339614868164,-23.037561416625977,-5.086831092834473
0,281456,20.126340866088867,-19.686052322387695,-35.327049255371094,-22.741483688354492
0,281456,0.8674123287200928,-19.06736183166504,-3.966960906982422,7.278376579284668
0,281456,-9.645527839660645,-3.1860179901123047,5.837831974029541,-2.359130620956421
0,281456,-2.174591302871704,-12.050459861755371,-5.838461399078369,-6.521205902099609
0,281457,-12.782224655151367,13.9981689453125,5.19558048248291,15.274989128112793
0,281457,9.042407989501953,25.36252784729004,22.482633590698242,-13.40155029296875
0,281457,20.081645965576172,-9.15722942352295,10.408611297607422,-3.6120822429656982
0,281457,-15.48621940612793,-16.637897491455078,23.72675323486328,28.285512924194336
0,281457,7.148735046386719,5.938704013824463,20.740644454956055,-17.80501937866211
0,281457,20.38180160522461,-1.9324464797973633,-14.423547744750977,-21.25739097595215
0,281458,-16.653757095336914,-1.4708871841430664,13.721394538879395,27.864713668823242
0,281458,-12.726678848266602,16.351116180419922,31.381006240844727,5.9246649742126465
0,281458,15.127082824707031,18.847822189331055,-4.344917297363281,-15.701547622680664
0,281459,11.058497428894043,17.048311233520508,74.9539794921875,9.051895141601562
0,281459,-1.9895563125610352,-2.7450060844421387,102.68902587890625,17.717409133911133
0,281460,2.6036155223846436,2.3189845085144043,-54.024635314941406,-3.3664186000823975
0,281460,-4.902017593383789,-14.330057144165039,-74.20040130615234,-26.898052215576172
0,281460,-15.514434814453125,-18.4567813873291,2.2441704273223877,8.240357398986816
0,281460,-2.0543551445007324,17.012819290161133,12.741236686706543,29.209043502807617
0,281460,13.461392402648926,5.1005401611328125,-0.3001199960708618,-21.625877380371094
0,281460,6.565866947174072,-1.826495885848999,-20.442203521728516,-25.34485626220703
0,281461,-15.496477127075195,-12.596789360046387,-25.051795959472656,8.86926555633545
0,281462,-2.4417178630828857,5.279321670532227,51.29007339477539,21.985431671142578
0,281463,38.4316520690918,32.332313537597656,72.34373474121094,-5.871217250823975
0,281466,14.758056640625,1.1637763977050781,-29.750734329223633,-20.71912956237793
0,281467,-14.625268936157227,-7.44911527633667,-22.00179100036621,30.380468368530273
0,281470,-19.577449798583984,-4.217092037200928,-168.33189392089844,1.5944849252700806
0,281471,-24.578842163085938,-31.614614486694336,-255.93368530273438,-44.185516357421875
0,281474,-19.85974884033203,-44.471866607666016,-5.8339385986328125,-12.800003051757812
0,281475,-8.113236427307129,-17.136899948120117,81.88189697265625,12.030708312988281
0,281478,-5.279010772705078,-10.439706802368164,10.221198081970215,36.691490173339844
0,281479,1.0955188274383545,-3.1890854835510254,62.46669387817383,3.974088430404663
0,281482,47.71451187133789,72.88141632080078,255.05502319335938,-14.654579162597656
0,281483,28.761125564575195,53.95612716674805,128.6041259765625,13.00788688659668
0,281486,-29.89310073852539,-34.83652877807617,-110.6117172241211,-5.7208099365234375
0,281487,-4.169064998626709,-7.165048122406006,-1.9801899194717407,-22.896697998046875
0,281490,18.8919734954834,7.924383640289307,-99.92256164550781,10.942171096801758
0,281492,-33.68050765991211,-20.774606704711914,-183.92333984375,24.45061683654785
0,281494,-33.72283935546875,-22.291128158569336,33.16107940673828,-27.85745620727539
0,281496,31.40163230895996,-24.20923614501953,43.023189544677734,7.892871379852295
0,281498,20.80387306213379,14.285700798034668,-10.782891273498535,27.359455108642578
0,281500,-17.538991928100586,13.167313575744629,55.16922378540039,-18.122846603393555
0,281502,23.39826774597168,23.40373420715332,148.0806121826172,-8.658661842346191
0,281504,18.990161895751953,25.366065979003906,44.355316162109375,2.7965354919433594
0,281506,-22.92302131652832,-19.781625747680664,-83.06371307373047,-11.57989501953125
0,281508,13.296764373779297,14.637140274047852,57.58954620361328,0.9712730050086975
0,281510,-7.719578266143799,-15.075915336608887,-124.36177062988281,-1.5059343576431274
0,281512,-26.700023651123047,-25.183073043823242,-209.7118377685547,-14.54015827178955
0,281707,43.39741134643555,75.19613647460938,437.108642578125,50.93265151977539
0,281707,36.669620513916016,56.85477066040039,364.39202880859375,2.895345449447632
0,281707,-22.46495246887207,-47.1119384765625,-350.1666564941406,-51.005577087402344
0,281707,-33.77323913574219,-48.07314682006836,-238.5027313232422,23.044979095458984
0,281707,-7.6302103996276855,-20.296966552734375,-31.3558349609375,0.6991670727729797
0,281707,-15.59439754486084,-18.010536193847656,-101.89412689208984,-11.85075569152832
0,281708,-21.14550018310547,18.08707046508789,-21.310348510742188,10.686917304992676
0,281708,18.565900802612305,3.1085174083709717,54.57925033569336,-9.389801025390625
0,281708,3.3907999992370605,-29.948318481445312,75.9933853149414,16.608238220214844
0,281708,1.309320330619812,19.175010681152344,76.9597396850586,9.459017753601074
0,281708,39.04777908325195,32.008148193359375,25.181438446044922,-21.129005432128906
0,281708,-0.9761061668395996,-8.071625709533691,-67.82740783691406,-18.750011444091797
0,281709,-29.569744110107422,-15.754278182983398,-60.11375045776367,4.289738178253174
0,281709,-1.646133542060852,-21.588970184326172,-68.23639678955078,9.9431734085083
0,281709,-21.094682693481445,-7.556075572967529,-98.12483978271484,2.894697666168213
0,281709,-21.882678985595703,-5.777222156524658,-10.98684024810791,13.308903694152832
0,281709,8.143736839294434,-20.399066925048828,49.75372314453125,-3.298886299133301
0,281710,12.283431053161621,20.996057510375977,52.37435531616211,-14.128390312194824
0,281710,18.21187400817871,3.0523200035095215,49.222591400146484,-8.230582237243652
0,281710,10.03444766998291,-21.08388328552246,45.54850387573242,5.979277610778809
0,281710,13.502923965454102,43.55227279663086,21.63039207458496,19.513568878173828
0,281710,5.859965801239014,11.519665718078613,-25.675228118896484,5.547396183013916
0,281710,-34.16234588623047,-32.94327163696289,-23.704011917114258,5.664116382598877
0,281711,-10.68205738067627,13.234981536865234,-4.772002696990967,-6.790744781494141
0,281711,25.855606079101562,15.430365562438965,-28.142471313476562,-25.49895477294922
0,281711,0.02325122058391571,-2.2907681465148926,-13.273197174072266,7.901573181152344
0,281711,-12.1782808303833,-7.05070686340332,14.071159362792969,15.032062530517578
0,281711,-11.458984375,-24.606109619140625,-0.6198146939277649,-14.702146530151367
0,281711,-18.996318817138672,-1.5392696857452393,31.818756103515625,-4.887784957885742
0,281712,14.532453536987305,17.405780792236328,48.4478874206543,33.21147155761719
0,281712,34.71743392944336,0.23518621921539307,10.619096755981445,1.7387391328811646
0,281712,-6.318978786468506,5.115893363952637,7.1931891441345215,-48.368595123291016
0,281712,-28.9420223236084,3.306253671646118,-19.701719284057617,-5.105997085571289
0,281712,3.371166706085205,8.540958404541016,-37.344383239746094,34.329227447509766
0,281712,26.906818389892578,0.9506956338882446,-2.634962558746338,-5.9019389152526855
0,281713,8.217395782470703,-27.079158782958984,-7.853848457336426,-16.19611167907715
0,281713,-36.22058868408203,-6.2188310623168945,13.74254035949707,11.417211532592773
0,281713,-2.68003511428833,15.613237380981445,23.18915557861328,-7.041067123413086
0,281713,27.85361671447754,10.789231300354004,7.238604545593262,4.719480991363525
0,281713,-17.495080947875977,16.285316467285156,26.217416763305664,12.55737018585205
0,281713,18.554656982421875,3.3996102809906006,1.1701909303665161,-20.820993423461914
0,281714,23.05821418762207,-1.878800868988037,-10.514451026916504,3.8416545391082764
0,281714,-23.40422248840332,-3.8772687911987305,23.68994903564453,11.606880187988281
0,281714,10.812607765197754,-9.57380199432373,-8.181949615478516,-9.304811477661133
0,281714,-5.326858997344971,6.258764266967773,-45.702308654785156,-8.29646110534668
0,281714,-24.416704177856445,-7.130621433258057,12.88014030456543,6.205474853515625
0,281714,34.46311950683594,4.85971736907959,5.996514797210693,21.069299697875977
0,281715,6.729650497436523,1.7994112968444824,-12.850977897644043,-7.970618724822998
0,281715,-31.54097557067871,-19.844491958618164,43.55815124511719,7.4188761711120605
0,281715,6.857668876647949,9.972989082336426,20.75676918029785,14.050963401794434
0,281715,21.073362350463867,16.2568359375,-36.369789123535156,-25.921613693237305
0,281715,-35.925865173339844,4.217071056365967,-44.27828598022461,-7.256285190582275
0,281715,-24.002151489257812,-3.904167652130127,-11.927611351013184,16.031795501708984
0,281716,50.88668441772461,-12.520755767822266,1.453307032585144,0.7382031679153442
0,281716,3.2415740489959717,-9.743938446044922,-29.879287719726562,-28.74239158630371
0,281716,-30.97356605529785,-16.56854820251465,-26.47342872619629,-6.930955410003662
0,281716,-2.523252010345459,-21.124988555908203,20.412553787231445,28.574369430541992
0,281716,20.226484298706055,15.78014850616455,32.50166702270508,10.142553329467773
0,281717,13.073090553283691,29.465068817138672,-8.072110176086426,-21.68073081970215
0,281717,-25.649938583374023,-4.738152027130127,-2.2182388305664062,-27.710031509399414
0,281717,2.3717153072357178,-1.4271196126937866,30.30567741394043,23.38899803161621
0,281717,8.76785659790039,-2.198112964630127,24.92034149169922,33.7693977355957
0,281717,-15.094873428344727,-1.5204508304595947,18.045379638671875,-19.864608764648438
0,281717,0.10316243767738342,9.297873497009277,-0.1793786585330963,-4.019056797027588
0,281717,-1.6243159770965576,-18.284198760986328,-8.70429801940918,36.352638244628906
0,281718,7.757385730743408,19.722768783569336,20.97047996520996,0.1570700854063034
0,281718,22.16042137145996,29.326007843017578,13.168083190917969,-31.149688720703125
0,281718,9.918501853942871,-42.4255256652832,-8.539802551269531,7.7307586669921875
0,281718,-17.039630889892578,-1.5371280908584595,34.0936164855957,23.35871124267578
0,281718,-5.473327159881592,52.75867462158203,19.159290313720703,-13.942285537719727
0,281718,18.302915573120117,-19.733362197875977,-17.685440063476562,-19.91570472717285
0,281719,1.6769132614135742,-29.20707893371582,2.2194411754608154,16.70126724243164
0,281719,-14.743855476379395,33.11631774902344,11.69072151184082,15.766197204589844
0,281719,-10.723821640014648,14.293317794799805,1.1574879884719849,-27.979167938232422
0,281719,14.652060508728027,-29.125301361083984,-8.946039199829102,-6.670222759246826
0,281719,20.184436798095703,-22.224884033203125,-5.1277055740356445,18.83148765563965
0,281720,-25.73679542541504,30.782758712768555,-12.398956298828125,-14.816797256469727
0,281720,-28.830402374267578,15.592745780944824,-16.87102699279785,-9.056158065795898
0,281720,9.200897216796875,-66.75856018066406,53.743507385253906,24.2648983001709
0,281720,11.04110336303711,14.389169692993164,14.66118049621582,10.455981254577637
0,281720,24.534521102905273,87.96160125732422,-105.07500457763672,-36.8326416015625
0,281720,-7.1806960105896,-29.594406127929688,-1.9879134893417358,-20.269065856933594
0,281721,-18.97269630432129,-17.35748291015625,57.66656494140625,14.019200325012207
0,281721,14.764833450317383,26.202003479003906,-24.61565589904785,14.736260414123535
0,281721,4.571928024291992,-26.2992000579834,-27.108299255371094,12.818950653076172
0,281721,1.4806108474731445,1.3437063694000244,32.63805389404297,-17.338720321655273
0,281721,-4.956029415130615,7.303658485412598,3.4230563640594482,-26.480079650878906
0,281721,-7.31423807144165,-20.541866302490234,-54.5764045715332,18.587949752807617
0,281722,-7.018978595733643,-0.6728866100311279,5.001855373382568,23.26238250732422
0,281722,-0.3549409806728363,-1.1834478378295898,38.97595977783203,2.8527896404266357
0,281722,17.60725212097168,-6.947850227355957,-26.240497589111328,-4.204437732696533
0,281722,29.024547576904297,14.833686828613281,-11.89552116394043,-23.320789337158203
0,281722,-18.193132400512695,-16.147153854370117,52.01072692871094,4.960415363311768
0,281722,-50.39350509643555,-11.08094596862793,-13.952818870544434,18.441341400146484
0,281723,18.696815490722656,30.933273315429688,-44.01079177856445,-0.24114984273910522
0,281723,18.807270050048828,-2.240058422088623,7.408960342407227,-8.04934310913086
0,281723,-15.254660606384277,-10.808871269226074,1.855919599533081,-10.138436317443848
0,281724,12.996543884277344,16.54941177368164,3.730895757675171,9.864479064941406
0,281724,-2.1210365295410156,6.005057334899902,4.992462635040283,6.734021186828613
0,281725,-20.081836700439453,-17.96776008605957,-11.58368968963623,4.9137091636657715
0,281725,11.409719467163086,-21.360170364379883,-2.221539258956909,10.988411903381348
0,281725,12.213740348815918,1.4608378410339355,7.750749111175537,-0.07853585481643677
0,281725,-12.898516654968262,24.942405700683594,35.53301239013672,-10.444701194763184
0,281725,-4.966242790222168,-0.6845230460166931,0.31351345777511597,-21.563852310180664
0,281725,11.16579818725586,18.613117218017578,-24.046409606933594,12.954373359680176
0,281726,5.879815578460693,7.33004093170166,8.845873832702637,14.442599296569824
0,281727,6.519882678985596,-46.457984924316406,32.49534225463867,-55.83985137939453
0,281728,1.7926762104034424,15.266135215759277,-8.603326797485352,-0.049854353070259094
0,281729,-11.34758186340332,11.77893352508545,-160.74964904785156,57.440677642822266
0,281732,-35.517051696777344,-64.80314636230469,-218.09808349609375,-16.456249237060547
0,281734,-25.0841121673584,-34.0975227355957,-19.59857940673828,-15.556488037109375
0,281736,3.9062864780426025,-3.517479181289673,91.8350601196289,15.918938636779785
0,281738,-19.9315242767334,-18.612512588500977,-14.502939224243164,-8.980511665344238
0,281740,31.176942825317383,52.66432571411133,227.9332733154297,20.526277542114258
0,281742,72.50626373291016,75.75568389892578,306.78826904296875,26.724079132080078
0,281744,2.153754949569702,9.056512832641602,-98.0607681274414,-17.49506378173828
0,281746,-32.82938003540039,-10.17092227935791,-90.45694732666016,-9.79645824432373
0,281748,3.2412819862365723,14.476869583129883,96.08777618408203,6.32063102722168
0,281750,33.159976959228516,-14.715377807617188,-77.47962951660156,-5.436954021453857
1,283212,-38.5322380065918,-50.513710021972656,-214.56243896484375,-21.535593032836914
1,283214,-65.3312759399414,-14.666182518005371,-95.50431060791016,-15.241897583007812
1,283216,33.25212478637695,12.342236518859863,75.49392700195312,6.333770751953125
1,283219,56.03373718261719,50.97834396362305,234.72354125976562,30.46632194519043
1,283220,21.85086441040039,35.35032272338867,166.22659301757812,-1.199805736541748
1,283223,-18.037565231323242,-18.24312973022461,-108.50730895996094,-18.862823486328125
1,283224,-21.810434341430664,-21.55365753173828,-125.83148193359375,8.538065910339355
1,283227,1.8519641160964966,-0.4010242223739624,19.4810791015625,-3.580679416656494
1,283228,-25.8687801361084,-2.4493842124938965,-42.11534881591797,0.06715323030948639
1,283239,6.198090553283691,-44.08092498779297,-38.7208137512207,-7.063683986663818
1,283240,24.41466522216797,1.8578904867172241,156.51852416992188,-15.754463195800781
1,283240,5.081488609313965,59.12895202636719,94.96270751953125,16.0146427154541
1,283240,14.42065715789795,16.430997848510742,-75.22186279296875,5.344831466674805
1,283240,-16.158395767211914,-28.522380828857422,-103.86976623535156,-17.579931259155273
1,283240,-34.54041290283203,-33.38603973388672,-89.76355743408203,13.659464836120605
1,283242,4.004536151885986,-5.715928077697754,-25.78261947631836,33.95986557006836
1,283244,19.41977310180664,-0.9219550490379333,32.043094635009766,11.239020347595215
1,283246,-5.355151176452637,9.024358749389648,22.826997756958008,-9.963478088378906
1,283248,-10.383198738098145,19.977264404296875,-113.44625854492188,-30.458208084106445
1,283250,-10.050581932067871,-29.379804611206055,-103.68128204345703,-21.908599853515625
1,283252,-12.35128402709961,-24.272798538208008,82.59062957763672,18.844907760620117
1,283254,0.4840925335884094,23.913759231567383,49.66372299194336,12.957810401916504
1,283256,9.318082809448242,0.7874895334243774,-28.330692291259766,1.0578314065933228
1,283258,9.089305877685547,-12.898497581481934,71.41609191894531,-0.08904669433832169
1,283260,38.22454833984375,48.63520812988281,185.83322143554688,-14.44261646270752
1,283262,14.897915840148926,16.644887924194336,27.285898208618164,-12.940978050231934
1,283287,-40.456600189208984,-28.4893856048584,-176.51576232910156,10.333372116088867
1,283287,-0.9812305569648743,18.396060943603516,-36.068824768066406,13.007146835327148
1,283287,29.31664276123047,-1.3221038579940796,131.39776611328125,-3.362941265106201
1,283288,0.6916341185569763,-0.6728255748748779,89.11255645751953,18.04943084716797
1,283288,3.7712836265563965,27.522750854492188,22.803813934326172,11.745467185974121
1,283288,14.457878112792969,12.384567260742188,-6.2286295890808105,-32.77076721191406
1,283288,-19.188661575317383,-21.927947998046875,-82.72814178466797,-6.8157172203063965
1,283288,-30.723604202270508,-49.39762878417969,-133.15365600585938,22.464832305908203
1,283288,-22.140308380126953,-13.016106605529785,-88.57038879394531,-13.844073295593262
1,283289,-6.456663131713867,-2.51228928565979,-41.422245025634766,-9.48160457611084
1,283289,10.30263900756836,-27.32697105407715,-23.422332763671875,-6.8878350257873535
1,283289,-17.207677841186523,-1.1750975847244263,26.617576599121094,-6.8170599937438965
1,283290,0.3283519744873047,14.342421531677246,21.487627029418945,21.034706115722656
1,283290,34.773921966552734,14.477213859558105,50.565162658691406,-5.478052139282227
1,283292,-9.497139930725098,12.946887969970703,111.55366516113281,-2.3309240341186523
1,283294,-19.362062454223633,-34.081443786621094,-43.293155670166016,30.279970169067383
1,283296,17.53658676147461,-8.756427764892578,-79.31153106689453,-12.249207496643066
1,283298,21.270952224731445,70.46665954589844,202.74038696289062,-12.92861557006836
1,283300,19.04336166381836,39.793087005615234,182.1302490234375,26.470134735107422
1,283303,0.7941237688064575,-20.327728271484375,-80.96588897705078,4.310842037200928
1,283304,-8.998342514038086,-8.542762756347656,-27.80080223083496,-21.878293991088867
1,283307,5.9679670333862305,19.43637466430664,4.3515143394470215,-25.326871871948242
1,283308,-4.614035129547119,-6.5314555168151855,-149.1478271484375,32.488216400146484
1,283311,-35.24943923950195,-31.21341896057129,-165.68373107910156,0.3266896605491638
1,283312,-26.33919906616211,-12.60951042175293,28.83854866027832,-46.02006149291992
1,283349,43.724754333496094,-27.89832878112793,173.1641082763672,107.30242919921875
1,283350,32.17262268066406,-22.452056884765625,-14.024784088134766,67.9739761352539
1,283350,-35.46906280517578,-2.3520267009735107,-181.43321228027344,-96.82415008544922
1,283350,-23.258956909179688,-17.341951370239258,-81.80612182617188,-42.95429229736328
1,283350,-6.406050682067871,3.4890830516815186,-2.609705686569214,12.338738441467285
1,283350,-5.214941501617432,14.072654724121094,25.79004669189453,3.4840359687805176
1,283350,17.051177978515625,5.684453964233398,78.68585205078125,-19.068588256835938
1,283351,25.827674865722656,23.73343849182129,97.29876708984375,-21.320568084716797
1,283351,2.659722328186035,27.97124671936035,75.65390014648438,2.8881771564483643
1,283351,-9.93254566192627,24.601987838745117,61.04514694213867,-0.6893106698989868
1,283351,-6.829097747802734,39.641300201416016,11.946066856384277,-25.770103454589844
1,283351,6.7506422996521,9.0403413772583,-61.03654479980469,-15.994816780090332
1,283351,2.042325496673584,-41.566654205322266,-73.34318542480469,22.500747680664062
1,283352,-15.91476058959961,-15.291337013244629,-48.56918716430664,4.810218334197998
1,283352,1.8640559911727905,19.11872100830078,-39.714412689208984,-2.817499876022339
1,283352,2.331996202468872,-21.615707397460938,-17.572505950927734,13.443916320800781
1,283352,-11.71674919128418,-27.43598175048828,64.9850845336914,19.965900421142578
1,283352,4.645379543304443,34.56526565551758,80.95333099365234,14.409024238586426
1,283352,23.747909545898438,34.26972198486328,26.371694564819336,-20.513599395751953
1,283354,15.484780311584473,-20.009939193725586,-28.34943962097168,-12.553544998168945
1,283354,18.960172653198242,-14.173480033874512,-26.91594696044922,15.579315185546875
1,283355,4.438333988189697,24.159526824951172,-6.934423446655273,-22.468687057495117
1,283358,9.229020118713379,13.744022369384766,123.91539764404297,-2.7993152141571045
1,283359,25.113557815551758,-28.66010284423828,181.31260681152344,50.63236999511719
1,283362,-58.769142150878906,-38.74180221557617,-44.96030807495117,10.149246215820312
1,283363,-38.13504409790039,4.433600902557373,-90.07461547851562,20.50362777709961
1,283366,66.05198669433594,30.426538467407227,28.31984519958496,55.29314041137695
1,283367,12.264028549194336,1.9413806200027466,-35.010345458984375,-35.63956832885742
1,283370,-62.88493347167969,-61.07711410522461,-289.3226623535156,-100.4551773071289
1,283371,-27.404495239257812,-20.45389747619629,-165.6289520263672,-14.936708450317383
1,283374,3.246256113052368,34.48368453979492,135.6256561279297,38.51919937133789
1,283375,-18.289138793945312,-2.4782278537750244,11.869361877441406,-2.1640665531158447
1,283378,-8.921751022338867,2.575049638748169,98.24529266357422,13.436315536499023
1,283379,47.468963623046875,28.329254150390625,204.02291870117188,17.12589454650879
1,283429,18.211612701416016,19.013992309570312,-212.85537719726562,-66.45726776123047
1,283429,-37.273231506347656,-26.977025985717773,-214.9897918701172,-28.07129669189453
1,283429,7.279430389404297,-21.343093872070312,188.72496032714844,51.249332427978516
1,283429,16.993139266967773,7.819839000701904,116.84959411621094,12.848402976989746
1,283429,-0.4311392903327942,28.208192825317383,18.103673934936523,2.995927095413208
1,283429,25.66341781616211,19.634496688842773,63.08796310424805,23.777902603149414
1,283430,0.3170561194419861,-18.57512664794922,-24.8648624420166,7.710696697235107
1,283430,-25.78785514831543,9.286020278930664,-59.83232498168945,-15.353708267211914
1,283430,11.301844596862793,-2.4940309524536133,-76.88027954101562,-6.613908290863037
1,283430,-3.9510631561279297,-46.807655334472656,-82.01371765136719,10.034963607788086
1,283430,-32.04651641845703,-12.211118698120117,-30.576120376586914,5.627196788787842
1,283430,0.16836580634117126,15.192378044128418,18.576082229614258,-6.620860576629639
1,283431,7.058534622192383,-3.611741781234741,56.50344467163086,-16.778194427490234
1,283431,12.718985557556152,3.690099000930786,83.76177215576172,2.5912930965423584
1,283431,23.65581512451172,17.172143936157227,72.03410339355469,22.07096290588379
1,283431,-12.403680801391602,-12.17312240600586,9.326537132263184,-0.8540709614753723
1,283431,-10.706997871398926,-1.7899125814437866,-20.215600967407227,-6.0533552169799805
1,283431,7.665632247924805,36.466094970703125,-18.927696228027344,6.5965142250061035
1,283432,3.3134844303131104,-1.8924009799957275,-28.54685401916504,-10.634230613708496
1,283432,5.126192092895508,-5.111874103546143,-64.99159240722656,-23.0242862701416
1,283432,-7.847142696380615,-10.037132263183594,-47.331573486328125,3.1699392795562744
1,283432,-12.60552978515625,-31.569211959838867,28.554548263549805,20.959104537963867
1,283432,14.02377986907959,29.530784606933594,48.318172454833984,3.2174246311187744
1,283433,16.154464721679688,5.2641282081604,39.890113830566406,-14.071253776550293
1,283434,5.212822914123535,-21.635766983032227,1.5756127834320068,-9.265238761901855
1,283434,14.279248237609863,30.225006103515625,-19.45491600036621,1.3320854902267456
1,283434,-13.003436088562012,3.22100830078125,-5.9673004150390625,9.62906551361084
1,283436,-29.623897552490234,-35.292659759521484,-16.734071731567383,24.87407112121582
1,283438,0.09702247381210327,-17.283695220947266,153.9783172607422,-17.331762313842773
1,283440,9.347882270812988,0.5251158475875854,195.05337524414062,-10.730387687683105
1,283442,-43.10232925415039,20.77243423461914,-68.54412078857422,97.30941009521484
1,283444,-6.114329814910889,32.27683639526367,-61.192989349365234,49.62593460083008
1,283446,72.3838119506836,-5.1163434982299805,-14.706618309020996,-71.90209197998047
1,283448,4.570260047912598,-7.823920726776123,-141.95021057128906,-52.92689895629883
1,283450,-29.454870223999023,9.33837890625,-172.87196350097656,-59.041542053222656
1,283452,-23.62676239013672,-9.641128540039062,-30.520183563232422,-51.68929672241211
1,283454,-11.526256561279297,34.02228927612305,45.89891815185547,34.93192672729492
1,283456,24.6381778717041,47.343990325927734,-42.11701965332031,21.948137283325195
1,283458,2.9299328327178955,-103.50381469726562,121.2646484375,5.732997417449951
1,283460,6.912944793701172,-96.13402557373047,176.34803771972656,40.83891677856445
1,283462,49.58491516113281,58.18327331542969,-41.16905975341797,56.0158576965332
1,283464,31.247943878173828,51.22766876220703,-25.460872650146484,7.362043380737305
1,283526,-56.14619445800781,75.07862854003906,66.4276123046875,-118.59280395507812
1,283526,-42.56509780883789,39.19297790527344,58.15837478637695,-63.26144790649414
1,283526,23.845869064331055,-76.17515563964844,19.978395462036133,97.17083740234375
1,283526,12.235703468322754,-23.577537536621094,-3.4958982467651367,59.79192352294922
1,283526,2.772704601287842,44.662017822265625,-41.78036880493164,-19.401573181152344
1,283526,-7.756504535675049,20.046295166015625,-112.04966735839844,-40.10062789916992
1,283527,-17.800426483154297,-25.14922523498535,-135.05906677246094,-32.323856353759766
1,283527,-21.5120792388916,-11.354970932006836,-112.22679138183594,-6.0400543212890625
1,283527,-11.406045913696289,-12.200079917907715,-65.81330108642578,-28.12796401977539
1,283527,24.017568588256836,-33.882415771484375,5.56702995300293,2.411710023880005
1,283527,2.045936346054077,-2.984395742416382,55.788578033447266,54.280025482177734
1,283528,-19.101158142089844,-12.863022804260254,71.73796081542969,31.331369400024414
1,283528,-3.059863805770874,-21.50556755065918,89.51127624511719,24.318988800048828
1,283528,2.0416336059570312,17.192115783691406,51.060333251953125,5.913051128387451
1,283528,25.493776321411133,26.169496536254883,1.210717797279358,-15.901061058044434
1,283528,23.372093200683594,-9.197958946228027,-21.966123580932617,2.671593427658081
1,283528,-15.933062553405762,-1.251697301864624,-37.4169921875,-0.39373359084129333
1,283529,-9.151126861572266,23.603694915771484,-39.79940414428711,-30.159626007080078
1,283529,18.161481857299805,8.023114204406738,-37.059017181396484,-18.27237319946289
1,283529,-10.364788055419922,-8.039472579956055,-5.644218444824219,8.489886283874512
1,283529,-4.794861793518066,-38.13138198852539,22.92526626586914,-0.7863227128982544
1,283529,13.385315895080566,-17.022817611694336,54.071388244628906,11.492409706115723
1,283529,-6.9425787925720215,10.629013061523438,52.631690979003906,30.766115188598633
1,283530,2.0596063137054443,1.4226694107055664,18.05620765686035,19.567411422729492
1,283530,6.9659271240234375,1.868485689163208,5.074149131774902,1.4413650035858154
1,283530,-2.38265323638916,-17.12640380859375,-22.813337326049805,-24.75111961364746
1,283530,-23.674184799194336,12.098870277404785,-49.650657653808594,-39.632293701171875
1,283530,-13.20886516571045,18.739103317260742,-36.7578010559082,-13.194690704345703
1,283531,0.8014475107192993,-23.494609832763672,-1.9051151275634766,5.499767303466797
1,283531,-15.131147384643555,-15.501094818115234,10.120704650878906,7.462141036987305
1,283531,1.894775152206421,7.846663475036621,20.122472763061523,12.606459617614746
1,283532,25.513084411621094,0.49804428219795227,53.2461051940918,10.282214164733887
1,283532,11.440853118896484,-5.593423366546631,28.959609985351562,5.492206573486328
1,283533,-22.386707305908203,25.09908676147461,-9.739653587341309,-1.5319963693618774
1,283534,-23.15416717529297,14.625313758850098,-27.531768798828125,15.077372550964355
1,283537,18.2878475189209,7.534005165100098,30.604284286499023,36.69902801513672
1,283538,80.48097229003906,30.339725494384766,169.27560424804688,3.4960825443267822
1,283541,23.127639770507812,30.31688117980957,140.84048461914062,-72.97730255126953
1,283542,-33.83622360229492,20.33436393737793,-41.715755462646484,-40.276283264160156
1,283545,-8.925515174865723,-4.343608856201172,-67.97569274902344,76.70928192138672
1,283546,-11.140704154968262,-12.09382152557373,-4.400082111358643,7.058347702026367
1,283549,1.9056963920593262,-23.051565170288086,-235.84194946289062,-72.48214721679688
1,283550,-40.44390869140625,-29.497648239135742,-258.64459228515625,7.167468547821045
1,283553,-20.372840881347656,-9.18140983581543,80.92607879638672,-2.920233726501465
1,283554,87.50466918945312,-100.1238784790039,24.518138885498047,-1.7611875534057617
1,283557,-44.95086669921875,-93.235595703125,-25.259397506713867,105.782958984375
1,283558,-135.74884033203125,85.72560119628906,175.8624267578125,30.828113555908203
1,283561,69.92768096923828,175.20443725585938,155.1678009033203,-103.65142822265625
1,283562,97.41294860839844,60.44353485107422,-6.82211446762085,-47.58797073364258
1,283563,7.6108222007751465,-93.71878814697266,-75.4457015991211,14.862900733947754
1,283637,-27.49989891052246,-34.38078308105469,-165.115966796875,3.7379534244537354
1,283637,-36.53178787231445,3.301466226577759,-106.58045959472656,10.64551830291748
1,283637,15.694572448730469,22.875240325927734,237.63327026367188,20.394258499145508
1,283637,23.941598892211914,24.0283203125,169.33436584472656,-9.45007610321045
1,283638,-0.5731220841407776,-11.75163459777832,-79.56388092041016,-12.014026641845703
1,283638,-5.494606018066406,14.115912437438965,-64.46273803710938,-4.831307411193848
1,283638,12.459734916687012,-23.969970703125,-70.64930725097656,-3.142613410949707
1,283638,-8.1892671585083,-48.717918395996094,-81.5605239868164,13.244203567504883
1,283638,-45.79376983642578,-8.249509811401367,-10.501733779907227,1.4946237802505493
1,283638,-13.069737434387207,-19.760726928710938,45.51719665527344,27.150474548339844
1,283639,20.937164306640625,-25.601058959960938,58.56876754760742,39.84183120727539
1,283639,-11.057295799255371,31.799287796020508,89.79942321777344,-24.315536499023438
1,283639,-1.4528348445892334,30.039186477661133,86.35496520996094,-33.161651611328125
1,283639,26.604629516601562,34.0684928894043,30.771099090576172,14.306451797485352
1,283639,-16.32622718811035,32.75412368774414,-53.74858856201172,13.043286323547363
1,283640,-12.976898193359375,-9.484906196594238,-77.19818878173828,-14.959733009338379
1,283640,35.481414794921875,-16.06939697265625,-66.30957794189453,-11.226354598999023
1,283640,1.515121579170227,-23.413528442382812,-50.55465316772461,18.398832321166992
1,283640,-18.715682983398438,-29.57312774658203,-5.110814571380615,-0.5351550579071045
1,283640,7.784440994262695,7.844050407409668,11.536844253540039,-6.396142482757568
1,283640,-2.9039883613586426,12.364970207214355,40.98245620727539,25.954627990722656
1,283641,-5.836212158203125,-24.034215927124023,48.650691986083984,-5.473086357116699
1,283641,22.19831085205078,-16.212722778320312,30.98297882080078,-12.49709701538086
1,283641,8.89243221282959,3.977346420288086,12.435369491577148,10.118301391601562
1,283641,5.377352237701416,11.1582670211792,-14.431827545166016,-9.341928482055664
1,283641,40.85686492919922,-5.377128601074219,-40.67130661010742,-16.08461570739746
1,283641,12.704476356506348,-6.662118911743164,-78.64371490478516,-6.122298717498779
1,283642,-24.980224609375,21.333707809448242,-30.775869369506836,11.8587646484375
1,283642,-7.009790420532227,17.092689514160156,9.908495903015137,11.011958122253418
1,283642,1.738206386566162,0.9188591241836548,11.040464401245117,3.9084277153015137
1,283642,-4.499937057495117,-0.5030921101570129,51.13351058959961,17.648527145385742
1,283642,4.95039701461792,25.23094940185547,49.88249969482422,-8.903058052062988
1,283642,9.787537574768066,29.249670028686523,27.58779525756836,-20.09677505493164
1,283643,-3.176952600479126,6.499924659729004,-0.7297032475471497,-10.502130508422852
1,283643,-15.701087951660156,-0.4595116376876831,-17.811429977416992,0.7240678668022156
1,283643,-11.660263061523438,-18.94536781311035,-13.11976146697998,10.808741569519043
1,283644,-34.43667984008789,-18.676782608032227,22.08940315246582,-41.16910934448242
1,283644,-32.903594970703125,-13.082798957824707,31.925554275512695,-28.397666931152344
1,283645,10.755945205688477,-6.184347152709961,-45.73249816894531,49.471378326416016
1,283645,8.403813362121582,13.504193305969238,-33.28598403930664,25.263076782226562
1,283646,-1.92662513256073,23.56822395324707,-16.284194946289062,-58.06525802612305
1,283647,-3.99058198928833,4.7825398445129395,-126.03457641601562,-28.333003997802734
1,283650,-13.681377410888672,-37.9566650390625,-202.31854248046875,12.584721565246582
1,283651,-17.952476501464844,-37.6068115234375,-56.786319732666016,-13.231019973754883
1,283654,-3.000476837158203,-9.358083724975586,78.27804565429688,18.73118782043457
1,283655,18.033493041992188,-6.419853687286377,10.751258850097656,3.7085461616516113
1,283658,25.976964950561523,10.678414344787598,197.37876892089844,25.047990798950195
1,283659,44.51719284057617,54.39899826049805,286.32403564453125,52.085899353027344
1,283662,30.039701461791992,17.273759841918945,-1.8792353868484497,-34.07373046875
1,283663,-18.285171508789062,-24.44036293029785,-47.110050201416016,-4.51839017868042
1,283666,-30.606721878051758,30.065168380737305,42.1612434387207,45.003883361816406
1,283667,2.908553123474121,-9.63237190246582,-73.48421478271484,-16.136451721191406
1,283670,3.838503122329712,-76.18926239013672,-179.9801788330078,21.68056869506836
1,283671,-11.994667053222656,7.673398494720459,-34.11587905883789,33.784332275390625
1,283674,-17.431671142578125,29.59769058227539,34.86497497558594,-83.4196548461914
1,283675,8.012726783752441,-15.517217636108398,-46.222415924072266,-57.8199462890625
1,283678,54.402442932128906,25.617097854614258,159.59249877929688,57.33681869506836
1,283762,0.3690561056137085,44.95845031738281,216.2301788330078,48.72785186767578
1,283763,-33.066192626953125,-13.709606170654297,-123.34143829345703,-48.33456802368164
1,283763,4.748424530029297,-30.114816665649414,-153.41082763671875,-21.549991607666016
1,283763,1.8927561044692993,-0.25245431065559387,72.78640747070312,44.575172424316406
1,283763,4.012871265411377,7.281036376953125,118.0625228881836,-0.4349054992198944
1,283763,18.011125564575195,44.794189453125,94.47115325927734,-9.530404090881348
1,283763,-8.143150329589844,29.49602508544922,50.26273727416992,16.5096492767334
1,283764,-5.294029712677002,-33.133296966552734,-52.611263275146484,-6.725467681884766
1,283764,-5.25727653503418,-5.419763565063477,-119.19905853271484,2.976306438446045
1,283764,-28.115930557250977,-6.931330680847168,-108.42610168457031,12.790536880493164
1,283764,-14.726442337036133,-51.77783203125,-106.16332244873047,-26.794466018676758
1,283764,-5.734309196472168,-14.950122833251953,-82.75416564941406,-7.344733238220215
1,283764,15.012676239013672,28.395904541015625,16.752628326416016,-1.26559317111969
1,283765,10.02632999420166,-3.4072108268737793,52.96663284301758,-1.9434877634048462
1,283765,-6.869360446929932,-33.32506561279297,57.25534439086914,30.42384147644043
1,283765,25.35053253173828,29.563688278198242,82.79995727539062,-16.625316619873047
1,283765,17.93290138244629,29.025468826293945,24.095674514770508,-13.837080955505371
1,283765,-16.979887008666992,-23.279462814331055,-27.658248901367188,18.38185691833496
1,283765,-18.185850143432617,2.8032124042510986,-59.39914321899414,-20.37051010131836
1,283766,-7.430953025817871,8.39083480834961,-91.90757751464844,-10.707353591918945
1,283766,-5.539142608642578,-14.299297332763672,-68.08857727050781,-1.4052486419677734
1,283766,-13.459747314453125,-25.51221466064453,-11.779335975646973,4.352719783782959
1,283766,6.26154088973999,3.383862257003784,22.861854553222656,16.23503303527832
1,283766,14.045791625976562,4.723244667053223,28.735506057739258,-2.214005947113037
1,283767,-10.62730598449707,-3.7756597995758057,51.75352096557617,-3.180673360824585
1,283767,5.4011383056640625,21.958444595336914,20.844343185424805,-15.375590324401855
1,283767,16.455974578857422,-10.756086349487305,-12.45762825012207,-2.832080841064453
1,283767,-25.87586212158203,-13.791728973388672,23.13187026977539,13.44088363647461
1,283767,-9.20462703704834,8.323446273803711,-1.2254947423934937,-5.879326343536377
1,283767,6.294661998748779,-16.698637008666992,-72.5583724975586,28.45857048034668
1,283768,-6.5269317626953125,-1.9119393825531006,-24.881811141967773,8.68404483795166
1,283768,29.535419464111328,14.5881929397583,32.36082458496094,-33.83338165283203
1,283768,-9.29570484161377,4.1069016456604,12.326931953430176,2.74877667427063
1,283768,-24.70406150817871,-21.667150497436523,33.39973831176758,9.970664978027344
1,283768,31.583538055419922,-1.8498048782348633,47.61149215698242,3.959455728530884
1,283768,18.815793991088867,58.3234977722168,38.7684440612793,7.235758304595947
1,283769,-2.0067877769470215,14.751335144042969,23.134567260742188,2.4439120292663574
1,283769,-3.5109896659851074,-13.594202041625977,-3.4043023586273193,-5.250790119171143
1,283769,-5.785619258880615,1.571302056312561,-15.358460426330566,-6.013624668121338
1,283769,0.6752440333366394,-24.852035522460938,-47.62483215332031,6.337258338928223
1,283769,-1.2276676893234253,-7.5041375160217285,-51.360877990722656,5.637941360473633
1,283770,-14.749944686889648,-0.254718154668808,2.4996352195739746,5.289542198181152
1,283771,-11.04077434539795,-21.445316314697266,-6.328821182250977,-15.748523712158203
1,283771,10.131963729858398,5.685044288635254,-21.29741096496582,-21.0469970703125
1,283771,-3.222040891647339,15.313139915466309,70.19378662109375,29.267230987548828
1,283771,-0.6637601256370544,11.430522918701172,57.9756965637207,5.6966938972473145
1,283773,33.059207916259766,15.79731559753418,-11.62236213684082,-29.450836181640625
1,283774,-16.737743377685547,-10.563923835754395,-48.87378692626953,-7.673511028289795
1,283775,-33.79398727416992,-11.358956336975098,-58.05431365966797,0.7228944301605225
1,283778,65.50592803955078,59.55514907836914,233.09600830078125,23.14301300048828
1,283779,53.92948532104492,48.73063659667969,276.9906311035156,-4.078176975250244
1,283782,-10.29849624633789,-44.94112777709961,-78.30582427978516,15.083876609802246
1,283783,2.289907217025757,6.154226779937744,-106.82433319091797,43.72121047973633
1,283786,-29.80475616455078,43.724609375,-17.160390853881836,-56.57247543334961
1,283787,-18.760705947875977,-58.70922088623047,-124.76619720458984,-26.847841262817383
1,283790,-21.74042510986328,-93.63249969482422,-285.18035888671875,52.48744583129883
1,283791,-58.89620590209961,-15.565390586853027,-127.4970932006836,-19.135995864868164
1,283794,8.826742172241211,10.398429870605469,101.07481384277344,-33.790863037109375
1,283795,30.126304626464844,-18.802026748657227,22.36661720275879,22.223674774169922
1,283798,6.030023097991943,48.00898742675781,176.69686889648438,8.814976692199707
1,283799,17.517702102661133,58.33647155761719,212.97117614746094,-22.315526962280273
1,283802,30.81961441040039,-1.2061153650283813,-63.789520263671875,-31.169090270996094
1,283803,-10.076028823852539,8.808067321777344,-31.423477172851562,15.9810791015625
1,283806,-92.36522674560547,-60.725990295410156,-0.06518527865409851,82.90518951416016
1,283902,9.554781913757324,3.975881338119507,-27.671382904052734,-16.12127685546875
1,283902,113.50708770751953,106.70511627197266,95.53949737548828,-78.92364501953125
1,283902,-7.994211673736572,-29.69293212890625,66.69046020507812,36.328372955322266
1,283902,-44.6550178527832,-36.12907791137695,-47.70281219482422,36.0504264831543
1,283903,-1.3680771589279175,24.036195755004883,-93.30984497070312,-20.785924911499023
1,283903,-1.8068230152130127,-30.717937469482422,-114.9173583984375,-5.34160041809082
1,283903,-13.930119514465332,-28.849754333496094,-89.43726348876953,-5.94102668762207
1,283903,-13.436060905456543,-8.302734375,-34.36603927612305,-3.4245433807373047
1,283903,14.791852951049805,-2.1337382793426514,28.025222778320312,0.1896911859512329
1,283903,19.42870330810547,14.255545616149902,68.84516906738281,-16.673913955688477
1,283904,8.01654052734375,-10.994812965393066,70.79022216796875,3.5673108100891113
1,283904,-12.405537605285645,12.540326118469238,83.6119384765625,29.89608383178711
1,283904,-4.216516494750977,46.171173095703125,57.524803161621094,13.250802993774414
1,283904,16.059904098510742,12.622445106506348,-26.934171676635742,-12.645880699157715
1,283904,4.953243255615234,-15.580020904541016,-63.17581558227539,-11.925515174865723
1,283904,-17.662052154541016,-37.398868560791016,-60.84124755859375,3.687626600265503
1,283905,-30.040714263916016,-20.34023094177246,-58.3047981262207,10.33561897277832
1,283905,-10.958494186401367,1.7558578252792358,-47.10072708129883,-0.7398883104324341
1,283905,16.478939056396484,-7.377275466918945,-6.723487377166748,-17.9876651763916
1,283905,4.083680152893066,5.693622589111328,39.56420135498047,-4.454458236694336
1,283905,18.472042083740234,13.779336929321289,44.97054672241211,3.9115161895751953
1,283905,18.616069793701172,-5.729282379150391,24.691129684448242,2.585054397583008
1,283906,-33.93771743774414,11.867879867553711,-5.49418306350708,9.769983291625977
1,283906,-1.632514476776123,23.82305335998535,-0.5285350680351257,-1.1728090047836304
1,283906,26.993276596069336,-19.841873168945312,-19.887432098388672,-20.626028060913086
1,283906,-9.562771797180176,-13.384954452514648,-53.98374557495117,6.312257766723633
1,283906,-9.439906120300293,14.605895042419434,-25.951465606689453,16.92658805847168
1,283907,3.2816832065582275,-9.740829467773438,-31.634929656982422,-22.224483489990234
1,283907,-5.741203308105469,-19.273462295532227,-19.36113166809082,-6.290465831756592
1,283907,-8.736310958862305,-3.588209629058838,41.05074691772461,19.90924072265625
1,283907,11.657617568969727,10.07802963256836,38.511390686035156,7.9631028175354
1,283907,10.749201774597168,32.67197036743164,7.778151512145996,1.7717255353927612
1,283907,-11.590490341186523,-1.9169284105300903,26.35311508178711,12.121686935424805
1,283908,-6.340810775756836,-31.601163864135742,29.650400161743164,10.987565994262695
1,283908,22.489030838012695,2.8817524909973145,-27.45914077758789,-25.475828170776367
1,283908,12.676074981689453,-21.242534637451172,-27.121971130371094,-11.969887733459473
1,283908,-19.407278060913086,9.602529525756836,4.912755012512207,16.023937225341797
1,283908,-21.189462661743164,43.617469787597656,-14.947687149047852,-13.204262733459473
1,283908,-16.460187911987305,-37.91585159301758,-7.876698017120361,-2.132680892944336
1,283909,19.144763946533203,-15.784809112548828,23.87409019470215,14.411031723022461
1,283909,27.007997512817383,26.619306564331055,28.678119659423828,-2.5394108295440674
1,283909,-17.246570587158203,-13.525799751281738,11.486209869384766,-16.804597854614258
1,283909,-4.874419212341309,4.304021835327148,-3.380387544631958,-2.2316300868988037
1,283909,3.059123992919922,14.030821800231934,1.8015936613082886,26.27367401123047
1,283909,-19.31215476989746,-12.57424545288086,-2.780677080154419,8.551457405090332
1,283910,11.300857543945312,13.846222877502441,-30.401405334472656,-26.117658615112305
1,283910,20.592266082763672,1.4526307582855225,-16.842445373535156,-9.779740333557129
1,283910,-22.82558250427246,-27.311931610107422,26.392040252685547,25.675167083740234
1,283911,-22.781639099121094,11.563508033752441,1.3842215538024902,-0.7116490602493286
1,283911,22.4963436126709,22.518526077270508,-6.109509468078613,-30.649303436279297
1,283912,25.699312210083008,-13.5413179397583,31.21709632873535,-15.428730964660645
1,283912,0.25040632486343384,-8.671871185302734,14.86499309539795,19.714290618896484
1,283912,-1.7752543687820435,29.7907772064209,6.903666019439697,16.58570671081543
1,283913,-9.651033401489258,-3.946887731552124,-34.952701568603516,-3.838146209716797
1,283916,-12.75795841217041,-31.194549560546875,-18.32180404663086,34.2711067199707
1,283917,8.812385559082031,19.725250244140625,168.53932189941406,14.992779731750488
1,283920,50.838497161865234,59.493778228759766,228.25160217285156,-43.08905029296875
1,283921,16.937131881713867,20.933425903320312,6.522217273712158,-12.391204833984375
1,283924,-21.272262573242188,-0.2776799201965332,-82.32840728759766,24.929298400878906
1,283925,12.457171440124512,14.7675199508667,-7.510050296783447,15.138022422790527
1,283928,-17.936954498291016,-39.6175651550293,-275.57794189453125,-27.703380584716797
1,283929,-35.8692741394043,-77.57878112792969,-306.5129699707031,-54.788536071777344
1,283932,-28.403465270996094,-39.059730529785156,96.86092376708984,31.930818557739258
1,283933,-89.21007537841797,9.672249794006348,46.405574798583984,54.54765701293945
1,283936,11.129108428955078,-53.01713180541992,-30.439302444458008,-6.242473125457764
1,283937,150.66305541992188,6.9807209968566895,190.6331024169922,-14.568428039550781
1,283940,24.393875122070312,178.93548583984375,160.83953857421875,-45.42461013793945
1,283941,-49.81684494018555,41.63032531738281,-25.487035751342773,-14.327335357666016
1,283944,7.825198173522949,-122.10096740722656,-38.86642837524414,33.3244743347168
1,283945,41.80263900756836,-39.27840042114258,52.99591827392578,66.65917205810547
1,283948,-54.547996520996094,12.163372039794922,-149.70352172851562,35.6213493347168
1,283950,-77.88566589355469,13.715672492980957,-197.7455596923828,-77.68020629882812
1,284057,75.35298156738281,6.3345866203308105,170.25653076171875,-37.1878662109375
1,284057,24.42555809020996,-16.810462951660156,171.79443359375,25.860824584960938
1,284057,-36.14181137084961,23.35863494873047,-102.90547180175781,-0.4783884882926941
1,284057,7.129726409912109,-9.436254501342773,-126.62079620361328,-14.962169647216797
1,284057,-17.847469329833984,-32.39183044433594,-70.6050033569336,-12.851774215698242
1,284057,-27.20193862915039,-14.515027046203613,-22.53984260559082,20.907583236694336
1,284058,-14.61898422241211,1.41019868850708,71.64250183105469,21.779491424560547
1,284058,15.214933395385742,34.98332595825195,88.4297866821289,-7.749993324279785
1,284058,39.3383674621582,27.86992835998535,95.53958892822266,-8.812525749206543
