Aktueller Finger,timestamp_ms,sensor_0,sensor_1,sensor_2,sensor_3
0,163966,20.402816772460938,-26.371267318725586,-72.32686614990234,77.76376342773438
0,163966,-22.197832107543945,-39.47663879394531,-55.13518524169922,77.54776000976562
0,163969,10.738144874572754,35.4599723815918,107.70826721191406,-308.3028869628906
0,163971,28.01774787902832,31.868850708007812,32.14639663696289,-170.44032287597656
0,163973,-17.218948364257812,-0.3992980420589447,-29.821928024291992,389.1425476074219
0,163975,-14.61945629119873,-31.433551788330078,-1.2430998086929321,84.32503509521484
0,163977,-16.348432540893555,-9.2142333984375,-18.091428756713867,-172.20484924316406
0,163979,-2.365037441253662,20.9471435546875,-6.730838775634766,-10.341630935668945
0,163981,14.936555862426758,0.389813095331192,-12.296052932739258,-26.48976707458496
0,163983,0.31310901045799255,-25.760435104370117,-19.977325439453125,7.1558942794799805
0,163985,8.296088218688965,-2.8633596897125244,28.366147994995117,29.295473098754883
0,163987,6.905797958374023,23.544754028320312,10.603944778442383,-1.7073911428451538
0,163989,-3.192288637161255,16.348840713500977,5.118790149688721,26.447439193725586
0,163991,-19.80211067199707,-2.5635581016540527,25.879592895507812,5.111349105834961
0,163993,-10.062857627868652,-17.443571090698242,-1.7454233169555664,31.14508056640625
0,163995,14.227581024169922,7.019863605499268,-24.465410232543945,45.90005111694336
0,163997,-7.973876953125,-20.55954933166504,-43.78602981567383,-189.3998260498047
0,163999,9.134445190429688,0.48035046458244324,12.224671363830566,-84.1640625
0,164001,38.576019287109375,58.99870300292969,82.9719467163086,231.03863525390625
0,164003,-10.61985969543457,-23.636056900024414,-3.301299571990967,19.4898738861084
0,164005,-29.71605682373047,-3.1026668548583984,-39.71389389038086,-64.4837875366211
0,164007,-3.224792718887329,20.90330696105957,1.8694019317626953,26.887561798095703
0,164009,6.28786039352417,-25.311222076416016,-19.24358558654785,-23.7285099029541
0,164011,17.034854888916016,-4.91085958480835,8.977688789367676,36.897003173828125
0,164013,-8.875083923339844,-45.377811431884766,-9.084566116333008,-12.669381141662598
0,164015,-44.15044021606445,-11.430012702941895,-43.047019958496094,-80.135498046875
0,164017,41.07039260864258,74.72798919677734,47.129337310791016,47.36872100830078
0,164019,48.18581771850586,-4.701082706451416,25.53923988342285,19.71449851989746
0,164021,-48.84517288208008,-38.02274703979492,-20.35490608215332,-70.5423355102539
0,164023,-12.956058502197266,19.247066497802734,20.949851989746094,39.150699615478516
0,164025,15.818723678588867,-17.43350601196289,0.9304375052452087,37.9112434387207
0,164027,-8.288365364074707,11.174674034118652,-23.975500106811523,-33.07880783081055
0,164029,-1.0661460161209106,39.270164489746094,-22.359350204467773,10.882659912109375
0,164031,18.946897506713867,-15.922279357910156,44.673492431640625,23.636030197143555
0,164033,-0.49245089292526245,17.14255142211914,37.66188049316406,-24.78493881225586
0,164035,-16.765987396240234,-10.19417667388916,-59.965118408203125,-20.27810287475586
0,164037,4.2245306968688965,-45.24380874633789,-21.887006759643555,26.75115966796875
0,164039,8.06505298614502,19.505901336669922,1.5731391906738281,9.891650199890137
0,164294,-25.410385131835938,7.023054122924805,-5.304133892059326,-27.499832153320312
0,164296,-22.19996452331543,-39.86420440673828,12.413568496704102,-2.5681586265563965
0,164298,23.436965942382812,3.1006100177764893,-18.084333419799805,-16.42754554748535
0,164300,11.806355476379395,36.33575439453125,18.714834213256836,-11.874011039733887
0,164970,13.206160545349121,-4.282496929168701,31.15431022644043,57.224910736083984
0,164971,12.205965042114258,6.154191017150879,3.2849278450012207,-7.013940334320068
0,164973,-11.874465942382812,8.707353591918945,3.444568634033203,-80.37989807128906
0,164975,-8.027097702026367,3.516231060028076,5.840994834899902,131.038330078125
0,164977,0.21426203846931458,2.3825201988220215,13.153145790100098,159.06427001953125
0,164979,17.61366844177246,-40.32618713378906,-41.72212600708008,-192.27296447753906
0,164981,-13.3516845703125,-11.635176658630371,-30.478473663330078,-161.7144317626953
0,164983,-18.90836524963379,33.4061164855957,7.439091682434082,89.69115447998047
0,164985,19.24488639831543,19.681354522705078,15.236771583557129,38.58424377441406
0,164987,-13.446389198303223,-4.146834373474121,47.91508865356445,-20.928653717041016
0,164989,1.0591093301773071,-7.410550594329834,-31.466447830200195,10.923799514770508
0,164991,4.169787883758545,2.2761518955230713,-42.97190475463867,22.99180793762207
0,164993,-1.9525701999664307,-16.535497665405273,29.900903701782227,3.6314282417297363
0,164995,42.95082473754883,-1.6622593402862549,12.237421989440918,-17.583833694458008
0,164997,-26.262483596801758,22.085956573486328,10.027658462524414,13.918091773986816
0,164999,-21.46661376953125,-6.505499839782715,-7.521410942077637,-16.480554580688477
0,165001,43.97035598754883,-1.8546768426895142,-34.59404754638672,-9.97901439666748
0,165003,-30.430484771728516,-28.71424674987793,21.976560592651367,52.42509078979492
0,165005,-43.52361297607422,-16.6153621673584,9.154199600219727,-31.245492935180664
0,165007,40.96751403808594,63.6913948059082,-13.74570369720459,-19.43425178527832
0,165009,47.079193115234375,5.269580841064453,33.54971694946289,58.51113510131836
0,165011,-40.91206359863281,-58.114013671875,-35.79353713989258,-21.62181854248047
0,165013,-52.36758804321289,-12.669535636901855,-46.55500793457031,-41.03168869018555
0,165015,13.443471908569336,34.755958557128906,42.229984283447266,20.950729370117188
0,165017,29.955087661743164,17.203542709350586,28.915199279785156,-77.52052307128906
0,165019,11.642096519470215,-20.516538619995117,-17.436779022216797,-10.108613967895508
0,165021,-15.2839994430542,0.3580407500267029,-7.724401950836182,164.35877990722656
0,165023,-8.831868171691895,12.537601470947266,12.531585693359375,-7.164644241333008
0,165025,28.38368034362793,1.4998632669448853,13.804570198059082,-50.91057205200195
0,165027,19.23444366455078,8.160956382751465,3.9357025623321533,28.562070846557617
0,165029,-37.58264923095703,-24.659318923950195,-32.428993225097656,-26.2054386138916
0,165031,-12.557503700256348,-4.244466781616211,0.3504854738712311,-54.93524932861328
0,165033,41.27557373046875,42.21795654296875,34.746253967285156,-49.225685119628906
0,165035,-24.838151931762695,-20.355968475341797,-1.2600504159927368,61.55536651611328
0,165037,-17.9691219329834,-12.943219184875488,15.1906156539917,83.59555053710938
0,165039,16.856821060180664,15.579269409179688,-7.138804912567139,-44.57020950317383
0,165041,-25.205060958862305,-0.5367228984832764,-42.227996826171875,-6.121853828430176
0,165043,15.309550285339355,-15.633560180664062,-6.82164192199707,-2.3566348552703857
0,165045,20.496055603027344,-8.934473991394043,-3.2106003761291504,-47.9750862121582
0,165047,-17.431015014648438,18.839122772216797,2.248647689819336,49.70103073120117
0,165049,15.172284126281738,4.498946666717529,36.209564208984375,24.579566955566406
0,165051,15.05667781829834,-14.03282356262207,-18.26438331604004,-64.5241470336914
0,165053,0.24648097157478333,9.024821281433105,-28.722209930419922,14.450175285339355
0,165055,-0.3206772208213806,7.844676971435547,9.682927131652832,31.931360244750977
0,165057,-33.11622619628906,-32.997982025146484,-0.940595269203186,-33.630672454833984
0,165059,-2.071589946746826,20.6044864654541,22.066204071044922,26.3053035736084
0,165061,6.824024677276611,19.2962703704834,7.2852463722229,16.89919662475586
0,165063,-14.37774658203125,-30.19137191772461,3.5969057083129883,-55.754600524902344
0,165065,33.87582778930664,15.482029914855957,19.044696807861328,-15.446937561035156
0,165067,-0.8866392970085144,-10.876736640930176,-9.721303939819336,92.5143051147461
0,165069,-28.54013442993164,-30.502103805541992,-36.61027145385742,5.050079822540283
0,165071,18.442184448242188,35.304542541503906,-14.594740867614746,-111.06979370117188
0,165072,-16.549468994140625,-8.417984962463379,7.85566520690918,21.09524917602539
0,165075,-19.182588577270508,2.6054232120513916,43.24397659301758,92.6509780883789
0,165076,42.31830978393555,71.42217254638672,33.541988372802734,29.90448760986328
0,165079,46.038875579833984,-3.266119956970215,-42.322349548339844,-72.99101257324219
0,165080,-31.15399169921875,-71.06304931640625,-6.022574424743652,-78.40625762939453
0,165083,-56.534393310546875,-14.514326095581055,21.80600357055664,19.6270751953125
0,165084,15.144229888916016,22.96300506591797,-34.706974029541016,57.94269561767578
0,165087,25.228124618530273,0.3537035584449768,-18.937097549438477,31.363719940185547
0,165088,-20.771373748779297,12.762276649475098,9.969736099243164,-39.16563415527344
0,165091,-4.113736629486084,-14.213622093200684,4.247251033782959,-46.51512145996094
0,165092,38.89590072631836,-6.89853572845459,28.959760665893555,50.044273376464844
0,165095,7.378236770629883,13.192275047302246,-6.598654270172119,27.222980499267578
0,165096,-33.36073684692383,-22.481842041015625,-45.60032653808594,-88.85929870605469
0,165099,-15.50694465637207,-9.188228607177734,4.421528339385986,28.58391571044922
0,165100,31.60297203063965,13.24998950958252,46.546627044677734,111.61524963378906
0,165103,-0.1519758403301239,26.951875686645508,3.0251214504241943,-34.88822937011719
0,165104,-34.35831832885742,6.416021347045898,-51.21076583862305,-87.1734848022461
0,165107,16.588138580322266,-8.343281745910645,33.846580505371094,-27.284677505493164
0,165108,16.78639793395996,13.36101245880127,52.43586730957031,41.22538757324219
0,165111,-22.00483512878418,-13.148175239562988,-54.66386032104492,52.8665771484375
0,165112,-15.48453140258789,-23.77595329284668,-26.40605926513672,-36.21574783325195
0,165115,23.17372703552246,13.319164276123047,26.171037673950195,-25.468719482421875
0,165116,21.924896240234375,25.20508575439453,5.7149248123168945,55.480098724365234
0,165119,-29.341245651245117,-25.17474365234375,-15.763726234436035,13.493672370910645
0,165120,-5.882434844970703,-13.256265640258789,-17.81350326538086,-40.3438606262207
0,165123,34.513023376464844,18.06602668762207,27.216014862060547,-23.728914260864258
0,165124,-34.41242218017578,-53.589786529541016,15.211113929748535,-8.930922508239746
0,165127,-5.174766540527344,13.536703109741211,-19.07236671447754,15.835487365722656
0,165128,80.33284759521484,113.1678237915039,13.197625160217285,64.88885498046875
0,165131,-18.522193908691406,-26.476078033447266,-10.178102493286133,23.142871856689453
0,165132,-82.49623107910156,-94.029052734375,-24.569475173950195,-56.13290786743164
0,165135,26.99683380126953,20.349609375,40.75702667236328,-64.0332260131836
0,165136,46.40058517456055,10.423826217651367,15.009430885314941,50.65809631347656
0,165139,-30.17477798461914,-1.2129617929458618,-26.646238327026367,54.23836898803711
0,165140,-1.385759949684143,52.403045654296875,5.608400344848633,-84.73286437988281
0,165143,40.7152214050293,10.51375961303711,-4.999375343322754,34.499908447265625
0,165144,-7.809340953826904,-10.179604530334473,4.5053300857543945,117.46420288085938
0,165147,-43.78725814819336,-45.438453674316406,1.563218355178833,-93.48625946044922
0,165148,0.9679054617881775,-21.789655685424805,4.893660545349121,-171.8266143798828
0,165151,15.803706169128418,42.50917434692383,24.831069946289062,12.722902297973633
0,165152,-22.262235641479492,-6.022797584533691,-45.66718292236328,109.73917388916016
0,165155,-10.73151683807373,-15.516643524169922,-29.369779586791992,42.50050354003906
0,165156,17.248010635375977,-31.089351654052734,22.488407135009766,-86.01422119140625
0,165159,-0.6387918591499329,-6.86436128616333,30.090412139892578,148.45736694335938
0,165160,-2.80444073677063,41.855987548828125,9.478998184204102,325.0433654785156
0,165163,11.634781837463379,11.271366119384766,-37.79259490966797,-296.2828369140625
0,165164,1.032400369644165,2.542562484741211,-8.949597358703613,-470.18292236328125
0,165167,-22.099660873413086,-30.504823684692383,-8.544232368469238,29.314130783081055
0,165168,5.855921268463135,2.9364449977874756,8.7901029586792,283.00439453125
0,165171,39.077125549316406,48.64702606201172,47.35161590576172,244.73837280273438
0,165172,-0.6776056885719299,-20.067493438720703,-8.874626159667969,-152.98240661621094
0,165175,-13.14111042022705,-14.241985321044922,-9.225533485412598,-286.27532958984375
0,165176,18.44359588623047,47.04433059692383,21.637859344482422,256.31048583984375
0,165179,4.711684226989746,-29.10762596130371,-16.71213722229004,667.6224365234375
0,165180,-29.49177360534668,-60.14002227783203,-46.26311111450195,-177.5208282470703
0,165183,-24.970258712768555,10.92251968383789,-44.522090911865234,-1029.74658203125
0,165185,2.070889711380005,25.450942993164062,50.696468353271484,3.2023022174835205
0,165188,45.06917190551758,14.615431785583496,82.58985137939453,676.025634765625
0,165188,1.0124744176864624,-15.04192066192627,-24.742748260498047,22.90064239501953
0,165191,-42.30741882324219,24.2310733795166,-40.67165756225586,-14.573062896728516
0,165192,20.149375915527344,29.798362731933594,-1.8118380308151245,87.74280548095703
0,165195,26.514423370361328,-33.729740142822266,6.5554022789001465,-427.570068359375
0,165196,-33.194583892822266,-28.647518157958984,7.827902317047119,-260.48699951171875
0,165199,-23.218210220336914,11.324758529663086,6.4915571212768555,461.2574462890625
0,165200,38.902732849121094,33.16276168823242,0.020673386752605438,59.655799865722656
0,165203,2.3176348209381104,-15.124058723449707,-20.385196685791016,-457.5747985839844
0,165204,-22.763641357421875,-29.825294494628906,1.2702275514602661,94.59052276611328
0,165207,3.365696907043457,37.89695358276367,28.705020904541016,234.7279510498047
0,165208,25.84507179260254,19.946748733520508,3.34670090675354,125.78125
0,165211,-7.6516242027282715,-68.99618530273438,-21.266569137573242,465.98675537109375
0,165212,-69.17249298095703,-57.05216598510742,-35.30553436279297,-209.04934692382812
0,165215,22.822322845458984,68.71290588378906,20.048900604248047,-650.9022827148438
0,165216,56.8602180480957,62.8410530090332,37.115726470947266,180.07730102539062
0,165219,-3.4479362964630127,-21.260677337646484,-31.221206665039062,258.25396728515625
0,165220,5.9799017906188965,-5.493701934814453,-1.266132116317749,61.75265121459961
0,165223,-4.653515815734863,-24.233694076538086,10.165152549743652,7.739241600036621
0,165224,-41.96495056152344,-27.6116886138916,-19.64151954650879,-224.1904754638672
0,165227,-17.55302619934082,49.45157241821289,24.963430404663086,-96.45125579833984
0,165228,17.08232879638672,45.436973571777344,34.82603073120117,35.959659576416016
0,165231,12.680529594421387,-39.38050079345703,-21.021793365478516,204.89801025390625
0,165232,7.352329254150391,-39.915889739990234,-54.90284729003906,-123.47579956054688
0,165235,-10.029987335205078,0.8254626393318176,-11.568768501281738,-314.8125915527344
0,165236,-33.78238296508789,-27.23568344116211,46.74125289916992,155.92723083496094
0,165239,35.185054779052734,31.39585304260254,32.7850227355957,52.986454010009766
0,165240,95.33332824707031,87.97319030761719,-3.592393636703491,-89.16789245605469
0,165243,0.5010688304901123,-63.871829986572266,-21.046899795532227,440.30499267578125
0,165244,-80.50214385986328,-74.11966705322266,-5.113922595977783,464.5343933105469
0,165247,-56.697296142578125,50.97529602050781,8.831931114196777,-693.140380859375
0,165248,44.59508514404297,52.43042755126953,-2.1793065071105957,-363.95294189453125
0,165251,70.8125228881836,-1.823377013206482,-9.649340629577637,742.3190307617188
0,165252,-41.9476203918457,-44.37104415893555,-20.506786346435547,175.1675567626953
0,165255,-54.42705154418945,-23.510089874267578,-7.903419494628906,-592.1602172851562
0,165256,19.119274139404297,18.4492244720459,34.47469711303711,-882.1788940429688
0,165259,-14.025923728942871,-14.842592239379883,8.642775535583496,228.8359375
0,165260,-26.781221389770508,-15.51070499420166,-23.283538818359375,854.0205078125
0,165263,50.149383544921875,46.87272262573242,7.629659175872803,-24.171249389648438
0,165264,47.623046875,26.4706974029541,-22.130430221557617,210.42396545410156
0,165267,-51.03295135498047,-24.63089370727539,1.0526609420776367,120.29811096191406
0,165268,-25.158422470092773,-21.273366928100586,49.26980209350586,-589.9649047851562
0,165271,67.55857849121094,25.819841384887695,-21.570337295532227,-549.2305297851562
0,165272,15.469645500183105,45.40033721923828,-5.580379962921143,-74.75010681152344
0,165275,-16.19746208190918,10.786306381225586,40.00164794921875,1102.1617431640625
0,165276,-22.410690307617188,-47.31484603881836,-26.214380264282227,1223.9766845703125
0,165279,-14.344595909118652,-36.92621612548828,-41.24097442626953,-767.216796875
0,165280,21.28292465209961,-15.483562469482422,9.894418716430664,-1586.970703125
0,165283,-58.186336517333984,-33.05634307861328,23.894207000732422,-366.8641052246094
0,165284,-61.45534133911133,9.728772163391113,5.9557719230651855,673.604736328125
0,165287,82.22118377685547,69.59805297851562,1.1603387594223022,492.98687744140625
0,165288,61.62572479248047,12.554731369018555,-35.25885009765625,-15.515275001525879
0,165291,2.009770154953003,-71.34973907470703,14.218133926391602,94.06477355957031
0,165292,32.049354553222656,-3.2618465423583984,62.066410064697266,-156.54673767089844
0,165295,-19.643718719482422,93.04666137695312,-20.503597259521484,55.694854736328125
0,165296,-53.42387008666992,51.382484436035156,-28.99142837524414,633.507080078125
0,165299,-46.34857940673828,-58.05376052856445,-21.72663116455078,-323.2073974609375
0,165300,-15.211761474609375,-70.12973022460938,-29.271318435668945,-701.5266723632812
0,165303,16.596054077148438,-14.69837474822998,8.141565322875977,57.73889923095703
0,165304,49.209110260009766,70.0647201538086,94.10519409179688,318.07080078125
0,165307,30.5174503326416,49.893348693847656,18.70213508605957,353.936279296875
0,165308,-39.31037902832031,-40.299503326416016,-104.90052795410156,92.36221313476562
0,165311,-20.206623077392578,-38.891876220703125,-0.47664719820022583,-557.0857543945312
0,165313,12.059922218322754,-44.10894012451172,27.16450309753418,-551.1939697265625
0,165315,8.932802200317383,10.955370903015137,-10.818239212036133,509.68707275390625
0,165317,-66.25968170166016,-27.866296768188477,-8.908406257629395,316.36785888671875
0,165320,-13.538119316101074,10.870606422424316,31.966909408569336,-28.473379135131836
0,165321,118.1668701171875,148.82115173339844,39.37863540649414,202.91607666015625
0,165322,15.929736137390137,-43.77931594848633,-67.6141357421875,-365.9319763183594
0,165325,-51.36503982543945,-81.84148406982422,-40.29234313964844,-343.6755676269531
0,165326,37.930904388427734,67.20094299316406,61.46250915527344,-73.45177459716797
0,165329,9.73057746887207,-27.465055465698242,10.392022132873535,740.9384155273438
0,165330,-93.70645904541016,-80.57362365722656,-46.02267837524414,611.0113525390625
0,165333,-8.467405319213867,60.050018310546875,19.80193519592285,-1043.1951904296875
0,165334,77.5033187866211,94.0096664428711,33.92742919921875,-451.919189453125
0,165337,12.95497989654541,-37.456756591796875,-0.05653732642531395,661.4090576171875
0,165338,-40.88899612426758,-49.86101150512695,-16.574365615844727,-71.5824966430664
0,165341,29.976842880249023,22.764265060424805,2.8094069957733154,-36.99929428100586
0,165342,43.283363342285156,3.307115316390991,22.65473747253418,513.3549194335938
0,165345,-132.10775756835938,-84.633544921875,-47.050445556640625,-432.9901123046875
0,165346,-53.11287307739258,-29.859289169311523,-14.999069213867188,-659.110107421875
0,165349,96.07581329345703,34.04976272583008,51.31373977661133,345.0611267089844
0,165350,16.848726272583008,17.959875106811523,-3.971214771270752,366.4819030761719
0,165353,15.689048767089844,94.34741973876953,-9.151744842529297,-187.47970581054688
0,165354,32.59654998779297,18.15008544921875,18.721637725830078,230.2531280517578
0,165357,-44.5729866027832,-119.33316040039062,-69.67581939697266,649.530029296875
0,165358,-59.47915267944336,-29.380727767944336,-32.7185173034668,-714.7169799804688
0,165361,35.806365966796875,115.92683410644531,118.91109466552734,-858.6800537109375
0,165362,66.6551284790039,54.61601638793945,32.53671646118164,667.0457153320312
0,165365,-3.6852614879608154,-36.226871490478516,-47.585472106933594,602.0772094726562
0,165366,-40.00242233276367,-43.89350128173828,-18.596742630004883,-210.9925994873047
0,165369,-3.9702847003936768,-21.683103561401367,-5.913278102874756,-161.014892578125
0,165370,17.359224319458008,0.7484114170074463,-30.25261878967285,-299.5832824707031
0,165373,-30.925983428955078,-29.819171905517578,-16.467525482177734,-527.5737915039062
0,165374,-28.411243438720703,15.914948463439941,62.782997131347656,408.4985046386719
0,165377,28.385717391967773,56.225341796875,15.194124221801758,443.75738525390625
0,165378,46.36732482910156,27.820404052734375,-27.37510108947754,-280.38970947265625
0,165381,26.608489990234375,-37.628414154052734,-11.937317848205566,332.1529541015625
0,165382,-60.126441955566406,-107.49810791015625,-53.99446105957031,1019.3172607421875
0,165385,-74.85460662841797,-20.23096466064453,-25.033376693725586,-464.0985412597656
0,165386,33.769554138183594,85.51226806640625,89.81690979003906,-1529.2469482421875
0,165389,74.70711517333984,78.90128326416016,67.88219451904297,278.5238952636719
0,165390,38.11627197265625,30.62999153137207,-34.59921646118164,953.0685424804688
0,165393,-70.8307876586914,-77.21123504638672,-49.693641662597656,-331.12286376953125
0,165394,-57.37474060058594,-81.92131042480469,10.271910667419434,-414.14208984375
0,165397,72.11627197265625,39.18769836425781,31.677587509155273,28.132761001586914
0,165398,44.12888717651367,105.88414001464844,15.682873725891113,-222.30764770507812
0,165401,-48.180973052978516,-33.14380645751953,-41.09540939331055,325.9826965332031
0,165402,-3.197061777114868,-61.858882904052734,-24.113996505737305,382.1065368652344
0,165405,10.471736907958984,37.54855728149414,20.052125930786133,-239.7793426513672
0,165406,-72.58283233642578,-63.12166213989258,-25.142702102661133,-215.4478302001953
0,165409,28.99091911315918,5.0204644203186035,28.345149993896484,225.81044006347656
0,165410,82.55300903320312,101.08575439453125,11.710262298583984,347.0567626953125
0,165413,-34.99908447265625,-53.42857360839844,-47.40824890136719,59.64927673339844
0,165414,-69.68199920654297,-110.11907196044922,-21.51459503173828,-24.956510543823242
0,165417,1.230519413948059,34.781070709228516,34.78927230834961,-392.2803955078125
0,165418,47.947486877441406,82.11035919189453,75.55638122558594,340.35992431640625
0,165421,6.479883193969727,-23.776084899902344,-16.27663230895996,138.4486541748047
0,165422,3.8655543327331543,-6.662686347961426,-51.8375358581543,-1033.85595703125
0,165425,48.290306091308594,55.797340393066406,23.89712905883789,-23.19734764099121
0,165426,-18.078916549682617,7.677089214324951,27.030710220336914,537.582763671875
0,165429,-30.648006439208984,-9.788448333740234,-6.837399482727051,218.17910766601562
0,165430,30.322805404663086,4.91890811920166,-10.963919639587402,120.79154968261719
0,165433,-27.459693908691406,-32.44642639160156,-19.145620346069336,-19.958023071289062
0,165434,-28.628215789794922,-37.243568420410156,-11.30699348449707,-484.0532531738281
0,165437,-46.256404876708984,-54.404476165771484,-23.336416244506836,-892.9011840820312
0,165438,-17.3200626373291,9.697854042053223,-3.474330186843872,167.6440887451172
0,165441,119.8855209350586,140.1235809326172,40.922393798828125,1158.611328125
0,165442,37.4210205078125,9.342621803283691,-11.163146018981934,1023.431884765625
0,165445,-90.79389953613281,-124.08841705322266,-22.35279655456543,-389.2996520996094
0,165446,-87.41970825195312,-27.130416870117188,-27.029361724853516,-1158.9881591796875
0,165449,66.25589752197266,100.01351928710938,62.31963348388672,182.5987091064453
0,165450,138.67922973632812,76.20562744140625,91.31246185302734,109.85592651367188
0,165453,-53.77198028564453,-81.27315521240234,-84.5916976928711,-139.0982666015625
0,165454,-100.57217407226562,-103.2065658569336,-86.04753875732422,703.5911254882812
0,165457,8.165125846862793,33.49528884887695,33.7219352722168,-356.82769775390625
0,165459,49.407562255859375,85.775390625,71.16216278076172,-695.5453491210938
0,165461,29.475309371948242,43.87808609008789,37.682674407958984,290.2784729003906
0,165463,36.955142974853516,8.513550758361816,-8.494510650634766,187.78768920898438
0,165467,-40.73838424682617,-84.73834228515625,-78.18067932128906,75.32341766357422
0,165467,-123.5166015625,-75.53266143798828,-83.81246185302734,61.10176467895508
0,165468,57.602088928222656,48.90029525756836,74.58711242675781,-11.814973831176758
0,165471,66.82677459716797,38.25362777709961,73.10433959960938,-68.0497055053711
0,165472,-75.8939437866211,-13.278308868408203,-56.91179275512695,145.7675323486328
0,165475,22.88020133972168,12.168524742126465,-16.084651947021484,-89.27986145019531
0,165476,27.522153854370117,-51.90141677856445,-1.8483974933624268,-339.63214111328125
0,165479,-35.883827209472656,-77.4605484008789,7.2874860763549805,304.7676696777344
0,165480,35.5941162109375,94.04528045654297,64.49903106689453,73.26002502441406
0,165483,62.60020065307617,104.64949798583984,21.8109188079834,-308.81719970703125
0,165484,0.9807998538017273,-25.563180923461914,-25.279191970825195,40.469242095947266
0,165487,-83.70620727539062,-62.28706741333008,-21.67041015625,289.1095886230469
0,165488,-48.479148864746094,-35.54411315917969,-16.466238021850586,-143.6342010498047
0,165491,18.640949249267578,12.308216094970703,-33.84785079956055,-294.1661376953125
0,165492,49.082942962646484,19.454225540161133,29.825347900390625,489.3169250488281
0,165495,66.97599029541016,42.37306594848633,45.1751823425293,180.96981811523438
0,165496,-5.994747161865234,32.31075668334961,-50.2593994140625,-541.0136108398438
0,165499,-74.81808471679688,-61.83415985107422,-21.58657455444336,193.0821533203125
0,165500,-48.28331756591797,-65.42890167236328,-0.8068975210189819,708.2190551757812
0,165503,0.9364328384399414,12.3695068359375,10.41162109375,-452.8468322753906
0,165504,22.632598876953125,38.9542350769043,20.920124053955078,-837.4450073242188
0,165507,36.942832946777344,23.550838470458984,7.276583194732666,360.42950439453125
0,165508,-7.759355068206787,-10.664579391479492,-13.16165828704834,174.77931213378906
0,165511,-31.23526382446289,-24.686464309692383,-48.44639587402344,-255.05572509765625
0,165512,46.27751159667969,25.057464599609375,39.5420036315918,248.0885772705078
0,165515,27.034822463989258,39.172733306884766,79.19538116455078,145.59739685058594
0,165516,-53.07841110229492,-36.80985641479492,-23.963218688964844,-121.55839538574219
0,165519,-4.815611362457275,-23.379365921020508,-89.97966003417969,-74.3902587890625
0,165520,26.466154098510742,40.919189453125,2.5303547382354736,91.18810272216797
0,165523,15.480154037475586,-6.4786057472229,77.49974060058594,-41.45142364501953
0,165524,-6.920456886291504,-32.98182678222656,-2.3075673580169678,-35.1397705078125
0,165527,-22.52371597290039,-10.955928802490234,-25.44339942932129,198.86068725585938
0,165528,0.5951322317123413,-2.6591689586639404,6.698960304260254,-22.613065719604492
0,165531,-4.803064823150635,8.115311622619629,-14.079642295837402,-64.42083740234375
0,165532,22.948867797851562,-3.818300485610962,-10.571918487548828,70.47936248779297
0,165535,27.922996520996094,14.978450775146484,24.577199935913086,-66.21580505371094
0,165536,-34.413352966308594,21.625696182250977,10.548375129699707,-97.16400146484375
0,165539,-20.699748992919922,25.658863067626953,-2.842510938644409,-59.65738296508789
0,165540,29.988391876220703,-1.0330857038497925,-13.491109848022461,25.032957077026367
0,165543,-27.66823959350586,-87.05912017822266,-56.47037124633789,111.2214584350586
0,165544,-40.551918029785156,-2.3975892066955566,-10.255782127380371,51.7428092956543
0,165547,24.43729019165039,52.80710220336914,27.29861831665039,-56.92531967163086
0,165548,22.67679786682129,0.927758514881134,6.246163368225098,-108.01410675048828
0,165551,27.138404846191406,6.638405799865723,41.4683952331543,46.400718688964844
0,165552,1.963765025138855,-15.539512634277344,18.619457244873047,172.75025939941406
0,165555,-31.87343978881836,17.44851303100586,-9.564701080322266,-14.761906623840332
0,165556,26.41830062866211,18.09838104248047,-7.247270584106445,-143.76025390625
0,165559,25.90304183959961,-32.70497131347656,-29.551002502441406,-84.3048324584961
0,165560,-38.15122985839844,9.262727737426758,11.776230812072754,-37.2454948425293
0,165563,-32.43367385864258,14.798922538757324,31.7447452545166,151.01571655273438
0,165564,-6.748472690582275,-44.899898529052734,-3.9409408569335938,96.31002044677734
0,165567,27.08456039428711,-21.583234786987305,-21.103744506835938,-51.77067947387695
0,165568,19.40789222717285,46.67983627319336,1.1691728830337524,21.80919647216797
0,165571,-17.577247619628906,31.574628829956055,4.195435523986816,-88.74411010742188
0,165572,-11.956023216247559,-15.955140113830566,-22.152273178100586,-98.68414306640625
0,165575,-32.12663269042969,-13.374408721923828,-9.725571632385254,92.9532241821289
0,165576,-2.6920270919799805,2.8081963062286377,14.289278984069824,147.66851806640625
0,165579,57.446807861328125,3.7983016967773438,30.47032356262207,-36.95380401611328
0,165580,20.410598754882812,-1.6240912675857544,-22.711414337158203,-65.19127655029297
0,165583,-35.80543899536133,4.040433406829834,-16.229185104370117,-32.761043548583984
0,165584,2.364306688308716,-10.05495834350586,4.210904598236084,-83.46074676513672
0,165587,53.84281921386719,-52.55094909667969,-48.15461730957031,93.56925964355469
0,165589,21.07920265197754,-10.591211318969727,45.42980194091797,68.51000213623047
0,165591,-42.58113479614258,60.11823272705078,57.1518669128418,-45.7393913269043
0,165593,-41.19367218017578,35.61628723144531,-28.607519149780273,15.259430885314941
0,165595,25.40435791015625,-5.281001567840576,-2.975131034851074,-25.57891273498535
0,165597,-2.076852321624756,-22.298627853393555,7.211794853210449,-28.4737548828125
0,165599,-29.077709197998047,-21.690767288208008,-7.377848148345947,-35.802711486816406
0,165601,25.676406860351562,9.975939750671387,-19.685365676879883,15.154275894165039
0,165603,3.141146421432495,10.544392585754395,2.079709053039551,124.29456329345703
0,165605,-8.571066856384277,-7.547022819519043,26.950868606567383,19.913667678833008
0,165607,6.185763835906982,1.1279224157333374,-27.079904556274414,-93.83061981201172
0,165609,-21.450796127319336,29.657255172729492,-16.93537139892578,-85.87870025634766
0,165611,-8.382606506347656,5.5910773277282715,23.882232666015625,18.564088821411133
0,165613,23.80145835876465,-32.47674560546875,2.4165947437286377,55.224945068359375
0,165615,-3.9315991401672363,-20.6649169921875,-2.6526777744293213,-15.235581398010254
0,165617,0.8999592661857605,7.561649322509766,24.09572982788086,32.02601623535156
0,165619,15.388463020324707,26.979570388793945,8.660163879394531,24.42348289489746
0,165621,-32.953956604003906,-14.572062492370605,-30.565906524658203,40.95984649658203
0,165624,27.798091888427734,-13.500833511352539,11.524500846862793,-23.854019165039062
0,165627,27.553056716918945,28.577091217041016,-12.23080062866211,-157.25962829589844
0,165627,-50.34245681762695,1.6709259748458862,-50.02278518676758,45.91427993774414
0,165628,-5.6522417068481445,-16.518924713134766,48.45880889892578,73.04642486572266
0,165631,25.837646484375,-15.536050796508789,34.1660041809082,-72.09221649169922
0,165632,5.997085094451904,-0.6774749159812927,-35.38889694213867,16.405935287475586
0,165635,-53.3037223815918,-14.69284725189209,-69.0945816040039,83.6872787475586
0,165636,15.702553749084473,-11.906577110290527,-28.956579208374023,-30.907434463500977
0,165639,75.04595947265625,52.42734909057617,124.79239654541016,-59.42229461669922
0,165640,-43.63113021850586,7.7265849113464355,29.62379264831543,24.828554153442383
0,165643,-18.157878875732422,-6.842602252960205,-56.878456115722656,30.3159236907959
0,165644,34.07867431640625,12.02222728729248,50.103660583496094,60.207008361816406
0,165647,-11.641156196594238,-23.11834144592285,-1.7557677030563354,24.066041946411133
0,165648,-1.1116222143173218,-21.642475128173828,-45.862403869628906,-27.619281768798828
0,165651,22.0665283203125,25.838090896606445,25.58848762512207,-39.0150032043457
0,165652,-16.674551010131836,23.807697296142578,1.8341574668884277,-80.69499969482422
0,165655,-46.654884338378906,-42.95294952392578,-62.133975982666016,-31.763120651245117
0,165656,10.02884292602539,-8.91978645324707,-22.68174171447754,45.52050018310547
0,165659,29.666854858398438,14.490578651428223,29.652851104736328,48.75802993774414
0,165660,-1.9646321535110474,-10.431512832641602,27.856252670288086,7.707553386688232
0,165663,6.562594413757324,15.142096519470215,20.094778060913086,-19.008947372436523
0,165664,-10.571691513061523,17.597972869873047,-9.721364974975586,-16.354019165039062
0,165667,-3.24839448928833,-6.0323166847229,-14.042628288269043,18.254108428955078
0,165668,29.595359802246094,-16.8772029876709,21.3093204498291,33.37865447998047
0,165671,-21.254549026489258,-8.611700057983398,-18.90891456604004,-3.177687406539917
0,165672,-31.463151931762695,16.336488723754883,-36.1030387878418,-21.078298568725586
0,165675,17.80160903930664,11.740560531616211,27.325101852416992,-6.00786018371582
0,165676,9.956038475036621,-1.8819589614868164,7.552378177642822,10.238884925842285
0,165679,10.988572120666504,26.924654006958008,19.501083374023438,-1.4339836835861206
0,165680,23.591615676879883,-16.005067825317383,24.189172744750977,-15.63825798034668
0,165683,-44.795780181884766,-78.06021118164062,-63.61213302612305,-12.96666431427002
0,165684,-36.48783493041992,33.617469787597656,-11.294504165649414,-19.3211669921875
0,165687,34.91655349731445,62.83534622192383,66.07022094726562,42.25198745727539
0,165688,23.97348403930664,-9.60964298248291,28.3330135345459,62.05656051635742
0,165691,10.38250732421875,-11.996336936950684,-53.90507125854492,-12.880387306213379
0,165692,-35.178077697753906,-49.549156188964844,-67.98490142822266,-12.666847229003906
0,165695,-12.419820785522461,1.7470444440841675,-4.4407639503479,-124.15676879882812
0,165696,32.07678985595703,43.174781799316406,29.604598999023438,-104.90827941894531
0,165699,3.199638605117798,-6.6143951416015625,82.17733764648438,198.3539581298828
0,165700,1.3921089172363281,9.472833633422852,17.761384963989258,103.1682357788086
0,165703,1.2747504711151123,10.9635648727417,-56.750938415527344,-83.0343017578125
0,165704,19.93952751159668,-10.661766052246094,-5.297759532928467,12.801108360290527
0,165707,-21.722806930541992,-28.13929557800293,-17.746103286743164,-41.61894607543945
0,165708,-36.561866760253906,-28.268482208251953,-6.877305030822754,-35.31326675415039
0,165711,15.413595199584961,5.856574058532715,-26.410781860351562,30.1900691986084
0,165712,7.216229438781738,26.607685089111328,-18.673124313354492,-6.88362979888916
0,165715,-3.5115599632263184,22.599992752075195,95.94032287597656,-29.022817611694336
0,165716,-31.573253631591797,-8.344131469726562,27.93263816833496,-38.67768478393555
0,165719,16.11031150817871,7.41516637802124,-32.05757141113281,79.260498046875
0,165720,65.05756378173828,23.50638198852539,2.8808066844940186,86.97840118408203
0,165723,-35.689476013183594,-42.98524475097656,-42.11624526977539,-48.39365768432617
0,165724,-33.543521881103516,-5.936037063598633,1.541921615600586,-56.067543029785156
0,165727,28.78803062438965,30.331851959228516,4.087238788604736,-6.700726509094238
0,165728,8.87130355834961,-30.816452026367188,-12.094071388244629,-56.77857971191406
0,165731,-3.5682358741760254,18.78989028930664,47.85678482055664,16.08736801147461
0,165732,-4.834559917449951,18.71053123474121,-0.7342513799667358,171.9624786376953
0,165735,4.505776882171631,-21.293066024780273,-23.996503829956055,-2.1679861545562744
0,165736,-4.025097846984863,-6.3996453285217285,17.692533493041992,-77.43988037109375
0,165739,-27.07509422302246,-33.53351593017578,-26.5669002532959,4.738590717315674
0,165740,19.001163482666016,2.4626758098602295,-52.74656677246094,-27.47306251525879
0,165743,17.431337356567383,27.47757339477539,45.72783279418945,-36.623355865478516
0,165744,-31.72829246520996,18.825658798217773,29.406288146972656,-33.06589126586914
0,165747,12.291421890258789,4.936212062835693,-25.830425262451172,24.15571403503418
0,165748,13.55898666381836,-35.53681564331055,22.716062545776367,77.2055892944336
0,165751,12.024755477905273,24.067707061767578,5.435708045959473,-7.563268661499023
0,165752,18.798437118530273,39.91010665893555,19.947673797607422,-51.892433166503906
0,165755,-19.685466766357422,-21.8460636138916,15.57003116607666,41.36350631713867
0,165756,-33.82257843017578,-34.258583068847656,-59.52937316894531,18.364301681518555
0,165759,4.626363754272461,10.783326148986816,-26.312135696411133,-23.736053466796875
0,165760,17.423107147216797,12.902201652526855,49.7943000793457,47.30970001220703
0,165763,-31.939023971557617,-28.934795379638672,-26.056854248046875,-87.42403411865234
0,165764,19.073139190673828,32.73483657836914,-18.84215545654297,-87.00853729248047
0,165767,-17.131505966186523,-20.14240074157715,43.3718376159668,159.06419372558594
0,165768,-45.29167175292969,-54.5167121887207,-69.64788055419922,-85.14195251464844
0,165771,85.7113037109375,71.39383697509766,0.5580003261566162,-78.09883880615234
0,165772,18.912160873413086,20.45343780517578,91.35266876220703,199.9428253173828
0,165775,-67.46484375,-49.94451904296875,6.917746543884277,-89.1375961303711
0,165776,0.9128347039222717,3.764045000076294,-32.67154312133789,-108.7607192993164
0,165779,46.603145599365234,14.69985580444336,-6.777879238128662,157.39979553222656
0,165780,18.011585235595703,1.21657133102417,-1.0808746814727783,48.508419036865234
0,165783,-50.68180465698242,-21.26111602783203,-47.975894927978516,-99.8752212524414
0,165785,10.603629112243652,-7.171964168548584,1.4839229583740234,-24.54418182373047
0,165787,31.9412784576416,15.43154525756836,69.70654296875,64.97189331054688
0,165789,-22.546899795532227,41.75196838378906,57.038551330566406,44.31306457519531
0,165791,4.8101348876953125,25.93366050720215,-21.15416717529297,-149.78111267089844
0,165793,-4.27104377746582,-55.69124221801758,-68.1476821899414,-35.27892303466797
0,165795,14.308577537536621,-14.151925086975098,-23.115459442138672,266.6549072265625
0,165797,12.442536354064941,8.737707138061523,30.41156005859375,-9.042784690856934
0,165801,-38.640377044677734,-14.395817756652832,-16.19473648071289,-263.1384582519531
0,165801,-27.862289428710938,18.106168746948242,-25.2740478515625,-38.13646697998047
0,165802,26.835176467895508,-3.662837266921997,-11.619754791259766,204.04296875
0,165805,16.516315460205078,-16.394643783569336,-31.186613082885742,54.70460510253906
0,165806,-10.075190544128418,30.24541664123535,68.33779907226562,-168.63441467285156
0,165809,-2.6957435607910156,5.07016658782959,50.365760803222656,-3.2292304039001465
0,165810,-11.284003257751465,-9.651114463806152,-17.018339157104492,37.02050018310547
0,165813,31.08125877380371,-3.1069107055664062,-16.41360092163086,47.40380859375
0,165814,20.431550979614258,-11.534353256225586,6.4718170166015625,155.6180877685547
0,165817,-34.604026794433594,22.865373611450195,19.504566192626953,-124.95857238769531
0,165818,-31.209131240844727,-9.661152839660645,-30.897916793823242,-178.2189483642578
0,165821,40.05592727661133,14.897953987121582,8.916439056396484,77.2870101928711
0,165822,41.97465133666992,2.244159698486328,15.890260696411133,78.63670349121094
0,165825,-54.92784881591797,-59.414215087890625,-12.295989036560059,-12.09634780883789
0,165826,-15.256067276000977,18.08530044555664,27.213611602783203,-17.15654182434082
0,165829,32.06893539428711,34.00626754760742,-14.970949172973633,105.29751586914062
0,165830,8.51050853729248,5.09650182723999,-31.39959144592285,28.439992904663086
0,165833,-8.546042442321777,-29.386972427368164,-2.667896270751953,-153.5216827392578
0,165834,-54.28078079223633,-27.640642166137695,-22.92644691467285,-51.86629867553711
0,165837,-0.01817101612687111,26.76772689819336,-9.870831489562988,21.90687370300293
0,165838,28.06756591796875,-8.920609474182129,5.429600715637207,-4.910271167755127
0,165841,5.264384746551514,5.362736701965332,35.50739288330078,32.116268157958984
0,165842,23.78475570678711,53.269840240478516,52.177818298339844,37.1373176574707
0,165845,-39.60087966918945,-15.937763214111328,-0.9179284572601318,-18.197776794433594
0,165846,-24.009218215942383,-41.50299835205078,-27.46932029724121,8.23351764678955
0,165849,43.87217712402344,2.7363550662994385,-59.33897399902344,67.78117370605469
0,165850,8.406442642211914,-9.425396919250488,-62.18444061279297,-85.84734344482422
0,165853,-54.97077178955078,-28.191701889038086,41.69136428833008,-154.85934448242188
0,165854,59.41118240356445,59.84870529174805,114.657470703125,105.81495666503906
0,165857,100.04920196533203,63.215057373046875,5.688296794891357,157.5419464111328
0,165858,-102.10551452636719,-37.57588577270508,-54.30922317504883,-28.536346435546875
0,165861,-52.33674240112305,-12.631370544433594,18.176206588745117,-45.89126205444336
0,165862,72.67213439941406,-23.230777740478516,-34.55181884765625,11.426193237304688
0,165865,-2.3372204303741455,-31.827287673950195,-38.93226623535156,28.367555618286133
0,165866,-35.651248931884766,19.99429702758789,61.50104904174805,-103.73097229003906
0,165869,9.89203929901123,16.808406829833984,12.335840225219727,-91.44551849365234
0,165870,11.151691436767578,-9.273351669311523,-59.458717346191406,142.54962158203125
0,165873,-29.535850524902344,-3.2197446823120117,25.048484802246094,71.53462982177734
0,165874,22.14481544494629,41.93341064453125,43.850807189941406,-45.29563903808594
0,165877,43.57050323486328,-11.017439842224121,-33.76704025268555,-15.112936973571777
0,165878,-61.68704605102539,-64.86488342285156,-29.287506103515625,-8.06292724609375
0,165881,-48.45834732055664,11.348764419555664,0.6232621073722839,-45.37161636352539
0,165882,53.551368713378906,35.71064376831055,33.91607666015625,-14.881625175476074
0,165885,42.37329864501953,17.746803283691406,34.10720443725586,86.54027557373047
0,165886,-11.665207862854004,22.8560848236084,3.631772756576538,15.160835266113281
0,165889,-17.50784683227539,-19.820335388183594,-12.823652267456055,-52.92930221557617
0,165890,-23.25959587097168,-36.86738204956055,-50.94502258300781,-15.114302635192871
0,165893,7.936889171600342,6.806772708892822,-12.225010871887207,77.4942626953125
0,165894,58.22336959838867,33.41025161743164,59.60886764526367,-52.664894104003906
0,165897,-14.709162712097168,-11.221922874450684,5.057329177856445,-109.305908203125
0,165898,-69.77326965332031,-55.270816802978516,-68.56388092041016,132.1671600341797
0,165901,1.4958395957946777,10.356197357177734,-13.18299674987793,-11.400273323059082
0,165902,59.588356018066406,51.077613830566406,59.76681137084961,-71.15928649902344
0,165905,12.678155899047852,6.052489280700684,-21.68758773803711,62.126583099365234
0,165906,-24.02007293701172,-26.755168914794922,-48.06560134887695,-14.802273750305176
0,165909,-0.648077130317688,-21.73676300048828,56.527645111083984,3.5414185523986816
0,165910,-14.862358093261719,26.866008758544922,42.2646369934082,26.14272117614746
0,165913,-7.656222820281982,8.202516555786133,-39.96943283081055,4.917185306549072
0,165914,-0.8298021554946899,-14.117756843566895,14.315116882324219,11.117877960205078
0,165917,-16.063066482543945,4.184650421142578,24.37082862854004,-17.330530166625977
0,165918,2.1369433403015137,-19.123018264770508,-61.47160720825195,-10.779210090637207
0,165921,28.163267135620117,-5.884676456451416,7.759808540344238,-17.422733306884766
0,165922,9.308090209960938,5.560422420501709,24.87656593322754,-14.283212661743164
0,165925,-21.316526412963867,9.256062507629395,-13.379145622253418,0.16413208842277527
0,165926,-5.822442531585693,10.04638385772705,9.214547157287598,-10.658846855163574
0,165929,15.386587142944336,29.816987991333008,-8.844083786010742,25.38854217529297
0,165930,23.072824478149414,10.338371276855469,22.813720703125,8.494735717773438
0,165933,5.261234760284424,-57.10748291015625,23.0412654876709,14.722002029418945
0,165934,-22.621999740600586,8.914243698120117,-41.371864318847656,-7.577775955200195
0,165937,-18.991817474365234,26.500293731689453,-34.74235153198242,-28.293243408203125
0,165938,2.3728318214416504,-17.623872756958008,10.961420059204102,103.15657043457031
0,165941,25.135740280151367,9.317656517028809,18.30231285095215,15.919007301330566
0,165942,1.2888740301132202,6.610868453979492,35.27944564819336,-311.0853576660156
0,165945,-13.085687637329102,-11.123162269592285,20.714584350585938,12.930842399597168
0,165946,22.092748641967773,-13.50306510925293,-57.11519241333008,326.5018005371094
0,165949,-23.946561813354492,-4.7097086906433105,-41.5150146484375,-56.905311584472656
0,165950,-28.857986450195312,-20.193750381469727,5.027714729309082,-53.66881561279297
0,165953,14.781522750854492,-17.728275299072266,38.02832794189453,32.18727493286133
0,165955,-17.737472534179688,29.655282974243164,34.06328201293945,-42.357147216796875
0,165957,19.150693893432617,25.73396873474121,-26.460458755493164,11.710711479187012
0,165959,37.939998626708984,-7.427112102508545,-18.2279052734375,-44.12312698364258
0,165961,1.8612079620361328,4.485777378082275,39.820648193359375,-26.49542236328125
0,165963,1.0696600675582886,8.438971519470215,-4.305111408233643,70.44627380371094
0,165965,-20.626928329467773,-19.001384735107422,-53.26601028442383,9.908551216125488
0,165967,-27.66115951538086,-16.171016693115234,41.395816802978516,-41.75310134887695
0,165969,-8.038376808166504,12.105100631713867,39.73381423950195,36.85736846923828
0,165971,9.76738452911377,10.8786039352417,-38.50413513183594,15.042485237121582
0,165973,5.9218974113464355,0.9134501814842224,-27.69707679748535,-60.872501373291016
0,165975,36.58437728881836,5.2456135749816895,6.493526458740234,-36.066158294677734
0,165977,26.75592041015625,-2.394022226333618,-18.686595916748047,24.352508544921875
0,165979,-58.103885650634766,0.590861439704895,-22.020931243896484,21.675615310668945
0,165981,-32.55293655395508,-13.843069076538086,23.998802185058594,4.7306904792785645
0,165983,49.46946334838867,6.7876715660095215,31.288103103637695,33.49544143676758
0,165986,2.2752273082733154,-0.6847275495529175,-1.7128826379776,-13.861588478088379
0,165989,-27.012176513671875,-11.734003067016602,3.1046528816223145,-23.812856674194336
0,165989,41.45137405395508,37.80429458618164,22.787851333618164,42.00862503051758
0,165991,-7.817628860473633,-29.960044860839844,-58.785648345947266,-131.49270629882812
0,165993,-42.56385803222656,-15.709057807922363,7.139219760894775,-90.0703125
0,165995,26.188093185424805,47.82720184326172,91.80836486816406,229.86766052246094
0,165997,-5.658548831939697,-51.74367904663086,-43.83184051513672,64.21918487548828
0,165999,-1.8129794597625732,8.34627628326416,-3.141618013381958,-98.77971649169922
0,166001,27.07743263244629,70.62657928466797,13.747209548950195,14.446043968200684
0,166003,-37.39399719238281,-45.904022216796875,-88.46061706542969,-10.765510559082031
0,166005,-2.067972183227539,-36.50468826293945,16.107601165771484,-4.782503128051758
0,166007,31.817481994628906,26.20176124572754,41.825950622558594,60.97237014770508
0,166009,1.3223729133605957,17.605607986450195,-14.337323188781738,21.175613403320312
0,166011,-13.520459175109863,-38.86776351928711,0.5727049112319946,-68.94998168945312
0,166013,-27.353925704956055,-34.17825698852539,-13.541581153869629,-4.546050548553467
0,166015,1.5611708164215088,44.09660720825195,-25.93812370300293,-10.987858772277832
0,166017,27.11798667907715,39.56452178955078,21.301664352416992,-89.28312683105469
0,166019,24.160497665405273,-28.515562057495117,58.58407974243164,63.609615325927734
0,166021,-16.208667755126953,-7.603489875793457,14.114694595336914,82.9266357421875
0,166023,-38.23719024658203,30.326431274414062,-41.17197799682617,-52.895267486572266
0,166025,8.280166625976562,13.13652229309082,10.378623008728027,-14.19558334350586
0,166027,30.287729263305664,-3.714775562286377,12.462715148925781,-3.823431968688965
0,166029,0.06415355205535889,-14.49931526184082,-32.170162200927734,-17.825382232666016
0,166031,-15.047233581542969,-7.121692657470703,30.83897590637207,-3.74216628074646
0,166033,18.000185012817383,-9.746650695800781,11.950267791748047,28.232683181762695
0,166035,-1.1451053619384766,-8.622246742248535,-59.69258117675781,41.23073196411133
0,166037,-24.470800399780273,-2.988961696624756,-16.749916076660156,-7.482070446014404
0,166039,12.421976089477539,-16.26264190673828,30.963212966918945,-28.896068572998047
0,166041,-27.08621597290039,10.697786331176758,-14.969340324401855,-68.46726989746094
0,166043,-18.386341094970703,29.094316482543945,-4.991577625274658,24.253704071044922
0,166045,51.253662109375,0.9704636931419373,44.72335433959961,92.04566192626953
0,166047,9.20643138885498,-20.702972412109375,4.676083087921143,-30.57245635986328
0,166049,-22.345855712890625,-17.872854232788086,-32.35744857788086,-51.63951873779297
0,166051,5.002160549163818,55.75667953491211,23.567232131958008,47.58358383178711
0,166053,17.458606719970703,24.975553512573242,16.130496978759766,27.676212310791016
0,166055,-4.510199069976807,-50.39013671875,-37.775386810302734,-39.7301025390625
0,166057,1.890399694442749,18.838821411132812,8.531285285949707,10.757155418395996
0,166059,3.680850028991699,-2.7180464267730713,41.51140213012695,-42.40587615966797
0,166061,-13.008642196655273,-56.00752258300781,-23.1317081451416,-19.549964904785156
0,166063,-10.600846290588379,10.30632495880127,-43.57843017578125,92.2302017211914
0,166065,18.4647159576416,21.616697311401367,27.187986373901367,-0.6615899205207825
0,166067,5.686347484588623,-19.522655487060547,-13.882476806640625,-41.7122688293457
0,166069,-37.25813293457031,6.273806571960449,-9.182984352111816,-9.096004486083984
0,166071,-2.1301560401916504,32.68684768676758,21.623153686523438,-30.545856475830078
0,166073,12.336509704589844,-6.405086517333984,-44.4574089050293,-27.69548988342285
0,166075,5.71513032913208,-35.44076156616211,4.484460353851318,62.08953094482422
0,166077,6.560391426086426,10.904574394226074,59.35128402709961,64.64608764648438
0,166079,-13.676714897155762,41.172142028808594,6.6959662437438965,-74.26749420166016
0,166081,-13.876819610595703,-15.308259010314941,-23.04156494140625,-48.08647537231445
0,166083,40.29854202270508,-3.0897295475006104,-2.694284439086914,106.87332153320312
0,166085,18.20882225036621,28.965190887451172,-2.8787424564361572,33.90465545654297
0,166087,-33.584014892578125,-2.684063196182251,0.27363359928131104,-53.39577102661133
0,166089,-22.8789119720459,-9.498390197753906,20.170866012573242,51.95213317871094
0,166091,14.294692993164062,-19.522056579589844,6.47086238861084,-85.68974304199219
0,166093,24.877058029174805,-37.58000183105469,-42.01761245727539,-123.7469482421875
0,166095,-20.41603660583496,-12.733439445495605,-12.017333984375,129.6405029296875
0,166097,8.422821998596191,43.14584732055664,54.603118896484375,33.53119659423828
0,166099,31.586631774902344,42.82249069213867,20.920475006103516,-34.666324615478516
0,166101,-15.536698341369629,-13.664632797241211,-29.480823516845703,56.73511505126953
0,166103,-41.9638671875,-28.878503799438477,-27.583232879638672,-36.06257247924805
0,166105,-6.798684597015381,-15.106986999511719,-1.6246066093444824,-24.625316619873047
0,166107,30.502538681030273,-11.694097518920898,5.42164945602417,-1.851799726486206
0,166109,-9.202912330627441,6.557224750518799,-8.954279899597168,-33.78105545043945
0,166111,-20.493446350097656,18.804759979248047,5.32358455657959,30.66075325012207
0,166113,46.18404006958008,12.518484115600586,24.449501037597656,58.93232345581055
0,166115,0.2024143785238266,0.3511660397052765,12.54631233215332,-19.430442810058594
0,166117,-54.92361831665039,-12.083547592163086,-26.18290138244629,-65.21455383300781
0,166119,14.270429611206055,-11.012289047241211,-1.6378848552703857,36.92610549926758
0,166121,21.021202087402344,2.155796766281128,25.280529022216797,40.98311996459961
0,166123,-8.098390579223633,2.915935516357422,-34.39143371582031,-45.517513275146484
0,166125,16.68161392211914,21.888410568237305,-30.485939025878906,-19.904693603515625
0,166127,15.27738094329834,18.34601593017578,12.73045825958252,-50.34027862548828
0,166129,-27.919797897338867,-38.0495491027832,8.315865516662598,16.157350540161133
0,166131,1.228461742401123,-6.244565963745117,28.801977157592773,123.00106048583984
0,166133,47.95778274536133,54.71472930908203,37.24217224121094,7.867496967315674
0,166135,-34.694091796875,-5.876530647277832,-41.300498962402344,-55.38170623779297
0,166137,-48.3404655456543,-33.493080139160156,-20.46351432800293,-32.62870788574219
0,166140,51.67800521850586,-4.6359100341796875,19.233036041259766,25.2395076751709
0,166141,12.647735595703125,1.0856882333755493,-12.972222328186035,20.969039916992188
0,166142,-21.28460693359375,42.28447723388672,44.6600341796875,-38.42597198486328
0,166145,-3.891813278198242,-24.50518035888672,4.296097278594971,13.59953498840332
0,166146,-12.863519668579102,-61.47761535644531,-44.16978073120117,34.22410583496094
0,166149,11.858027458190918,35.3137092590332,3.727581739425659,-16.394332885742188
0,166150,11.166214942932129,22.06082534790039,-4.171137809753418,-31.987350463867188
0,166153,-28.63679313659668,-25.46626853942871,5.559221267700195,16.424633026123047
0,166154,-29.121171951293945,-30.940805435180664,-8.350113868713379,-5.795767784118652
0,166157,48.513465881347656,21.93670654296875,3.898209571838379,-17.977092742919922
0,166158,41.62805938720703,28.511093139648438,11.39737319946289,14.585683822631836
0,166161,-64.04946899414062,-46.940162658691406,-26.838687896728516,4.890157699584961
0,166162,-29.74265480041504,-0.08604442328214645,-5.778020858764648,11.73812484741211
0,166165,56.0412483215332,35.58029556274414,-7.319569110870361,-30.31557273864746
0,166166,7.0684309005737305,5.178536415100098,5.130302429199219,-20.501842498779297
0,166169,-10.8206787109375,20.483592987060547,54.24987030029297,27.519878387451172
0,166170,26.88287925720215,-4.341046333312988,14.061469078063965,24.686649322509766
0,166173,-12.507988929748535,-21.199813842773438,-67.93311309814453,-21.5528564453125
0,166174,-24.733306884765625,22.38786506652832,-4.960783004760742,-13.436982154846191
0,166177,23.04693603515625,21.201763153076172,46.297828674316406,40.08516311645508
0,166178,-2.1076815128326416,-4.700491905212402,-14.901103019714355,-39.299346923828125
0,166181,-26.527095794677734,-15.96112060546875,-2.8106558322906494,-16.811431884765625
0,166182,10.064350128173828,-17.34120750427246,26.34555435180664,65.88848876953125
0,166185,52.33297348022461,35.06333541870117,27.352397918701172,22.973365783691406
0,166186,0.9559555053710938,6.114943027496338,-23.21491813659668,-25.251726150512695
1,166189,-106.88105773925781,-74.88742065429688,-62.27406311035156,-4.368399143218994
1,166191,1.1851356029510498,15.197783470153809,29.489248275756836,-4.6734089851379395
1,166193,44.50492858886719,13.662654876708984,25.944351196289062,-111.96617126464844
1,166195,-5.851095676422119,-23.645557403564453,-36.240478515625,50.54228973388672
1,166197,66.17835235595703,48.85624313354492,-34.01608657836914,160.9839630126953
1,166199,-33.05860900878906,-31.521953582763672,-24.10954475402832,-122.25255584716797
1,166201,-54.65485763549805,-43.33542251586914,56.72596740722656,-58.002159118652344
1,166203,29.846389770507812,24.12089729309082,37.7083625793457,118.4382095336914
1,166205,-34.75735092163086,-12.354106903076172,-30.94559669494629,-111.28036499023438
1,166207,18.062427520751953,29.69576644897461,19.04082489013672,-56.590694427490234
1,166209,102.34559631347656,75.68207550048828,19.906557083129883,179.38308715820312
1,166211,-11.64658260345459,6.273513317108154,-6.974881649017334,5.432953834533691
1,166213,-89.85076904296875,-46.289615631103516,14.250184059143066,-57.93982696533203
1,166215,6.695202350616455,-33.56654357910156,-16.30207061767578,10.557048797607422
1,166217,47.63959884643555,14.226886749267578,-22.86181640625,-43.89168167114258
1,166219,-18.37954330444336,0.5671912431716919,25.47725486755371,-31.650497436523438
1,166221,-31.600828170776367,-11.357261657714844,-7.5267791748046875,-5.148972511291504
1,166223,13.575159072875977,24.884408950805664,-23.85009002685547,44.8877067565918
1,166225,12.399144172668457,-1.9315308332443237,-9.803620338439941,54.98324203491211
1,166227,7.501652240753174,-16.802818298339844,0.8655126690864563,-10.823089599609375
1,166229,-4.1364426612854,-17.60108757019043,19.640758514404297,-24.472829818725586
1,166231,-32.94798278808594,-20.7786808013916,-50.684104919433594,-31.45464324951172
1,166233,21.190122604370117,26.062509536743164,18.35365867614746,-1.8380802869796753
1,166235,21.922805786132812,34.78123092651367,91.9948959350586,50.53358840942383
1,166237,-37.57127380371094,-35.697715759277344,-26.202171325683594,-8.121734619140625
1,166239,-14.309494018554688,-1.2363002300262451,-19.838645935058594,-8.857939720153809
1,166241,35.324241638183594,38.53421401977539,-13.977624893188477,33.04117965698242
1,166243,2.7723217010498047,-39.04149627685547,-77.9552230834961,-28.756784439086914
1,166245,-18.174856185913086,-14.57808780670166,52.192440032958984,-54.086246490478516
1,166247,3.655243396759033,31.153818130493164,86.55508422851562,-9.840031623840332
1,166249,8.741440773010254,10.243958473205566,-44.14691162109375,18.10730743408203
1,166251,34.242515563964844,0.411131352186203,-21.766883850097656,-5.998913764953613
1,166253,-20.507116317749023,-1.607534646987915,-10.316458702087402,49.59092330932617
1,166255,-41.2257194519043,-1.028484582901001,0.02511642500758171,82.28951263427734
1,166257,17.963714599609375,7.456094264984131,30.759889602661133,-64.30290985107422
1,166259,21.74937629699707,19.357595443725586,3.5297698974609375,-62.21143341064453
1,166261,24.109840393066406,-16.41341209411621,6.85114049911499,39.49906921386719
1,166263,-5.767770290374756,-16.066715240478516,-21.627845764160156,16.24067497253418
1,166265,-22.385540008544922,-0.035894136875867844,-18.102048873901367,-2.3927202224731445
1,166267,-17.858205795288086,-8.783590316772461,27.650978088378906,-23.475341796875
1,166269,-34.73515319824219,-0.37503138184547424,-12.360552787780762,-12.729048728942871
1,166271,27.25789451599121,-13.387019157409668,-25.106548309326172,25.208648681640625
1,166273,41.655025482177734,30.370141983032227,25.018596649169922,3.3891968727111816
1,166275,-35.341636657714844,12.398444175720215,-7.210766792297363,-15.700942993164062
1,166277,-7.784008026123047,-76.38467407226562,-28.54500389099121,-3.0873544216156006
1,166279,48.35726547241211,7.222142696380615,28.154882431030273,-36.569644927978516
1,166281,15.862430572509766,77.6125259399414,6.257089138031006,54.005130767822266
1,166283,-43.06504440307617,-14.456127166748047,-14.971050262451172,92.46776580810547
1,166285,-41.08797836303711,-49.8996696472168,8.746124267578125,-139.84043884277344
1,166287,14.825672149658203,17.667097091674805,-21.468976974487305,-99.15752410888672
1,166289,32.851470947265625,24.46001434326172,23.540660858154297,146.62530517578125
1,166291,10.575643539428711,3.095125436782837,30.573814392089844,85.43477630615234
1,166293,-25.710899353027344,-0.7121142148971558,-23.38052749633789,-130.3300323486328
1,166295,-18.119781494140625,-11.008516311645508,22.68144416809082,-37.218563079833984
1,166297,20.934906005859375,11.01348876953125,-4.766408443450928,101.24446105957031
1,166299,1.454440712928772,-14.221721649169922,-32.10943603515625,-28.159048080444336
1,166301,0.6179760694503784,-11.072900772094727,38.28845977783203,-35.448455810546875
1,166556,-5.8283257484436035,1.7674568891525269,-18.4761962890625,36.629730224609375
1,166557,-11.021368980407715,8.491096496582031,-33.75606918334961,15.196189880371094
1,166560,38.14249801635742,45.02412033081055,41.130760192871094,-0.5272859930992126
1,166561,-3.1763436794281006,-29.692079544067383,6.677382469177246,-8.048917770385742
1,166564,-20.7446231842041,-57.78413772583008,-6.968682765960693,23.698392868041992
1,167204,33.229278564453125,38.321903228759766,-9.175848960876465,5.981751441955566
1,167205,20.908489227294922,54.42753982543945,-29.579734802246094,-66.01073455810547
1,167207,-39.10995101928711,-40.59321594238281,-14.23698616027832,-13.162034034729004
1,167209,-45.0133171081543,-30.159914016723633,5.284995079040527,44.689453125
1,167211,16.084897994995117,55.13190841674805,44.376216888427734,21.15228271484375
1,167213,31.123788833618164,-7.217838764190674,28.92839241027832,-11.79708480834961
1,167215,-6.826473712921143,-57.63135528564453,-44.78996658325195,-29.498281478881836
1,167217,-17.565570831298828,17.3824405670166,-19.878969192504883,22.414751052856445
1,167219,5.733129501342773,17.7967472076416,17.258872985839844,-6.802674770355225
1,167221,5.142884731292725,-17.015417098999023,-0.9036744236946106,-51.41728591918945
1,167223,-6.653663635253906,27.067604064941406,3.4071109294891357,24.856435775756836
1,167225,7.206547737121582,2.4765641689300537,6.82141637802124,39.89699935913086
1,167227,31.958524703979492,-15.561527252197266,-5.303308486938477,-16.485424041748047
1,167229,-17.472896575927734,1.594144344329834,-13.865765571594238,-24.26629066467285
1,167231,-22.524518966674805,-25.55474853515625,2.5404255390167236,5.764406204223633
1,167233,25.708345413208008,18.93439292907715,23.635358810424805,39.77835464477539
1,167235,-21.6674747467041,32.95991134643555,11.988636016845703,24.853071212768555
1,167237,-23.284069061279297,-21.5693416595459,-39.30320739746094,-34.00438690185547
1,167239,28.22123908996582,-34.90715408325195,-11.130451202392578,-7.220718860626221
1,167241,-11.61227798461914,-1.764386773109436,33.76128005981445,18.417747497558594
1,167243,3.466171979904175,54.25532531738281,-19.109960556030273,-12.753299713134766
1,167245,34.020362854003906,0.13900643587112427,-9.6447172164917,-4.075687408447266
1,167247,-46.775421142578125,-46.4737434387207,48.11051559448242,-10.021706581115723
1,167249,-7.436196327209473,36.03392028808594,22.454669952392578,-30.16168785095215
1,167251,34.858238220214844,14.69559097290039,-38.008941650390625,-15.086674690246582
1,167253,2.169494152069092,-28.05921173095703,-25.444753646850586,55.014076232910156
1,167255,13.065817832946777,22.52261734008789,24.144697189331055,53.399322509765625
1,167257,1.8273648023605347,1.5901663303375244,4.419132232666016,-51.880977630615234
1,167259,-4.938888072967529,-29.17827796936035,-25.683629989624023,-27.282007217407227
1,167261,-12.844550132751465,14.861211776733398,8.11142349243164,29.97739601135254
1,167263,-25.067201614379883,-14.334272384643555,29.51877212524414,-13.014383316040039
1,167265,-13.71597671508789,-31.999990463256836,-15.948187828063965,-26.22446632385254
1,167267,1.8253378868103027,26.56324577331543,-42.78932571411133,25.96131706237793
1,167269,21.918701171875,-10.237232208251953,-10.180408477783203,15.11959171295166
1,167271,25.732349395751953,14.245227813720703,44.47018051147461,13.208321571350098
1,167273,22.975343704223633,43.889793395996094,26.139245986938477,26.232759475708008
1,167275,-21.431344985961914,-35.3862419128418,-44.98637771606445,-70.7945327758789
1,167277,-41.67996597290039,1.4434150457382202,26.582605361938477,-2.3328638076782227
1,167279,-2.9578142166137695,18.294017791748047,35.15375900268555,60.46699142456055
1,167281,6.647913455963135,-32.40780258178711,-48.018272399902344,-38.10335159301758
1,167283,21.997486114501953,0.7212266325950623,-2.3260691165924072,-2.1838345527648926
1,167285,14.526220321655273,15.892093658447266,18.47916603088379,7.056085109710693
1,167287,-13.447962760925293,-1.7034856081008911,10.554372787475586,-32.9332275390625
1,167289,-1.9938322305679321,-5.217949867248535,-21.992996215820312,55.92122268676758
1,167291,29.4261474609375,-23.457687377929688,-34.257198333740234,46.075077056884766
1,167293,-18.341724395751953,16.85331153869629,51.70060348510742,-109.05150604248047
1,167295,-47.91012954711914,43.68717575073242,39.42466735839844,-97.21752166748047
1,167297,21.012161254882812,-4.568322658538818,-46.403465270996094,85.41124725341797
1,167299,9.79227066040039,-0.8282530307769775,-51.40657043457031,79.60501098632812
1,167301,-0.9118538498878479,-24.617202758789062,1.78337824344635,29.51968002319336
1,167303,24.31154441833496,-15.282110214233398,41.04067611694336,35.56713104248047
1,167305,-15.629816055297852,46.56135177612305,5.369802474975586,-107.34552764892578
1,167307,-16.2239933013916,-2.641817331314087,-10.581727981567383,-55.732269287109375
1,167309,-17.505855560302734,-45.60031509399414,11.438491821289062,78.28111267089844
1,167311,18.872831344604492,-33.75461959838867,-21.67353630065918,12.718351364135742
1,167313,53.41248321533203,23.641746520996094,10.303988456726074,-6.45766544342041
1,167315,-6.825739860534668,26.729814529418945,15.131091117858887,17.812217712402344
1,167317,-29.376691818237305,-33.161678314208984,-25.0771484375,-35.27150344848633
1,167319,-11.397977828979492,25.886930465698242,26.204572677612305,-56.482276916503906
1,167321,21.432432174682617,-6.404111385345459,-6.376710414886475,-13.819531440734863
1,167323,0.08084962517023087,-37.258033752441406,-39.37865447998047,49.3621711730957
1,167326,-49.01430892944336,50.049171447753906,15.135787010192871,66.21394348144531
1,167327,8.453225135803223,-4.573647499084473,20.212783813476562,25.395246505737305
1,167328,27.87501335144043,-20.271223068237305,16.93015480041504,20.270648956298828
1,167331,-24.210092544555664,60.5423583984375,9.610867500305176,-78.22257995605469
1,167332,10.053204536437988,17.073318481445312,-44.85961151123047,-97.81682586669922
1,167335,6.056352138519287,-85.67733764648438,-43.63694381713867,51.63343048095703
1,167336,-6.324306964874268,-43.97682189941406,40.84855270385742,35.23420333862305
1,167339,32.19108963012695,80.24995422363281,72.24089050292969,52.536376953125
1,167340,7.620083332061768,41.955448150634766,-47.841495513916016,-2.1059322357177734
1,167343,-26.092708587646484,-67.21917724609375,-53.181175231933594,-116.7442626953125
1,167344,-4.374240398406982,-22.296802520751953,80.05293273925781,36.28532409667969
1,167347,34.85685348510742,55.931175231933594,-3.830678939819336,53.596893310546875
1,167348,-18.64837646484375,14.764554023742676,-61.16852951049805,-45.9202880859375
1,167351,-67.08025360107422,-29.901533126831055,34.428688049316406,-22.86443328857422
1,167352,35.706024169921875,-0.23962676525115967,20.436216354370117,46.67359161376953
1,167355,57.401065826416016,6.992974281311035,-37.59795379638672,6.587900161743164
1,167356,-45.08633041381836,-9.923125267028809,-18.155071258544922,-58.06951904296875
1,167359,-15.422382354736328,5.753929138183594,32.064430236816406,29.609342575073242
1,167360,33.88389587402344,14.654072761535645,33.16252899169922,47.76648712158203
1,167363,-1.202134370803833,-25.633920669555664,-13.275761604309082,21.251684188842773
1,167364,-20.912731170654297,-35.73553466796875,-37.37765121459961,-61.62078094482422
1,167367,-10.730953216552734,32.398258209228516,11.572857856750488,-60.74006652832031
1,167368,26.904563903808594,41.91682434082031,18.38285255432129,87.51100158691406
1,167371,0.8433569669723511,-20.58321189880371,-31.508495330810547,8.76771354675293
1,167372,-33.39546585083008,-32.31943893432617,21.71038055419922,-30.76994514465332
1,167375,15.157756805419922,-19.512056350708008,5.144079208374023,33.30866622924805
1,167376,26.85350799560547,16.776039123535156,-35.682437896728516,3.888639450073242
1,167379,-0.31207048892974854,41.078880310058594,31.280141830444336,-15.127284049987793
1,167380,-10.026416778564453,21.32504653930664,10.894498825073242,-42.57069778442383
1,167383,-25.92756462097168,-4.540981769561768,2.6131482124328613,-0.5937401652336121
1,167384,-19.051239013671875,-22.534360885620117,2.155071258544922,15.546638488769531
1,167387,31.499753952026367,-3.2906839847564697,-12.807684898376465,-23.11025619506836
1,167388,43.79069900512695,0.11379759758710861,39.765296936035156,38.062896728515625
1,167391,-18.63958168029785,7.772683143615723,-18.68809700012207,41.443416595458984
1,167392,-11.396095275878906,14.289339065551758,-59.51643371582031,-54.2180061340332
1,167395,-7.446938514709473,-19.86866569519043,21.37207794189453,-45.969482421875
1,167396,-45.43220520019531,-55.07679748535156,-2.7160370349884033,-0.5217217206954956
1,167399,25.98895835876465,6.265312671661377,-10.523738861083984,38.02810287475586
1,167400,26.12169647216797,62.80865478515625,46.23609161376953,83.9207992553711
1,167403,-16.10161018371582,-19.451194763183594,-19.084144592285156,-17.430282592773438
1,167404,31.744598388671875,-35.201210021972656,-22.28487205505371,-60.98642349243164
1,167407,38.452919006347656,33.2509651184082,32.568172454833984,34.313568115234375
1,167408,-7.104778289794922,28.860984802246094,-11.233416557312012,18.33116340637207
1,167411,-35.01127243041992,-21.342586517333984,-18.801544189453125,-50.44882583618164
1,167412,-29.117870330810547,17.51925277709961,26.77346420288086,-22.822437286376953
1,167415,-21.766456604003906,8.590885162353516,3.4974331855773926,33.85102844238281
1,167416,35.81493377685547,-40.067081451416016,5.098381042480469,88.08407592773438
1,167419,40.832557678222656,-6.845900058746338,-13.768492698669434,-12.442187309265137
1,167420,-50.632877349853516,3.9672892093658447,-50.41743850708008,-130.28741455078125
1,167423,-18.359407424926758,-7.009598255157471,40.66170120239258,5.942043304443359
1,167424,-7.19040584564209,-45.47140121459961,30.518699645996094,-2.0592777729034424
1,167427,-35.491233825683594,4.650650978088379,-46.63274002075195,-35.97087097167969
1,167428,10.720983505249023,21.583553314208984,-59.56205749511719,73.37291717529297
1,167431,38.04025650024414,17.208934783935547,27.080528259277344,67.08788299560547
1,167432,49.93071746826172,38.45634078979492,93.08660888671875,-1.6109883785247803
1,167435,17.78189468383789,-14.126375198364258,19.466175079345703,-34.068363189697266
1,167436,-41.43864822387695,18.80412483215332,-21.825408935546875,-26.989368438720703
1,167439,-17.398361206054688,5.421221733093262,-45.26165771484375,-3.4904348850250244
1,167440,71.2284164428711,41.49923324584961,23.86192512512207,55.15918731689453
1,167443,-28.165006637573242,20.977445602416992,14.474883079528809,-21.2069034576416
1,167444,-66.81751251220703,-108.9345932006836,-64.99310302734375,-62.56877136230469
1,167447,49.74860763549805,7.423709869384766,27.19290542602539,-38.7068977355957
1,167448,-8.020112037658691,49.35368728637695,36.34965515136719,8.285874366760254
1,167451,-23.1375789642334,-54.56037139892578,-6.13198184967041,157.21353149414062
1,167453,19.118366241455078,-84.90486145019531,-35.36314010620117,-10.252374649047852
1,167455,-66.12482452392578,-31.97256088256836,-36.24184036254883,-161.5482940673828
1,167457,-19.911550521850586,15.800674438476562,54.58263397216797,41.3228645324707
1,167459,105.61241149902344,57.2742805480957,37.34933853149414,114.1275863647461
1,167461,32.80718994140625,101.51771545410156,-30.262699127197266,-12.892176628112793
1,167463,-61.73163604736328,16.27180290222168,-19.18193817138672,-104.67574310302734
1,167465,-22.8682918548584,-26.497949600219727,9.551552772521973,-42.06386947631836
1,167467,74.26626586914062,7.813819408416748,5.672040939331055,120.11345672607422
1,167469,13.759500503540039,11.429692268371582,-25.571067810058594,73.17262268066406
1,167471,-38.51938247680664,17.34439468383789,8.918048858642578,-100.37942504882812
1,167473,14.1062593460083,1.8141095638275146,35.48481369018555,-33.8955192565918
1,167475,-3.4583613872528076,-50.674583435058594,6.647367000579834,67.93309783935547
1,167477,-25.157432556152344,-58.54753112792969,-23.688283920288086,-25.735864639282227
1,167479,-87.68896484375,-8.987857818603516,-60.18169021606445,-90.9380111694336
1,167481,-40.19666290283203,-11.76226806640625,-9.303657531738281,-25.813589096069336
1,167483,137.66488647460938,14.195009231567383,67.63935089111328,148.73123168945312
1,167485,59.08156967163086,22.545650482177734,18.85071563720703,74.07786560058594
1,167488,-90.1485824584961,-15.164995193481445,-35.821224212646484,-132.00099182128906
1,167489,-13.498640060424805,21.453832626342773,7.945985317230225,-34.730411529541016
1,167490,29.560758590698242,37.30390548706055,35.7307243347168,69.27531433105469
1,167493,8.367355346679688,23.507511138916016,-53.1068229675293,52.822994232177734
1,167494,-0.09505482763051987,22.751529693603516,-24.872299194335938,-19.081771850585938
1,167497,-25.986133575439453,-52.88483428955078,46.30897521972656,-119.73761749267578
1,167499,14.902144432067871,-81.6673583984375,-26.530689239501953,-32.139976501464844
1,167501,40.24330520629883,38.03773498535156,29.75241470336914,102.09173583984375
1,167503,-47.3086051940918,64.48571014404297,34.810829162597656,-0.949270486831665
1,167505,-44.68269348144531,-35.79832458496094,-63.4908561706543,-52.52504348754883
1,167507,50.878440856933594,-30.09833526611328,-2.1837596893310547,67.06842041015625
1,167509,56.91152572631836,30.005672454833984,68.28231048583984,52.490631103515625
1,167511,-34.950313568115234,-74.33695220947266,2.436142921447754,-53.64067459106445
1,167513,-69.96282196044922,34.4842529296875,-60.7126350402832,-18.596664428710938
1,167515,14.67176628112793,168.42376708984375,-20.639184951782227,21.13371467590332
1,167517,80.56412506103516,-4.378695011138916,38.681739807128906,5.658016204833984
1,167519,14.71699047088623,-52.26298141479492,30.610807418823242,-23.127378463745117
1,167521,-119.58322143554688,-125.33135223388672,-37.69834518432617,-41.06049346923828
1,167523,-55.500003814697266,-125.72457122802734,-24.6412410736084,-3.2509937286376953
1,167525,134.61917114257812,50.386940002441406,26.059703826904297,83.19275665283203
1,167527,49.93082809448242,35.01540756225586,-2.9499993324279785,7.057250499725342
1,167529,-32.400638580322266,151.8502655029297,30.227052688598633,-66.31816864013672
1,167531,43.35551834106445,196.53016662597656,48.78861999511719,40.27582550048828
1,167533,-113.17377471923828,-238.9835968017578,-78.69625091552734,-63.544960021972656
1,167535,-55.64779281616211,-191.98541259765625,-57.55631637573242,-47.14448928833008
1,167537,154.99588012695312,164.99078369140625,41.813167572021484,105.58268737792969
1,167539,26.395832061767578,57.385826110839844,18.720867156982422,57.29205322265625
1,167541,-63.485469818115234,-14.837074279785156,25.000471115112305,-23.955291748046875
1,167543,-38.65914535522461,-34.07502746582031,-13.971141815185547,-64.59181213378906
1,167545,-44.90413284301758,-12.783066749572754,-23.62257194519043,3.9745774269104004
1,167547,-27.926593780517578,91.13404846191406,8.218464851379395,30.84130096435547
1,167549,49.39104080200195,23.408035278320312,11.09285831451416,-16.1279296875
1,167551,67.64925384521484,-71.21780395507812,29.97835350036621,-20.806537628173828
1,167553,-6.942892551422119,-88.8999252319336,-17.36227798461914,-9.247008323669434
1,167555,-36.00798797607422,-49.34587478637695,-31.944808959960938,-1.6941871643066406
1,167557,-51.120113372802734,58.245330810546875,-14.301100730895996,-40.80097579956055
1,167559,5.526297092437744,91.14639282226562,-6.916688919067383,56.226863861083984
1,167561,141.9413604736328,35.86520767211914,59.09070587158203,110.89483642578125
1,167563,21.21609878540039,-54.28107452392578,10.034914016723633,-98.8184585571289
1,167565,-173.1484832763672,-137.88331604003906,-95.2320327758789,-110.98377990722656
1,167567,32.345096588134766,17.915523529052734,49.37070846557617,137.20230102539062
1,167569,88.06980895996094,112.8260269165039,47.24481201171875,44.419429779052734
1,167571,-82.99858856201172,-21.656158447265625,-102.21150207519531,-146.18406677246094
1,167573,8.130727767944336,18.058135986328125,52.718597412109375,72.06954193115234
1,167575,53.42758560180664,41.673038482666016,88.3017349243164,98.49234771728516
1,167577,-51.4442253112793,-69.39398956298828,-46.78628158569336,-91.53643798828125
1,167579,-14.962018013000488,21.39023208618164,-23.021724700927734,-15.575492858886719
1,167581,63.39497375488281,52.87474060058594,27.081789016723633,77.99163818359375
1,167583,4.751697063446045,-28.072980880737305,-9.994943618774414,-7.835057258605957
1,167585,-49.84412384033203,-3.7865309715270996,-55.70405197143555,-110.2644271850586
1,167587,-35.28022766113281,-39.03818130493164,-4.922163486480713,-38.418182373046875
1,167589,11.44626522064209,-14.315658569335938,42.174339294433594,64.4942398071289
1,167591,15.852214813232422,9.620853424072266,5.608399391174316,38.373111724853516
1,167593,5.5661725997924805,-24.144254684448242,5.414361000061035,16.226760864257812
1,167595,33.4652214050293,24.16094398498535,-6.3231282234191895,-16.42514419555664
1,167597,41.155418395996094,40.95564270019531,-6.145467281341553,-17.621387481689453
1,167599,-26.402889251708984,-4.197576522827148,19.113279342651367,19.398334503173828
1,167601,-30.24622917175293,-18.661785125732422,-30.929067611694336,11.77316951751709
1,167603,33.0616340637207,-5.372425079345703,-16.938138961791992,20.335220336914062
1,167605,-30.45443344116211,33.924278259277344,36.5443115234375,-39.372344970703125
1,167607,-30.665651321411133,26.858421325683594,-3.148576259613037,-67.73222351074219
1,167609,48.048912048339844,-70.4234390258789,-20.987247467041016,67.80804443359375
1,167611,-6.7327470779418945,-55.8204460144043,37.366943359375,46.24779510498047
1,167613,-37.15156173706055,9.230145454406738,-7.7426042556762695,-70.82617950439453
1,167615,-6.58700704574585,20.901145935058594,-34.95109939575195,26.869781494140625
1,167617,-24.363624572753906,-3.3462767601013184,-10.804293632507324,7.4716596603393555
1,167619,-23.73499298095703,1.4074095487594604,-5.349920272827148,-96.3991470336914
1,167621,47.33332061767578,103.7401123046875,48.91489028930664,11.405908584594727
1,167623,38.43186950683594,27.88481330871582,-4.859346866607666,63.48895263671875
1,167625,6.594964027404785,-76.37413024902344,-25.485422134399414,106.66596221923828
1,167627,60.01675796508789,-1.2724120616912842,13.514751434326172,32.549861907958984
1,167629,-50.2889404296875,-52.64911651611328,-12.958151817321777,-265.1507263183594
1,167631,-67.84899139404297,-31.853328704833984,6.027867794036865,-154.619873046875
1,167633,64.95368957519531,79.06900024414062,19.279478073120117,304.7164001464844
1,167635,19.715051651000977,43.34897232055664,2.5827856063842773,208.2757110595703
1,167637,-40.2698860168457,-15.849576950073242,-4.302219867706299,-233.09071350097656
1,167639,-24.186786651611328,-11.267948150634766,18.18100929260254,-115.29536437988281
1,167641,-33.31858825683594,-42.127586364746094,10.35809326171875,117.70440673828125
1,167643,-3.531400680541992,-60.85108184814453,-50.422889709472656,45.175933837890625
1,167645,98.36790466308594,94.35418701171875,16.5616512298584,61.31739807128906
1,167647,51.723304748535156,81.41666412353516,76.44544219970703,31.878454208374023
1,167649,-83.35138702392578,-81.20355224609375,-68.92876434326172,-188.0015411376953
1,167651,-59.95816421508789,-72.80343627929688,-57.30143737792969,-78.70018005371094
1,167654,33.49359130859375,41.19580078125,42.62038803100586,146.5944366455078
1,167655,52.7971305847168,73.76913452148438,-10.513809204101562,46.207271575927734
1,167656,7.641513824462891,-8.581541061401367,39.88606262207031,-44.72386932373047
1,167659,-11.95883560180664,-57.707855224609375,-11.241198539733887,-7.918285846710205
1,167660,-29.422101974487305,-15.4951810836792,-65.63819885253906,-8.756982803344727
1,167663,-53.107643127441406,21.887840270996094,43.076324462890625,-86.59648132324219
1,167666,2.805858850479126,5.08313512802124,19.245817184448242,-7.458463191986084
1,167667,54.782798767089844,4.942837238311768,14.500259399414062,147.61248779296875
1,167668,27.219945907592773,-23.679636001586914,27.531076431274414,70.44349670410156
1,167671,-41.73295974731445,-55.399662017822266,-42.56556701660156,-169.036865234375
1,167672,-36.385982513427734,22.801755905151367,-15.295165061950684,-61.63271713256836
1,167675,44.419525146484375,51.37287139892578,12.292657852172852,155.8311309814453
1,167676,63.783626556396484,17.057493209838867,-4.374699592590332,20.759355545043945
1,167679,0.9315860271453857,30.299612045288086,5.598053455352783,-12.52871322631836
1,167680,-71.93391418457031,-15.889001846313477,-29.916494369506836,-69.2752914428711
1,167683,-43.44806671142578,-54.91149139404297,3.0712015628814697,-136.2878875732422
1,167684,34.2922248840332,-3.1174514293670654,19.37285041809082,97.65896606445312
1,167687,16.666431427001953,21.71091651916504,-11.554031372070312,137.0573272705078
1,167688,-25.74760627746582,-63.44983673095703,-28.48439598083496,-40.873748779296875
1,167691,17.25937271118164,17.255327224731445,46.389366149902344,-50.0084228515625
1,167692,32.00270080566406,126.6585464477539,158.73391723632812,18.532678604125977
1,167695,26.796829223632812,52.94620895385742,-112.24598693847656,35.14237976074219
1,167696,-6.531813621520996,-32.18252944946289,-177.733642578125,-42.857078552246094
1,167699,-58.65785598754883,-138.20242309570312,128.16766357421875,-30.209964752197266
1,167700,27.71291160583496,-58.20875930786133,93.19989013671875,84.453125
1,167703,7.488345146179199,46.9898567199707,-111.31893157958984,-31.237014770507812
1,167704,-54.42988586425781,-15.957886695861816,-79.94214630126953,-112.65765380859375
1,167707,-28.45244789123535,11.257794380187988,52.67950439453125,-38.015079498291016
1,167708,19.14480972290039,109.64532470703125,42.838253021240234,92.45309448242188
1,167711,78.4802474975586,26.64177703857422,3.963371992111206,152.6797332763672
1,167712,-15.930047988891602,-67.09040069580078,-43.51335144042969,-87.0168228149414
1,167715,-31.347726821899414,-8.979562759399414,-7.616769790649414,-126.52326965332031
1,167716,-14.322280883789062,-29.454463958740234,36.883487701416016,30.978952407836914
1,167719,-29.083738327026367,0.7916247248649597,12.708684921264648,71.723876953125
1,167720,75.72724151611328,67.56826782226562,36.82891845703125,44.565223693847656
1,167723,61.9610481262207,-15.020180702209473,4.458324432373047,5.485330581665039
1,167724,-61.37455368041992,-60.62555694580078,-38.197235107421875,-6.013830661773682
1,167727,-50.76663589477539,33.439273834228516,-16.027070999145508,-62.95820236206055
1,167728,47.33218765258789,48.988304138183594,2.7951109409332275,-33.109981536865234
1,167731,-0.3478783667087555,-68.96308135986328,24.76848030090332,89.92158508300781
1,167732,-51.92304611206055,-17.191749572753906,0.9166988730430603,31.5352783203125
1,167735,21.622608184814453,53.15012741088867,-39.84104537963867,-140.36160278320312
1,167736,39.199588775634766,-11.30230712890625,37.30572509765625,-16.720277786254883
1,167739,6.328780174255371,-0.9696886539459229,52.44689178466797,121.218994140625
1,167740,-22.983491897583008,10.587788581848145,-44.86517333984375,-8.335107803344727
1,167743,-26.444866180419922,4.520460605621338,-43.19384765625,-121.62273406982422
1,167744,-37.14036178588867,-22.182493209838867,8.964895248413086,-43.724884033203125
1,167747,44.71392059326172,-21.14017105102539,-7.250085353851318,126.90450286865234
1,167748,87.51355743408203,26.97095489501953,6.138914585113525,125.46849060058594
1,167751,-16.157337188720703,64.46855926513672,35.345062255859375,-48.59864044189453
1,167752,-59.94779968261719,-25.750198364257812,-13.894312858581543,-135.69105529785156
1,167755,-60.34970474243164,-182.30078125,-48.817420959472656,-26.71096420288086
1,167756,15.721307754516602,-9.082456588745117,13.593269348144531,45.78533935546875
1,167759,50.525962829589844,105.03236389160156,28.374794006347656,53.88280487060547
1,167760,-9.001801490783691,23.26142692565918,-48.35721969604492,5.585377216339111
1,167763,4.705591678619385,91.89376831054688,31.994659423828125,2.223273515701294
1,167764,47.121986389160156,49.81877136230469,103.2908935546875,53.522525787353516
1,167767,-34.6590461730957,-73.71187591552734,-46.01710891723633,-87.77302551269531
1,167768,-51.71730041503906,-50.47636413574219,-59.96630096435547,-40.310176849365234
1,167771,8.026000022888184,10.991266250610352,-8.071115493774414,26.769441604614258
1,167772,7.407025337219238,-4.187174320220947,-17.753541946411133,-33.4224967956543
1,167775,30.89739990234375,-30.37052345275879,54.56449508666992,57.625484466552734
1,167776,-20.838346481323242,12.680706977844238,20.433996200561523,44.68046188354492
1,167779,-19.86573600769043,31.983949661254883,-54.10658264160156,-12.389382362365723
1,167780,79.35279083251953,49.08302307128906,13.340133666992188,-18.84346580505371
1,167783,4.966611385345459,-20.545888900756836,45.82886505126953,7.78537130355835
1,167784,-85.2998046875,-128.80062866210938,-13.274558067321777,-43.496917724609375
1,167787,11.526256561279297,-6.2983622550964355,-9.941943168640137,-21.658559799194336
1,167788,31.079164505004883,67.5294418334961,-15.050410270690918,103.70787048339844
1,167791,-33.00340270996094,13.329070091247559,-30.070642471313477,-25.48508071899414
1,167792,-2.6318347454071045,-5.6883721351623535,15.934504508972168,-68.89187622070312
1,167795,39.76715850830078,7.388830661773682,25.304019927978516,61.590553283691406
1,167796,29.009611129760742,41.32406234741211,5.751578330993652,20.56458282470703
1,167799,-31.979326248168945,0.6182248592376709,-25.74282455444336,-67.88736724853516
1,167800,-24.778488159179688,-35.505184173583984,-23.483322143554688,-23.705455780029297
1,167803,43.752403259277344,-13.187493324279785,11.1090726852417,74.77825164794922
1,167804,-15.951251983642578,-2.8588321208953857,22.127702713012695,42.064781188964844
1,167807,-48.52705764770508,21.326019287109375,17.59866714477539,-107.48179626464844
1,167808,11.335447311401367,24.357221603393555,-6.246166229248047,-42.667232513427734
1,167811,30.236421585083008,-0.13280311226844788,-37.495208740234375,110.23825073242188
1,167812,-4.789135456085205,-21.587284088134766,3.4009809494018555,8.308331489562988
1,167815,-19.74033546447754,-20.834514617919922,71.6082763671875,-31.102108001708984
1,167816,20.410768508911133,5.0362868309021,-13.3737154006958,-14.034571647644043
1,167819,-1.2232506275177002,-8.688779830932617,-56.650028228759766,-40.55799865722656
1,167820,-11.399383544921875,1.2572572231292725,-0.39293572306632996,30.685012817382812
1,167823,1.2938075065612793,24.533985137939453,16.7650146484375,23.565834045410156
1,167824,26.339502334594727,21.080692291259766,29.441049575805664,-13.153553009033203
1,167827,19.01959228515625,-26.301265716552734,3.4824016094207764,35.12534713745117
1,167828,-18.897621154785156,-23.372705459594727,-14.188982963562012,33.41813659667969
1,167831,-12.141533851623535,22.367679595947266,-5.106257915496826,-101.31981658935547
1,167833,-13.769312858581543,-7.513703346252441,-14.926408767700195,-53.57163619995117
1,167835,-5.793854236602783,-1.6805050373077393,-14.516446113586426,138.82432556152344
1,167837,8.567235946655273,-0.2844391465187073,11.55616569519043,47.74483871459961
1,167839,5.18414831161499,-45.775325775146484,-1.37273371219635,-91.75408172607422
1,167841,-34.84529495239258,-13.098549842834473,-11.849244117736816,-7.064537048339844
1,167843,21.105941772460938,74.0037612915039,36.78134536743164,43.370338439941406
1,167847,39.0844612121582,28.227310180664062,7.635799407958984,-35.14812469482422
1,167847,-33.64755630493164,-13.462077140808105,-33.06576156616211,-8.235269546508789
1,167848,-12.007426261901855,5.192348003387451,7.239697456359863,33.96751022338867
1,167851,-1.7009989023208618,-20.463151931762695,-1.908807396888733,-55.310943603515625
1,167852,28.393354415893555,3.501718521118164,15.630696296691895,-27.646677017211914
1,167855,33.66282653808594,-10.21256160736084,17.8325138092041,51.645652770996094
1,167856,-50.304691314697266,-10.067174911499023,-26.277667999267578,-29.425188064575195
1,167859,-1.0784296989440918,33.75800704956055,14.366388320922852,15.48993968963623
1,167860,43.06648254394531,-24.323928833007812,1.4669084548950195,59.67923355102539
1,167863,-44.45361328125,-34.787654876708984,-37.49683380126953,-77.362548828125
1,167864,2.7532732486724854,54.454917907714844,17.666141510009766,-9.152569770812988
1,167867,30.69892692565918,11.142849922180176,28.603586196899414,78.154296875
1,167868,-21.181903839111328,-53.4486083984375,-18.442626953125,-18.231082916259766
1,167871,0.986039936542511,-23.592458724975586,-17.96625518798828,3.8416619300842285
1,167872,-28.667085647583008,21.545806884765625,-0.2243926078081131,6.951669692993164
1,167875,-3.7781882286071777,40.80350112915039,-9.986226081848145,-101.88213348388672
1,167876,31.836856842041016,-18.618057250976562,-7.386929988861084,-60.27076721191406
1,167879,-12.586755752563477,-7.81792688369751,16.263952255249023,130.9298553466797
1,167880,5.354887962341309,33.7695198059082,28.52823829650879,122.12667846679688
1,167883,21.942523956298828,-4.549310684204102,-2.489598035812378,-74.31651306152344
1,167884,13.423720359802246,-28.52298355102539,-8.53173542022705,-71.88856506347656
1,167887,-16.918397903442383,3.3673088550567627,-8.12185287475586,2.7005794048309326
1,167888,-16.910568237304688,12.530946731567383,-27.151241302490234,17.109479904174805
1,167891,32.05107498168945,-7.831926345825195,25.727975845336914,32.306251525878906
1,167892,2.9815404415130615,32.996673583984375,47.46027755737305,15.401131629943848
1,167895,-58.0808219909668,-13.83333683013916,-16.522058486938477,-35.17828369140625
1,167896,2.7328553199768066,-63.903053283691406,-36.24201202392578,-10.297615051269531
1,167899,52.228214263916016,27.73874855041504,7.423165321350098,17.52242088317871
1,167900,-18.99639320373535,39.92763900756836,9.257293701171875,-44.75596618652344
1,167903,-19.617671966552734,-11.887890815734863,1.10805344581604,9.21912670135498
1,167904,4.069443225860596,-14.468578338623047,-10.530290603637695,40.22118377685547
1,167907,-2.3515734672546387,-19.25444984436035,-17.523998260498047,-37.29631423950195
1,167908,27.181093215942383,7.350625514984131,9.15870189666748,-5.329279899597168
1,167911,-19.859651565551758,18.00447654724121,6.612811088562012,21.6019229888916
1,167912,-20.942323684692383,-25.88362693786621,5.431867599487305,-28.390594482421875
1,167915,52.522518157958984,15.614297866821289,6.093015670776367,45.198299407958984
1,167916,-2.762314558029175,24.15900230407715,-11.038127899169922,74.16156768798828
1,167919,-55.31960678100586,-15.676716804504395,-12.272061347961426,-24.938234329223633
1,167920,9.26642894744873,0.2823072373867035,-22.169275283813477,-128.25218200683594
1,167923,39.460792541503906,-7.584905624389648,16.446491241455078,-34.750118255615234
1,167924,1.2673200368881226,15.489091873168945,63.11288833618164,141.4894561767578
1,167927,-18.064844131469727,-1.6269638538360596,-18.76909828186035,-17.237071990966797
1,167928,0.3870079517364502,-16.68878746032715,-17.214920043945312,-55.25141525268555
1,167931,11.549883842468262,26.120651245117188,34.04841995239258,56.10329055786133
1,167932,-1.9191265106201172,-6.704246520996094,-32.40762710571289,9.52073860168457
1,167935,-13.814040184020996,-23.12889289855957,-21.513032913208008,-10.200315475463867
1,167936,-17.00128746032715,8.080192565917969,22.105039596557617,-38.04145812988281
1,167939,-7.085824489593506,9.310693740844727,-13.082833290100098,-37.70307922363281
1,167940,18.65873146057129,10.587969779968262,-11.322283744812012,47.970638275146484
1,167943,33.003231048583984,35.65306854248047,36.576011657714844,45.50318145751953
1,167944,-18.075963973999023,-18.326635360717773,5.978374481201172,-17.89995574951172
1,167947,-22.09796714782715,-50.47809982299805,-49.75074005126953,-19.043655395507812
1,167948,7.215352535247803,8.132364273071289,-9.214512825012207,-14.851557731628418
1,167951,-2.802701234817505,10.850822448730469,29.260282516479492,16.158002853393555
1,167952,2.305938243865967,2.7447047233581543,8.261489868164062,11.636048316955566
1,167955,-1.0602787733078003,-25.319747924804688,-26.05257797241211,-73.68054962158203
1,167956,-14.313424110412598,-20.294532775878906,-27.211633682250977,-14.685354232788086
1,167959,21.337182998657227,23.09168243408203,38.51077651977539,121.32970428466797
1,167960,20.497108459472656,28.410505294799805,44.9172248840332,15.61478042602539
1,167963,-24.92778205871582,1.7378528118133545,-14.828726768493652,-96.27522277832031
1,167964,0.7253897190093994,-20.949047088623047,-21.646493911743164,-0.9343330264091492
1,167967,2.9516048431396484,2.8725244998931885,-10.242574691772461,38.54610824584961
1,167968,10.930428504943848,-0.5523518323898315,1.1393013000488281,-7.157833576202393
1,167971,14.555986404418945,11.617237091064453,22.68619155883789,7.239730358123779
1,167972,-27.476472854614258,22.983232498168945,17.543386459350586,21.05381202697754
1,167975,0.7718953490257263,11.59909725189209,-23.84402084350586,-26.394451141357422
1,167976,23.65654754638672,-23.651023864746094,-25.75583839416504,-12.216238975524902
1,167979,-28.13420295715332,-54.2001953125,7.520299911499023,-3.8127188682556152
1,167980,-26.165847778320312,12.67839241027832,13.676639556884766,-18.782695770263672
1,167983,41.76493835449219,44.44900131225586,21.05887794494629,41.763858795166016
1,167984,26.43328857421875,-19.959665298461914,10.41541576385498,8.650052070617676
1,167987,-32.510894775390625,-27.789583206176758,-45.48419952392578,-9.195427894592285
1,167988,-18.8221492767334,21.86343765258789,-5.866577625274658,-3.4720420837402344
1,167991,-6.051830291748047,-3.539574384689331,43.052406311035156,-34.854652404785156
1,167992,5.171708583831787,8.393744468688965,-6.214189052581787,24.479694366455078
1,167995,33.82926940917969,34.68581008911133,-32.52110290527344,33.89060592651367
1,167996,0.2578192949295044,-12.74721622467041,-6.1761369705200195,-9.106405258178711
1,167999,-10.142377853393555,3.076584577560425,50.82735061645508,-5.117584228515625
1,168000,16.744386672973633,-9.647210121154785,8.951805114746094,3.285170793533325
1,168003,-33.97503662109375,-31.196191787719727,-43.763065338134766,1.7326074838638306
1,168004,-47.93894577026367,1.1546130180358887,-26.56281280517578,-7.854814052581787
1,168007,50.766685485839844,27.209117889404297,3.667245864868164,-14.00101089477539
1,168008,46.39120864868164,26.153257369995117,47.6426887512207,-6.1389360427856445
1,168011,-49.46873092651367,-36.19065475463867,-12.523246765136719,2.1373472213745117
1,168012,-19.603008270263672,-46.75590896606445,-58.791378021240234,3.9823601245880127
1,168015,34.01846694946289,16.4031925201416,57.320831298828125,-11.239675521850586
1,168016,12.62106704711914,39.30552291870117,82.80733489990234,59.71359634399414
1,168019,-5.305077075958252,10.66707992553711,-58.060054779052734,-54.263919830322266
1,168021,-14.990680694580078,-9.939519882202148,-62.17966842651367,-115.135986328125
1,168023,-13.254034042358398,-18.588777542114258,-4.159004211425781,172.4084014892578
1,168025,5.63064432144165,-38.96586990356445,-59.107421875,126.76349639892578
1,168027,9.19948959350586,6.489251613616943,29.015289306640625,-177.7718048095703
1,168029,21.3602352142334,89.22834777832031,128.91452026367188,-132.54644775390625
1,168031,17.557323455810547,18.06777000427246,7.140111446380615,123.48348236083984
1,168033,-10.873604774475098,-68.14703369140625,-66.39765167236328,40.49739074707031
1,168035,-32.367462158203125,-0.5329883694648743,1.1896518468856812,-38.48921585083008
1,168037,3.0695607662200928,21.518394470214844,21.92365837097168,42.86103057861328
1,168040,42.78785705566406,-20.15478515625,-16.702863693237305,-65.51920318603516
1,168041,-16.97662353515625,-1.7291887998580933,-7.881779670715332,-65.1072998046875
1,168042,-26.571044921875,13.400800704956055,9.368378639221191,83.0195541381836
1,168045,-4.496414661407471,-20.324974060058594,0.16998332738876343,30.5271053314209
1,168046,2.971989870071411,-19.327367782592773,-38.17570877075195,-109.6705551147461
1,168049,17.709217071533203,28.367523193359375,-22.117969512939453,44.409934997558594
1,168050,-14.393534660339355,20.346210479736328,32.654056549072266,128.70852661132812
1,168053,-4.640246391296387,-32.49732208251953,-1.9299501180648804,-3.3498597145080566
1,168054,19.084238052368164,-19.9517765045166,-15.767901420593262,-20.051429748535156
1,168057,-7.3711748123168945,29.613229751586914,23.255908966064453,-67.23487091064453
1,168058,-9.891443252563477,22.141845703125,15.148873329162598,21.807050704956055
1,168061,1.6127327680587769,2.9459614753723145,-0.36931005120277405,30.44763946533203
1,168062,-19.259798049926758,-11.300028800964355,-9.460441589355469,-136.3019256591797
1,168065,10.285726547241211,-9.851773262023926,13.357904434204102,80.3683853149414
1,168066,34.39106369018555,-2.145115613937378,41.37195587158203,125.98201751708984
1,168069,10.231319427490234,-2.8317487239837646,0.8059827089309692,-72.96182250976562
1,168070,-16.920333862304688,12.900185585021973,-30.501243591308594,2.119213342666626
1,168073,-26.8273868560791,4.3316168785095215,-29.95653533935547,-49.240028381347656
1,168074,1.5683237314224243,-15.095240592956543,6.722740650177002,-53.60829162597656
1,168077,0.6587378978729248,-32.20768737792969,-43.26158905029297,76.63961791992188
1,168078,5.796730995178223,1.2698180675506592,-40.75537872314453,-9.718133926391602
1,168081,22.40268325805664,52.56968307495117,98.07601928710938,3.6469032764434814
1,168082,-13.973746299743652,3.6812455654144287,46.13321304321289,39.401153564453125
1,168085,-31.88512420654297,-16.651304244995117,-38.45650100708008,-129.92420959472656
1,168086,16.068674087524414,15.509760856628418,0.0171639546751976,-45.836788177490234
1,168089,14.269617080688477,-12.55367660522461,-10.236572265625,146.0055389404297
1,168090,-19.860300064086914,11.167516708374023,-10.562984466552734,22.393896102905273
1,168093,29.360937118530273,-6.121551990509033,-7.583077907562256,-13.496644020080566
1,168094,3.288209915161133,-57.94435119628906,-36.815250396728516,6.495318412780762
1,168097,-47.291893005371094,28.706283569335938,36.22037124633789,-83.41752624511719
1,168098,29.26274871826172,21.50015640258789,55.16032791137695,-16.37455177307129
1,168101,26.61240005493164,-27.75209617614746,-11.287030220031738,87.0324935913086
1,168102,-16.210803985595703,-0.4051630198955536,-48.663917541503906,54.99996566772461
1,168105,-20.253620147705078,-17.511070251464844,-26.852170944213867,9.476405143737793
1,168106,-3.509845018386841,15.806495666503906,18.545936584472656,-61.784053802490234
1,168109,39.40433883666992,45.64976119995117,-16.513046264648438,-102.91300201416016
1,168110,-12.635098457336426,9.330263137817383,32.76110076904297,20.38153648376465
1,168113,-7.305179595947266,-14.034801483154297,46.909996032714844,37.27061080932617
1,168114,28.095157623291016,-9.341445922851562,-34.43561935424805,-87.0067367553711
1,168117,-43.1880989074707,12.0353364944458,4.903478145599365,48.03237533569336
1,168118,-15.00575065612793,-19.163604736328125,-4.624611854553223,159.31053161621094
1,168121,44.361331939697266,-14.44658088684082,-21.46902084350586,-48.49842834472656
1,168122,18.518142700195312,33.9098014831543,51.14508819580078,-54.96438980102539
1,168125,-26.118606567382812,-9.055493354797363,0.3977912664413452,10.646175384521484
1,168126,-33.63997268676758,-22.884315490722656,-28.215240478515625,-30.488468170166016
1,168129,-2.8254172801971436,10.495461463928223,12.243509292602539,55.861961364746094
1,168130,12.37763500213623,-10.780794143676758,-20.944561004638672,57.70426940917969
1,168133,41.16497039794922,21.732685089111328,-24.490949630737305,-55.365150451660156
1,168134,2.4716999530792236,11.069884300231934,-37.41055679321289,-58.736114501953125
1,168137,-83.81971740722656,-62.698246002197266,-18.92278289794922,-33.03019714355469
1,168138,-17.416101455688477,21.801206588745117,87.08350372314453,41.26591491699219
1,168141,69.23583221435547,63.74314498901367,59.27384948730469,137.50439453125
1,168142,35.692203521728516,-26.098493576049805,-22.21654510498047,-167.24740600585938
1,168145,3.7654476165771484,-27.11310386657715,-27.805953979492188,-75.17147827148438
1,168146,-29.127178192138672,16.42672348022461,-38.288944244384766,206.09930419921875
1,168149,-28.56667137145996,-8.85776138305664,-0.676352322101593,-150.43008422851562
1,168150,15.446585655212402,-5.8770856857299805,27.886507034301758,-54.89845657348633
1,168153,18.969316482543945,25.70615005493164,29.6307315826416,168.02838134765625
1,168154,-1.1894280910491943,-2.5796701908111572,7.349557876586914,-3.210275888442993
1,168157,-7.816537857055664,-53.88149642944336,-44.41645050048828,10.562843322753906
1,168158,10.195520401000977,4.126359939575195,0.8480119109153748,30.716537475585938
1,168161,-3.7467057704925537,79.21435546875,5.822442531585693,-97.14994812011719
1,168162,-8.527176856994629,-13.632373809814453,-49.47747039794922,-67.63343048095703
1,168165,5.112990379333496,-68.53461456298828,-5.938683986663818,79.67819213867188
1,168166,-32.78538131713867,-10.409161567687988,27.97056770324707,54.267677307128906
1,168169,-0.13243712484836578,44.73391342163086,41.27367401123047,-21.034955978393555
1,168170,48.27092742919922,16.44050407409668,11.405271530151367,-20.587543487548828
1,168173,-26.059385299682617,-41.86466979980469,-43.79092025756836,-46.889408111572266
1,168174,-34.65312957763672,11.258626937866211,12.214276313781738,39.8257942199707
1,168177,33.365516662597656,55.812034606933594,33.722782135009766,70.64136505126953
1,168178,26.913942337036133,19.71038055419922,-4.081106185913086,-65.89739227294922
1,168181,-5.644504547119141,-30.422040939331055,-6.378108024597168,-149.1244659423828
1,168182,-18.588369369506836,-34.54048156738281,-5.071401596069336,11.470251083374023
1,168185,-3.002789258956909,-3.1735727787017822,-9.334084510803223,228.229248046875
1,168186,14.068479537963867,14.969715118408203,-8.811970710754395,3.7162866592407227
1,168189,-8.700590133666992,-18.811431884765625,-28.95604133605957,-122.86345672607422
1,168190,-27.58784294128418,-25.61115837097168,-1.6107916831970215,3.4450862407684326
1,168193,1.847080111503601,15.104402542114258,28.010744094848633,5.84091854095459
1,168194,30.927227020263672,8.99232006072998,-20.762338638305664,6.834774971008301
1,168197,22.824926376342773,28.226194381713867,6.116333961486816,-115.67210388183594
1,168198,-14.587437629699707,-5.44428825378418,29.501190185546875,12.033074378967285
1,168201,-19.459928512573242,8.163928985595703,26.935213088989258,250.5823516845703
1,168202,9.087774276733398,49.458587646484375,29.184764862060547,-13.996044158935547
1,168205,12.936572074890137,-47.23215103149414,-44.999656677246094,-160.88568115234375
1,168206,-23.956619262695312,-38.9819221496582,-49.45803451538086,-73.94540405273438
1,168209,2.263895034790039,38.321895599365234,45.571044921875,71.60523986816406
1,168210,46.54587936401367,-2.5942881107330322,4.109349250793457,112.28425598144531
1,168213,-42.20297622680664,-32.50975036621094,-35.41389083862305,-52.98390197753906
1,168214,-22.803428649902344,34.21041488647461,61.84714889526367,11.469661712646484
1,168217,36.653770446777344,-2.180386543273926,-23.46099853515625,15.729241371154785
1,168219,-25.33100128173828,-52.48822021484375,-58.63570785522461,-55.52614212036133
1,168221,-19.051071166992188,21.59892463684082,53.34589767456055,5.518905162811279
1,168223,2.1244709491729736,-4.163072109222412,-39.422996520996094,-15.884469032287598
1,168225,33.00269317626953,0.9313964247703552,-40.19712829589844,-10.629383087158203
1,168227,40.71778106689453,56.61325454711914,81.25613403320312,25.70624351501465
1,168229,-35.39422607421875,-13.556981086730957,17.61396598815918,-8.121192932128906
1,168231,-28.681743621826172,-41.99232864379883,-43.70407485961914,-2.14904522895813
1,168233,4.223679065704346,-14.788641929626465,-25.10317611694336,-10.794660568237305
1,168235,21.110063552856445,6.219740390777588,-7.588096618652344,-2.0425562858581543
1,168237,8.807605743408203,29.36372947692871,43.557029724121094,15.969405174255371
1,168239,-14.802705764770508,13.071993827819824,31.902549743652344,-61.66210174560547
1,168241,-1.9995366334915161,-25.1380672454834,-68.82759094238281,21.98282814025879
1,168243,-16.7696533203125,9.048419952392578,-13.863717079162598,62.852901458740234
1,168246,42.824432373046875,35.780975341796875,93.63648223876953,-15.939664840698242
1,168246,22.286575317382812,-4.3938307762146,13.954510688781738,10.384405136108398
1,168249,-65.40884399414062,-13.232987403869629,-56.625789642333984,-100.17786407470703
1,168250,-2.624603748321533,-24.040163040161133,0.6565070748329163,-4.715874195098877
1,168253,47.248779296875,-0.9412215352058411,25.133058547973633,215.29762268066406
1,168254,-4.528812885284424,14.253971099853516,-21.222074508666992,33.74855041503906
1,168257,-37.345436096191406,-11.676325798034668,-4.384200572967529,-96.41621398925781
1,168258,-13.056955337524414,-9.410491943359375,3.2307446002960205,-135.49391174316406
1,168261,28.932939529418945,18.047273635864258,-16.121307373046875,21.947830200195312
1,168262,38.79783630371094,19.61568832397461,-17.81298828125,225.6015167236328
1,168265,-45.90663146972656,-45.19498062133789,-48.375545501708984,-123.08403778076172
1,168266,-61.00163269042969,-28.324771881103516,10.185683250427246,-219.32086181640625
1,168269,45.44728469848633,48.920677185058594,79.71266174316406,57.87022399902344
1,168270,53.681758880615234,27.908472061157227,20.09814453125,143.76568603515625
1,168273,-21.08694839477539,-14.592268943786621,-3.803694248199463,69.00602722167969
1,168274,-28.144393920898438,-12.055480003356934,-12.694847106933594,-66.9932861328125
1,168277,38.5786018371582,7.385536193847656,-33.89738845825195,-58.82826614379883
1,168278,32.986793518066406,26.070972442626953,28.3794002532959,-13.917166709899902
1,168281,-75.2780990600586,-35.66722869873047,-1.6558380126953125,-1.7551549673080444
1,168282,-6.972866058349609,-16.539575576782227,-4.490951061248779,80.41714477539062
1,168285,44.41062545776367,15.965666770935059,-9.979350090026855,1.1809922456741333
1,168286,-24.63960838317871,-12.682615280151367,-38.2158203125,-70.4240951538086
1,168289,54.711971282958984,56.074928283691406,54.194854736328125,43.194374084472656
1,168290,2.6925885677337646,-6.123360633850098,-3.0320770740509033,4.736039638519287
1,168293,-71.77835845947266,-65.17544555664062,-45.24285125732422,-36.88650131225586
1,168294,6.358978271484375,12.797163963317871,26.668792724609375,-11.878029823303223
1,168297,14.654129028320312,31.527280807495117,18.449127197265625,-27.11594581604004
1,168298,10.311867713928223,8.335328102111816,-3.2171080112457275,2.56599760055542
1,168301,-6.456157207489014,-34.97908401489258,8.349577903747559,44.54535675048828
1,168302,-2.0791573524475098,-9.278621673583984,11.395766258239746,56.28137969970703
1,168305,-4.474546909332275,1.1641896963119507,-52.6534538269043,-27.344497680664062
1,168306,-6.8255839347839355,-8.914566993713379,-9.561058044433594,-33.560546875
1,168309,36.36915588378906,40.386749267578125,52.656715393066406,35.34579849243164
1,168310,-41.20119857788086,-8.866209030151367,-29.007896423339844,22.453832626342773
1,168313,-17.83578109741211,-18.77337646484375,2.3899567127227783,-20.32303810119629
1,168314,54.49479293823242,55.76849365234375,39.35470962524414,-63.16863250732422
1,168317,-32.282562255859375,7.097469329833984,-4.876980781555176,-20.975305557250977
1,168318,2.5583319664001465,-63.86655807495117,-10.321724891662598,93.92678833007812
1,168321,38.48067855834961,10.225605010986328,-44.515785217285156,51.49653244018555
1,168322,-2.5809109210968018,21.3301944732666,-22.824325561523438,-71.0625
1,168325,-2.2820167541503906,-17.445640563964844,44.694007873535156,-1.2988492250442505
1,168326,-14.245389938354492,19.186033248901367,24.778751373291016,-23.611467361450195
1,168329,-19.41272735595703,-1.2598211765289307,15.46987533569336,-9.700440406799316
1,168330,-22.124963760375977,-24.7283935546875,-4.232224941253662,31.345550537109375
1,168333,31.307865142822266,-3.0406861305236816,-15.823539733886719,-55.20484924316406
1,168334,7.735862731933594,-0.15793649852275848,-22.327774047851562,22.74452018737793
1,168337,-43.934207916259766,-14.250784873962402,-54.68527603149414,17.26791000366211
1,168338,17.640491485595703,0.06613551825284958,20.461408615112305,-32.09284591674805
1,168341,26.333572387695312,14.715743064880371,51.50101852416992,56.7390022277832
1,168342,6.216209411621094,36.67570877075195,10.077363014221191,26.249847412109375
1,168345,-29.729604721069336,8.364810943603516,16.087753295898438,-91.41922760009766
1,168346,-20.996906280517578,-59.68584060668945,-27.060283660888672,-28.239395141601562
1,168349,60.09550476074219,21.548709869384766,-25.074247360229492,89.91938018798828
1,168350,18.66683578491211,52.675498962402344,41.15721130371094,-25.421485900878906
1,168353,-35.64442825317383,-35.366859436035156,-14.654814720153809,-28.782215118408203
1,168354,3.536827802658081,-3.742675304412842,-21.230709075927734,48.68813705444336
1,168357,-1.6459261178970337,20.496137619018555,21.256038665771484,-14.224769592285156
1,168358,-5.347605228424072,-10.640129089355469,3.730750322341919,60.67498779296875
1,168361,21.851184844970703,-21.49764060974121,-9.037274360656738,-0.5193739533424377
1,168362,-14.327938079833984,-39.52656936645508,-24.936622619628906,-96.1900634765625
1,168365,-5.5755696296691895,36.74116516113281,47.36994552612305,66.56659698486328
1,168366,12.187026977539062,27.060047149658203,3.069190263748169,61.92167282104492
1,168369,-38.971954345703125,-33.663272857666016,-48.22039794921875,-70.14962768554688
1,168370,-17.984636306762695,22.250797271728516,33.415283203125,-11.187750816345215
1,168373,33.007816314697266,-17.3194522857666,-28.69417381286621,-3.9798412322998047
1,168374,21.50054931640625,13.47946548461914,-7.887162685394287,-31.609384536743164
1,168377,-12.394495010375977,24.379161834716797,60.01632308959961,20.494787216186523
1,168378,21.352773666381836,-58.86182403564453,-35.935176849365234,12.708349227905273
1,168381,41.426265716552734,20.813364028930664,-17.2492733001709,-32.79479217529297
1,168382,-30.212921142578125,33.135475158691406,43.6893196105957,-10.761253356933594
1,168385,-77.93182373046875,-24.741239547729492,-17.12287712097168,60.952030181884766
1,168386,-19.08926010131836,-6.061300277709961,-17.961307525634766,21.508806228637695
1,168389,35.297157287597656,-16.912288665771484,-7.447258472442627,-88.64240264892578
1,168390,10.313501358032227,-8.642436981201172,-3.9302055835723877,-16.10422706604004
1,168393,31.068897247314453,45.949913024902344,34.1807746887207,97.71412658691406
1,168394,11.320566177368164,17.433879852294922,4.6064252853393555,-24.7779483795166
1,168397,-31.959848403930664,-14.516181945800781,-18.892898559570312,-14.030206680297852
1,168398,-9.266311645507812,-14.684839248657227,-20.116931915283203,74.98950958251953
1,168401,3.567750930786133,-26.319692611694336,0.22050265967845917,-59.659873962402344
1,168402,2.528568983078003,25.353239059448242,54.692352294921875,-59.20880126953125
1,168405,9.90859317779541,13.613795280456543,3.5392212867736816,61.126487731933594
1,168407,28.232282638549805,-10.645514488220215,-53.45130920410156,8.596233367919922
1,168409,-3.7936575412750244,9.684264183044434,-7.289846420288086,-26.928668975830078
1,168411,-37.54396438598633,-32.968101501464844,-4.283287525177002,21.44188117980957
1,168413,1.6368889808654785,-20.789291381835938,3.571493148803711,-61.83966827392578
1,168415,34.8865966796875,47.88700866699219,42.141700744628906,-23.708818435668945
1,168417,-19.014867782592773,20.087596893310547,-10.922576904296875,72.44244384765625
1,168419,-6.657963275909424,-28.442787170410156,10.666962623596191,19.522817611694336
1,168421,46.509857177734375,16.570831298828125,20.741371154785156,-18.603546142578125
1,168423,-46.2736701965332,16.233488082885742,-63.92691421508789,-54.70847702026367
1,168425,-69.03053283691406,-57.63216018676758,-24.055416107177734,-12.218408584594727
1,168427,54.033172607421875,-22.912874221801758,52.96723175048828,56.50107192993164
1,168429,67.85787963867188,60.59298324584961,15.683882713317871,82.84819030761719
1,168431,-15.672926902770996,18.22962188720703,-28.740692138671875,29.971681594848633
1,168433,-34.39775085449219,-43.90259552001953,11.843948364257812,-151.25729370117188
1,168435,8.319269180297852,-4.238590240478516,14.249134063720703,-47.57652282714844
1,168437,-6.5654401779174805,11.564457893371582,-18.70709991455078,109.9698715209961
1,168439,-17.31865119934082,34.263633728027344,3.739487409591675,-58.80052947998047
1,168442,16.17788314819336,34.43704605102539,13.440765380859375,15.469319343566895
1,168443,11.414847373962402,-47.28499984741211,-14.812000274658203,135.47393798828125
1,168444,1.3281141519546509,-12.757207870483398,0.5323385000228882,13.998499870300293
1,168447,-15.001047134399414,12.715371131896973,-8.339548110961914,-148.99542236328125
1,168448,2.6441826820373535,-25.941062927246094,-38.848201751708984,-155.86468505859375
1,168451,4.810606956481934,24.523027420043945,24.134265899658203,123.67585754394531
1,168452,0.22037258744239807,10.64057731628418,53.47365951538086,166.48219299316406
1,168455,-8.607499122619629,-34.362648010253906,-14.215553283691406,-46.328495025634766
1,168456,-21.666322708129883,-9.813596725463867,-37.842864990234375,-55.50138473510742
1,168459,0.9745612144470215,-7.70643949508667,1.600785732269287,-28.782642364501953
1,168460,39.95527648925781,16.94510269165039,8.374641418457031,-52.884281158447266
2,168465,35.22406768798828,35.2349853515625,10.915956497192383,49.595829010009766
2,168465,-38.6287956237793,-14.295206069946289,31.706382751464844,65.31746673583984
2,168466,-9.430912017822266,-22.359066009521484,-3.396784782409668,-27.279237747192383
2,168469,-7.550410270690918,17.251676559448242,-44.645694732666016,-10.259761810302734
2,168470,-26.380319595336914,-13.558170318603516,-23.61056900024414,-12.016362190246582
2,168473,40.89023208618164,-12.244498252868652,26.07148551940918,-19.291950225830078
2,168474,8.418701171875,22.97789764404297,37.763343811035156,22.717098236083984
2,168477,-27.40026092529297,0.049004264175891876,-13.387930870056152,5.425636291503906
2,168478,-9.837915420532227,2.8878910541534424,-26.762022018432617,4.061258792877197
2,168481,-1.6636872291564941,-1.0298372507095337,7.011981964111328,22.996681213378906
2,168482,-2.8306071758270264,-26.171552658081055,6.502801895141602,-21.146141052246094
2,168485,16.198593139648438,2.7065112590789795,6.880969524383545,-90.65081787109375
2,168486,32.70756530761719,45.6660270690918,16.212549209594727,30.875652313232422
2,168489,-29.494108200073242,11.112491607666016,7.7655229568481445,140.7100372314453
2,168490,-42.391231536865234,-64.48197937011719,-71.60594940185547,-59.17113494873047
2,168493,35.59406280517578,-4.711346626281738,-21.116788864135742,-60.95578384399414
2,168494,47.37281799316406,59.35540008544922,97.26907348632812,59.90803146362305
2,168497,-31.354774475097656,-13.805591583251953,23.279809951782227,-26.975261688232422
2,168752,-15.430575370788574,-40.1783447265625,-46.532676696777344,-12.861287117004395
2,168753,31.47232437133789,-5.8409223556518555,-48.67155838012695,19.3516845703125
2,168756,-14.309123992919922,22.89822769165039,-20.264780044555664,-23.880748748779297
2,168757,-17.294992446899414,15.843196868896484,25.696428298950195,-2.72190260887146
2,168760,31.10087013244629,19.197511672973633,65.49385833740234,33.91151428222656
2,168761,6.919230937957764,-15.730400085449219,9.7955904006958,28.379358291625977
2,169675,-24.335033416748047,-17.48387908935547,-21.796289443969727,-3.7773849964141846
2,169677,7.528576850891113,47.22393035888672,17.98371124267578,-20.242633819580078
2,169679,9.221808433532715,-11.471479415893555,-40.80214309692383,-26.54307746887207
2,169681,-3.1007275581359863,-30.334117889404297,-37.786041259765625,-35.032920837402344
2,169683,-12.612897872924805,2.96517014503479,24.23168182373047,6.006886959075928
2,169685,-10.65334701538086,-2.100882053375244,20.3897647857666,22.260478973388672
2,169687,3.5814692974090576,23.269588470458984,6.309875965118408,-20.609783172607422
2,169689,-29.979379653930664,1.1582744121551514,-12.621465682983398,11.401042938232422
2,169691,-43.95282745361328,-59.81529235839844,-25.78955078125,51.322059631347656
2,169693,21.917661666870117,-12.582639694213867,-2.0788748264312744,-15.309309005737305
2,169695,53.161983489990234,81.39958190917969,44.22376251220703,-79.3918685913086
2,169697,4.133668422698975,22.062808990478516,37.23563003540039,15.525362968444824
2,169699,-27.625335693359375,-75.9765396118164,-57.243125915527344,105.87783813476562
2,169701,1.4083402156829834,-32.702903747558594,-37.7393913269043,-5.733046054840088
2,169703,48.241859436035156,50.388038635253906,57.658626556396484,-8.234859466552734
2,169705,-5.795077800750732,10.107705116271973,12.475198745727539,-106.48316955566406
2,169707,-52.39522933959961,-27.620702743530273,-28.45707893371582,-50.691558837890625
2,169709,16.54267120361328,9.946694374084473,15.441681861877441,220.03286743164062
2,169712,57.95833969116211,12.195953369140625,17.372386932373047,2.2030043601989746
2,169713,6.452836036682129,9.327862739562988,-35.4936408996582,-80.10031127929688
2,169714,-48.57036209106445,3.8667006492614746,-28.260009765625,18.80923843383789
2,169717,11.681395530700684,3.193610429763794,17.21560287475586,-46.64765930175781
2,169718,16.11384391784668,-9.385098457336426,15.432709693908691,-27.238187789916992
2,169721,-26.485300064086914,-14.075575828552246,21.289941787719727,12.005656242370605
2,169722,4.4214935302734375,21.206533432006836,2.307929039001465,19.06589698791504
2,169725,-13.925501823425293,-18.917631149291992,-41.12858200073242,-8.041194915771484
2,169726,-1.7343746423721313,-25.45744514465332,-0.11183459311723709,0.29117509722709656
2,169729,27.798049926757812,61.653621673583984,45.37641906738281,23.278120040893555
2,169730,2.0783636569976807,6.63484001159668,-6.900484561920166,-19.364652633666992
2,169733,-9.282033920288086,-48.40127944946289,-36.387596130371094,-35.40349578857422
2,169734,-15.514431953430176,0.9072326421737671,-6.723140239715576,-7.187356472015381
2,169737,-6.330920696258545,14.992094039916992,9.786861419677734,33.240570068359375
2,169739,21.734111785888672,-1.0673985481262207,18.347341537475586,21.53784942626953
2,169741,-23.208681106567383,-1.4173431396484375,-4.387493133544922,-22.820804595947266
