Aktueller Finger,timestamp_ms,sensor_0,sensor_1,sensor_2,sensor_3
0,574969,21.186542510986328,16.06367301940918,8.79743480682373,16.455352783203125
0,574969,-13.8886137008667,-17.164918899536133,-12.921815872192383,-20.355302810668945
0,574971,-22.0777530670166,22.06549072265625,13.933184623718262,-69.05757141113281
0,574973,8.703651428222656,-19.43905258178711,1.5409164428710938,2.1817684173583984
0,574975,-10.511268615722656,-31.420970916748047,15.067137718200684,101.85777282714844
0,574977,10.61846923828125,39.690467834472656,-9.637333869934082,-22.062698364257812
0,574979,37.74013137817383,28.5189208984375,7.37865686416626,-13.428486824035645
0,574981,-31.554790496826172,-8.411371231079102,21.365768432617188,29.9189510345459
0,574983,-27.743377685546875,-25.013628005981445,-46.906394958496094,-72.06454467773438
0,574985,30.87883949279785,4.616613388061523,3.9878928661346436,-6.411144256591797
0,574987,7.178621292114258,15.235698699951172,37.408424377441406,69.77801513671875
0,574989,1.3408095836639404,-31.26913833618164,-3.9538800716400146,4.601563930511475
0,574991,9.643685340881348,6.1568803787231445,4.527268886566162,-20.492353439331055
0,574993,-30.44112777709961,14.47637939453125,-19.171321868896484,11.614118576049805
0,574995,-3.707158088684082,-18.094709396362305,-46.360443115234375,-1.0677489042282104
0,574997,36.14926528930664,9.903736114501953,31.245681762695312,-20.714614868164062
0,574999,-7.601655006408691,7.566199779510498,40.551082611083984,-78.20840454101562
0,575001,-22.120264053344727,0.5924004912376404,-46.268714904785156,-18.941566467285156
0,575003,12.631924629211426,-13.058122634887695,23.408897399902344,140.26454162597656
0,575005,0.9281297326087952,-9.268974304199219,23.588279724121094,42.02699661254883
0,575007,-15.237547874450684,5.682284355163574,-63.20057678222656,-67.1944580078125
0,575009,3.2055976390838623,-22.59501075744629,26.367361068725586,-41.64885711669922
0,575011,-6.141509532928467,19.00808334350586,16.6590518951416,-11.842460632324219
0,575013,-11.984289169311523,43.018943786621094,-51.47829818725586,21.33935546875
0,575015,27.41807746887207,-7.697327613830566,25.132810592651367,4.508409023284912
0,575017,17.416418075561523,-11.18259334564209,43.942298889160156,19.621623992919922
0,575019,-24.1353759765625,-10.841817855834961,-10.312044143676758,9.010982513427734
0,575021,-16.44734764099121,-2.2790606021881104,-24.221853256225586,-23.96497917175293
0,575023,0.19473101198673248,1.5332491397857666,-3.685549736022949,7.20425271987915
0,575025,16.213478088378906,-19.459943771362305,3.8993148803710938,-9.58396053314209
0,575027,3.0687081813812256,13.873425483703613,16.85464096069336,-11.696039199829102
0,575029,-1.2016804218292236,19.406986236572266,13.79837703704834,12.158522605895996
0,575031,5.881250381469727,-21.865676879882812,-19.770421981811523,-4.061514377593994
0,575033,-15.285048484802246,5.1415324211120605,-4.7772955894470215,-7.335737228393555
0,575035,8.867107391357422,35.14801025390625,2.5681118965148926,8.97723388671875
0,575037,20.817338943481445,-29.097118377685547,-20.773176193237305,12.319528579711914
0,575039,-17.557125091552734,-45.94108200073242,-2.5985143184661865,-5.378183364868164
0,575041,9.484345436096191,38.7689208984375,10.980067253112793,-17.028766632080078
0,575043,26.937036514282227,45.07054138183594,17.029054641723633,3.7795193195343018
0,575045,-43.591365814208984,-23.85573959350586,7.0340256690979,24.465118408203125
0,575047,-22.63495635986328,-44.15148162841797,-23.371519088745117,3.1213371753692627
0,575049,26.252084732055664,3.3972599506378174,4.275909423828125,-6.6991119384765625
0,575051,-6.0926127433776855,17.494890213012695,17.749494552612305,-1.2490066289901733
0,575053,14.254053115844727,11.672587394714355,-19.7562198638916,-3.8528051376342773
0,575055,3.951554536819458,-2.7692320346832275,-15.177020072937012,-12.229969024658203
0,575057,-35.90481185913086,-16.391603469848633,-0.9642234444618225,-2.514446496963501
0,575059,10.084396362304688,31.113861083984375,21.49587631225586,22.733285903930664
0,575061,22.22307014465332,5.224935054779053,15.585916519165039,25.26738929748535
0,575063,-20.765409469604492,-35.288963317871094,-26.072534561157227,-25.11444854736328
0,575065,-3.8459534645080566,9.76833438873291,15.408650398254395,-46.29779815673828
0,575067,16.10310173034668,20.52979850769043,29.453012466430664,18.7907772064209
0,575069,0.8437677621841431,-24.708398818969727,-28.751161575317383,17.108844757080078
0,575071,9.150531768798828,-5.121629238128662,-11.222216606140137,-18.44361114501953
0,575073,4.224922180175781,14.367302894592285,22.394147872924805,21.406108856201172
0,575075,-11.751640319824219,-18.21742820739746,-2.9463930130004883,36.68308639526367
0,575077,1.6861478090286255,5.882601737976074,-13.194631576538086,-46.60100555419922
0,575079,7.08602237701416,23.629179000854492,-1.4566117525100708,-74.8810043334961
0,575081,3.4781816005706787,-4.574504852294922,-1.0413153171539307,54.918521881103516
0,575083,-10.212364196777344,-44.3452033996582,-27.554607391357422,77.17000579833984
0,575085,-20.89101219177246,11.679435729980469,30.696292877197266,-42.09978485107422
0,575087,6.643659591674805,75.91566467285156,49.72636413574219,-31.537965774536133
0,575089,18.06316375732422,-34.191375732421875,-46.00518035888672,22.390247344970703
0,575091,-0.029597491025924683,-54.52859878540039,-33.0142707824707,-1.1574386358261108
0,575093,-8.884187698364258,28.157896041870117,14.261490821838379,0.06000837683677673
0,575095,-0.7942567467689514,16.75739860534668,10.045761108398438,24.458770751953125
0,575097,-12.689948081970215,-5.173620223999023,11.639647483825684,4.872445583343506
0,575099,-6.804875373840332,-31.986595153808594,16.332286834716797,-10.843571662902832
0,575101,15.227838516235352,3.2754602432250977,-1.7810990810394287,-0.5283835530281067
0,575103,14.796982765197754,42.24660873413086,-26.476104736328125,-0.2063295692205429
0,575105,19.69587516784668,-4.094645023345947,-8.413179397583008,-6.658143520355225
0,575107,2.313199281692505,-1.6522164344787598,4.32244348526001,-23.424362182617188
0,575362,-35.451725006103516,-2.8777899742126465,-4.599584102630615,-14.697589874267578
0,575363,1.1606132984161377,-1.6274025440216064,16.007280349731445,24.252714157104492
0,575364,24.533506393432617,22.61248207092285,-1.1253076791763306,15.154133796691895
0,575367,-21.462890625,-6.947112560272217,-6.353507995605469,-9.209671020507812
0,575368,-15.22618293762207,-15.315277099609375,31.014141082763672,11.312421798706055
0,575371,4.4873433113098145,-2.725935220718384,-6.670727252960205,0.21494217216968536
0,575373,10.399283409118652,-33.039161682128906,-22.93967628479004,-11.634696006774902
0,576849,-8.010878562927246,-6.738028049468994,-21.313020706176758,-7.532032012939453
0,576850,2.4149699211120605,60.7210807800293,-0.6644286513328552,1.7614448070526123
0,576853,38.76537322998047,0.6916990280151367,34.609130859375,-14.224255561828613
0,576854,-13.598946571350098,-60.04753112792969,-14.957864761352539,-21.3700008392334
0,576857,-42.15993881225586,-5.644818305969238,-18.449207305908203,37.978843688964844
0,576858,-1.4113584756851196,41.5280647277832,-15.863652229309082,-11.773514747619629
0,576861,16.465864181518555,14.914484977722168,10.031791687011719,-10.732752799987793
0,576862,15.71938419342041,-12.462919235229492,74.9164047241211,49.542625427246094
0,576865,-9.80424976348877,-2.0883188247680664,4.0706071853637695,-13.431137084960938
0,576866,-19.127765655517578,1.803283929824829,-44.10085678100586,-0.06543764472007751
0,576869,9.739953994750977,-13.648000717163086,-29.20810317993164,1.1662498712539673
0,576870,10.765897750854492,-15.858263969421387,-1.6142115592956543,-28.349102020263672
0,576873,-0.9245924949645996,33.33164596557617,51.29649353027344,18.709476470947266
0,576874,17.182703018188477,26.24219512939453,3.555402994155884,12.543649673461914
0,576877,17.95347785949707,-25.23210334777832,-26.523550033569336,-21.052967071533203
0,576878,-20.51288604736328,-2.3921942710876465,1.131429672241211,-13.07963752746582
0,576881,-24.27737808227539,-0.728815495967865,-5.9926042556762695,18.038541793823242
0,576882,15.110608100891113,-8.003283500671387,-1.0195839405059814,8.192267417907715
0,576885,8.726099014282227,13.314187049865723,1.9320075511932373,-14.361416816711426
0,576886,-6.534268856048584,-26.50542640686035,-8.006733894348145,0.9938269853591919
0,576889,-8.06071949005127,-5.531081676483154,13.788965225219727,18.00921630859375
0,576890,-0.23800192773342133,30.916767120361328,12.57923698425293,-13.080787658691406
0,576893,13.555926322937012,-12.988723754882812,-12.961187362670898,-8.609938621520996
0,576894,-33.032405853271484,-19.10616683959961,-1.8743715286254883,28.656539916992188
0,576897,2.5698094367980957,5.441897869110107,-11.053555488586426,-31.22867774963379
0,576898,35.08669662475586,11.599470138549805,-7.090620040893555,-26.064220428466797
0,576901,-14.430272102355957,-0.44552165269851685,12.339828491210938,45.302330017089844
0,576902,-7.418436527252197,3.4991836547851562,-7.978752136230469,-1.7931302785873413
0,576905,8.078591346740723,0.12726812064647675,-0.6869569420814514,-15.215997695922852
0,576906,7.73526668548584,10.402606964111328,16.518648147583008,27.6868839263916
0,576909,-17.25010108947754,25.306608200073242,7.03366231918335,-17.504907608032227
0,576910,-9.21010971069336,-23.384021759033203,-6.847374439239502,-23.486671447753906
0,576913,18.24867057800293,-22.13916015625,-18.709299087524414,32.67642593383789
0,576914,6.342761993408203,22.775541305541992,15.788433074951172,26.79796600341797
0,576917,-6.954678535461426,-5.202670574188232,31.384105682373047,-27.54885482788086
0,576918,-9.741976737976074,-16.930130004882812,-25.872844696044922,-15.837924003601074
0,576921,5.542943954467773,16.72476577758789,-15.312309265136719,19.39649772644043
0,576922,7.875489234924316,8.053155899047852,28.984344482421875,-5.460034370422363
0,576925,-11.364522933959961,-27.103422164916992,-8.784159660339355,-28.091764450073242
0,576926,10.787992477416992,-11.363248825073242,-27.35420799255371,5.1865105628967285
0,576929,17.522659301757812,20.834880828857422,22.567466735839844,31.484373092651367
0,576930,-10.20797061920166,9.523548126220703,3.8689825534820557,-5.454360008239746
0,576933,-5.213599681854248,19.65492057800293,-12.277759552001953,-25.197553634643555
0,576934,-7.911323547363281,-7.196075916290283,21.213029861450195,-0.7649343609809875
0,576937,-0.8939085006713867,-35.545711517333984,-18.26044464111328,15.52255916595459
0,576938,-2.6940016746520996,16.280445098876953,-21.8101806640625,0.5144586563110352
0,576941,-2.6529078483581543,8.290565490722656,10.623346328735352,-11.126437187194824
0,576942,26.343341827392578,-5.812087535858154,2.7398154735565186,0.2517460584640503
0,576945,-6.477850437164307,2.4819343090057373,-12.68477725982666,16.692813873291016
0,576946,-32.18588638305664,-3.7026641368865967,11.147425651550293,-2.0459747314453125
0,576949,14.632587432861328,-3.0702719688415527,3.5242760181427,-10.414735794067383
0,576950,15.69440746307373,-14.206496238708496,-24.755578994750977,17.60101318359375
0,576953,-5.173213005065918,30.3747501373291,31.917593002319336,0.8202255368232727
0,576954,-2.378910541534424,10.0925931930542,33.16297149658203,-48.865909576416016
0,576957,-18.97589874267578,-50.6181526184082,-20.2413272857666,9.155587196350098
0,576958,2.3893861770629883,7.486374855041504,-13.629536628723145,64.55453491210938
0,576961,16.778812408447266,28.73617935180664,-9.583599090576172,-8.049603462219238
0,576962,24.620553970336914,-1.9210829734802246,-3.2445034980773926,29.21942138671875
0,576965,-8.102350234985352,-26.122703552246094,23.215370178222656,-11.391204833984375
0,576966,-48.679805755615234,2.6707704067230225,9.365074157714844,-101.64004516601562
0,576969,24.194881439208984,12.588726043701172,-40.83795166015625,19.924598693847656
0,576970,9.237236976623535,0.353988915681839,-5.60658597946167,33.749176025390625
0,576973,-15.8931245803833,28.804471969604492,58.543399810791016,5.580074310302734
0,576974,15.692877769470215,-23.60396385192871,-27.27113151550293,8.82601261138916
0,576977,-0.018714524805545807,-21.45488929748535,-41.310035705566406,-33.4756965637207
0,576978,14.88814926147461,22.82869529724121,51.83873748779297,1.5316705703735352
0,576981,5.6124653816223145,22.472774505615234,5.808625221252441,19.87571144104004
0,576982,-34.12178421020508,-0.7044175267219543,-41.74880599975586,-0.047775596380233765
0,576985,-10.24582290649414,-1.5625500679016113,27.793954849243164,-16.498361587524414
0,576986,11.686395645141602,-9.780624389648438,8.84775161743164,-21.666942596435547
0,576989,-6.202564239501953,-33.98977279663086,-18.576416015625,35.64948272705078
0,576990,14.373815536499023,21.963281631469727,14.890792846679688,28.749601364135742
0,576993,6.750401496887207,17.606163024902344,-9.511393547058105,-29.598270416259766
0,576994,-2.557687759399414,-31.455835342407227,-21.92746925354004,5.925082683563232
0,576997,5.556352615356445,-26.505348205566406,-3.7766458988189697,16.598941802978516
0,576998,-6.790505409240723,19.61317253112793,21.780723571777344,-7.400731563568115
0,577001,2.5824551582336426,37.893516540527344,-8.633821487426758,-10.127477645874023
0,577003,8.996796607971191,-14.838150024414062,-16.25765037536621,-21.00194549560547
0,577005,-13.367452621459961,-17.101287841796875,30.37101173400879,1.7938332557678223
0,577007,2.3606932163238525,24.751745223999023,22.9426326751709,10.679675102233887
0,577009,25.099645614624023,8.835935592651367,-8.644824028015137,6.29688835144043
0,577011,-19.32965660095215,-24.48737907409668,-3.7058656215667725,6.558351039886475
0,577013,-10.56496810913086,-1.9374372959136963,-23.270978927612305,-79.47379302978516
0,577015,3.9136803150177,25.527219772338867,-11.256734848022461,-6.718461990356445
0,577018,-18.03087043762207,-3.677974224090576,35.58395004272461,152.06500244140625
0,577020,1.7895814180374146,-17.96410369873047,-5.420942306518555,-19.596961975097656
0,577020,-1.8983559608459473,-6.575537204742432,-10.083911895751953,-110.3740005493164
0,577023,4.1652445793151855,-19.171772003173828,-6.844351768493652,67.51500701904297
0,577024,7.110111713409424,-6.993235111236572,-26.610130310058594,79.94837951660156
0,577027,-4.743507385253906,-1.4208203554153442,-4.579071044921875,73.73161315917969
0,577028,10.458949089050293,7.664884567260742,30.734758377075195,17.533926010131836
0,577031,-3.762619972229004,39.26828384399414,10.531562805175781,-188.4667510986328
0,577032,4.830284118652344,11.222746849060059,4.375840187072754,-89.03974151611328
0,577035,-6.979163646697998,-8.084571838378906,16.380624771118164,36.70067596435547
0,577036,0.05001120641827583,5.810951232910156,-13.361823081970215,-42.229732513427734
0,577039,24.126062393188477,-8.514967918395996,2.720897674560547,7.977327346801758
0,577040,-16.46074867248535,-6.822387218475342,-12.001299858093262,42.76681900024414
0,577043,-18.978717803955078,-3.3312063217163086,-14.594879150390625,10.24422550201416
0,577044,27.05081558227539,8.240443229675293,14.890189170837402,24.487964630126953
0,577047,36.75227355957031,14.640039443969727,25.089372634887695,8.103480339050293
0,577048,-31.441972732543945,-29.163360595703125,-18.328033447265625,-13.58423137664795
0,577051,-34.02244186401367,-9.471193313598633,-45.27626037597656,50.56545639038086
0,577052,0.7075868248939514,4.575094223022461,6.138185977935791,45.085174560546875
0,577055,32.22966384887695,6.094388961791992,34.81733322143555,-28.607196807861328
0,577056,21.144407272338867,26.612791061401367,-2.5183799266815186,-16.223487854003906
0,577059,-45.994564056396484,-20.191322326660156,-26.465492248535156,-8.925209999084473
0,577060,-7.9158406257629395,-4.800328254699707,20.28065299987793,-11.873927116394043
0,577063,16.796245574951172,15.784640312194824,7.830399036407471,-16.91895294189453
0,577064,-0.6032994985580444,-21.235164642333984,1.8037551641464233,-38.16764450073242
0,577067,-5.535834312438965,9.01315975189209,14.594244003295898,-24.908971786499023
0,577068,-3.5168232917785645,15.602124214172363,-26.835660934448242,46.45188522338867
0,577071,17.613988876342773,3.4339616298675537,-8.122098922729492,30.963024139404297
0,577072,-4.370314121246338,-7.140398025512695,35.44450759887695,-28.032310485839844
0,577075,-25.69789695739746,-61.413177490234375,-45.56547546386719,49.89748001098633
0,577076,10.060644149780273,-13.598130226135254,-35.12234878540039,65.92884063720703
0,577079,21.831804275512695,59.19220733642578,98.81269073486328,-34.52443313598633
0,577080,-29.017623901367188,80.59648895263672,52.89030838012695,-21.26714515686035
0,577083,-0.5574020743370056,-32.70179748535156,-82.97709655761719,-7.130214214324951
0,577084,36.74913024902344,-92.65093231201172,-45.800846099853516,-108.84761047363281
0,577087,-4.093494892120361,54.93475341796875,29.349851608276367,-24.6755428314209
0,577088,0.8540714383125305,19.95671844482422,-17.99070167541504,71.20954895019531
0,577091,1.8328548669815063,-28.758657455444336,29.36331558227539,4.182814598083496
0,577092,-8.011351585388184,5.369994163513184,32.8705940246582,30.588647842407227
0,577095,13.328954696655273,-33.357154846191406,-55.276466369628906,70.9512939453125
0,577096,-15.894305229187012,-0.5481027960777283,2.298929452896118,-9.298921585083008
0,577099,-17.046199798583984,13.360530853271484,8.662381172180176,-55.653865814208984
0,577100,24.03002166748047,1.3788390159606934,-18.46724510192871,-17.466672897338867
0,577103,-6.416103363037109,16.725820541381836,37.28960037231445,-26.994258880615234
0,577104,-1.576213002204895,-2.202244281768799,14.947568893432617,28.61863136291504
0,577107,1.5546225309371948,-1.3382529020309448,-14.377392768859863,16.08043098449707
0,577108,-30.610870361328125,-7.118119239807129,-5.323241710662842,-107.46147918701172
0,577111,9.125483512878418,-6.151240348815918,-13.959596633911133,7.685820579528809
0,577112,5.331675052642822,8.39721393585205,26.091516494750977,100.02259826660156
0,577115,-2.52280330657959,15.464866638183594,-5.815690517425537,-2.012303352355957
0,577116,41.91167449951172,24.63475799560547,-67.63153076171875,47.13203811645508
0,577119,7.284665584564209,-4.326935768127441,37.77238464355469,39.725494384765625
0,577120,-5.8409342765808105,-47.36674499511719,49.13337326049805,-68.92013549804688
0,577123,-11.584808349609375,-21.305583953857422,-51.99403381347656,18.28289031982422
0,577124,-39.0776252746582,64.28072357177734,-25.045053482055664,69.2856674194336
0,577127,-3.117530107498169,36.29638671875,31.515024185180664,-109.71653747558594
0,577128,16.532440185546875,-41.84043884277344,-4.3107075691223145,-118.83552551269531
0,577131,1.6818881034851074,-36.576480865478516,17.21598243713379,0.8535506129264832
0,577132,-9.376991271972656,-3.3188247680664062,58.282840728759766,-67.62197875976562
0,577135,-1.944265365600586,26.85823631286621,-22.03099822998047,122.83406829833984
0,577136,27.077938079833984,6.92905855178833,-35.615299224853516,200.5126953125
0,577139,26.60684585571289,-11.77542781829834,15.482189178466797,-45.52843475341797
0,577140,-26.69586181640625,-19.085128784179688,-2.145028829574585,-64.74348449707031
0,577143,-35.734642028808594,-34.25282669067383,-43.480255126953125,-96.18846893310547
0,577144,-16.807619094848633,10.533637046813965,-43.580665588378906,-41.22736740112305
0,577147,40.13535690307617,65.99279022216797,36.96099853515625,136.95196533203125
0,577148,81.30250549316406,70.86685943603516,85.91610717773438,184.67771911621094
0,577151,-35.9184455871582,-64.53113555908203,-9.730547904968262,118.43067932128906
0,577152,-47.18128204345703,-77.59770965576172,-61.4383544921875,-187.53517150878906
0,577155,-6.9151506423950195,55.22648620605469,-7.868819713592529,-442.2817687988281
0,577156,-67.16927337646484,-11.908341407775879,24.752544403076172,-196.15882873535156
0,577159,59.5729866027832,-32.5754280090332,21.322065353393555,311.853515625
0,577160,91.27928161621094,39.02389144897461,-9.47701644897461,377.2574462890625
0,577163,-44.55318832397461,38.34446334838867,7.383977890014648,-4.71757173538208
0,577164,-24.975421905517578,-13.203633308410645,20.77003288269043,-114.59629821777344
0,577167,4.12794303894043,-42.815853118896484,-16.44707489013672,-39.92806625366211
0,577168,-14.431379318237305,-16.645029067993164,-19.420822143554688,-92.97193145751953
0,577171,-17.68828010559082,-20.5198974609375,-10.469389915466309,32.53272247314453
0,577172,14.58395767211914,15.7905912399292,-2.2384872436523438,70.68852996826172
0,577175,37.985252380371094,37.59892272949219,-9.878583908081055,-23.577476501464844
0,577176,-4.3036956787109375,53.94575119018555,42.68462371826172,-52.347347259521484
0,577179,-34.372745513916016,9.504242897033691,44.6975212097168,-67.52213287353516
0,577180,-8.735901832580566,-85.55813598632812,-22.666200637817383,80.2301254272461
0,577183,18.875335693359375,24.800670623779297,-58.260433197021484,63.70930862426758
0,577184,7.14289665222168,32.13434982299805,-99.26981353759766,-55.459442138671875
0,577187,-11.06027889251709,-76.22457122802734,49.137203216552734,3.4994568824768066
0,577188,-23.122106552124023,-4.710867404937744,118.72855377197266,70.81330108642578
0,577191,15.543145179748535,49.0531120300293,-25.8837947845459,18.804824829101562
0,577192,87.2900619506836,27.794584274291992,-26.600738525390625,-54.23884963989258
0,577195,-22.611356735229492,-25.703176498413086,-9.027738571166992,5.796393394470215
0,577196,-94.57035827636719,-29.03273582458496,-23.205127716064453,-33.021636962890625
0,577199,28.331281661987305,32.17780685424805,41.28438186645508,-76.91465759277344
0,577201,40.0319938659668,6.681698799133301,34.79854202270508,101.1076889038086
0,577204,-42.79867935180664,-12.518575668334961,-30.90110206604004,24.87215805053711
0,577205,-30.305177688598633,-3.0737154483795166,-18.762041091918945,-204.7489013671875
0,577206,46.06897735595703,-13.720335006713867,21.202821731567383,-171.588134765625
0,577209,0.7802321314811707,-12.059662818908691,-16.226306915283203,127.50402069091797
0,577210,-13.449664115905762,9.270882606506348,-19.76185417175293,269.8621520996094
0,577213,24.162973403930664,19.9571533203125,37.45494079589844,59.467872619628906
0,577214,-11.208253860473633,-14.445879936218262,-5.769721031188965,-3.2074038982391357
0,577217,8.69915771484375,24.735349655151367,-29.7119140625,-33.88072204589844
0,577218,9.958959579467773,35.472835540771484,13.364200592041016,-39.46805191040039
0,577221,-24.231367111206055,-50.49771499633789,-11.749369621276855,22.463716506958008
0,577222,-11.556893348693848,-33.827205657958984,-11.20009994506836,72.63569641113281
0,577225,33.643951416015625,39.64863204956055,34.08487319946289,-45.0694465637207
0,577226,19.138004302978516,23.153573989868164,15.775016784667969,-285.63494873046875
0,577229,-20.097421646118164,-38.13996887207031,-16.793899536132812,-230.5371551513672
0,577230,-6.0071516036987305,-21.452049255371094,-32.122074127197266,138.03819274902344
0,577233,-19.896160125732422,26.051557540893555,25.64101219177246,475.27880859375
0,577234,-3.416693925857544,23.12709617614746,42.21675109863281,128.85153198242188
0,577237,22.062755584716797,17.66718864440918,-71.65625762939453,-338.87841796875
0,577238,1.6672896146774292,-20.805843353271484,-13.134391784667969,-141.69554138183594
0,577241,-29.244956970214844,-34.052894592285156,59.79290771484375,47.9333381652832
0,577242,-21.019657135009766,-5.000170707702637,-10.910348892211914,21.490867614746094
0,577245,58.92446517944336,-0.5464734435081482,18.948904037475586,64.86222839355469
0,577246,29.359769821166992,45.064083099365234,32.1685676574707,34.829959869384766
0,577249,-73.40967559814453,10.764301300048828,-73.60202026367188,137.28697204589844
0,577250,-8.950831413269043,-24.36753273010254,-57.52831268310547,133.11865234375
0,577253,61.08572769165039,-1.2474796772003174,53.08220672607422,-80.64157104492188
0,577254,-17.16180992126465,-14.955004692077637,54.81066131591797,-132.25021362304688
0,577257,-46.41264724731445,0.36929139494895935,-24.83856964111328,-205.58567810058594
0,577258,-1.5413262844085693,-7.65202522277832,-32.6314697265625,-187.43124389648438
0,577261,58.24207305908203,-0.6054398417472839,35.90347671508789,33.741947174072266
0,577262,49.55628967285156,13.133437156677246,28.387292861938477,166.78497314453125
0,577265,-50.445556640625,4.561324596405029,-11.379603385925293,204.93002319335938
0,577266,-19.164852142333984,16.054492950439453,-11.073943138122559,176.22610473632812
0,577269,14.68459701538086,-13.016772270202637,1.5322356224060059,-128.7184600830078
0,577270,-35.1588134765625,-38.25928497314453,-8.278926849365234,-234.88243103027344
0,577273,-3.646759033203125,28.84587860107422,-40.00442123413086,32.29725646972656
0,577274,43.35014724731445,70.67374420166016,6.837324619293213,75.62561798095703
0,577277,15.196684837341309,15.226945877075195,55.43965148925781,-25.90819549560547
0,577278,-35.579917907714844,-60.078277587890625,-25.989757537841797,2.438161849975586
0,577281,-7.275611877441406,-71.64066314697266,-23.55821418762207,91.84502410888672
0,577282,-2.6486642360687256,-26.305744171142578,25.451688766479492,60.8007698059082
0,577285,-10.345643997192383,54.45583724975586,-21.02054786682129,-120.45325469970703
0,577286,44.20928955078125,110.13827514648438,19.205564498901367,-156.49195861816406
0,577289,6.716200351715088,-44.959144592285156,3.443368673324585,-107.73202514648438
0,577290,-41.910160064697266,-107.94754028320312,-30.696924209594727,-28.258939743041992
0,577293,15.155966758728027,26.623493194580078,34.781951904296875,424.2728271484375
0,577294,6.568655014038086,19.4591121673584,-43.66896438598633,299.4279479980469
0,577297,-10.347601890563965,20.066057205200195,-47.21076965332031,-568.0382690429688
0,577298,4.771394729614258,-4.750662803649902,67.25421905517578,-329.1910400390625
0,577301,1.854723334312439,-17.9847469329834,38.60279846191406,538.7055053710938
0,577302,25.2908992767334,65.19762420654297,-20.502347946166992,304.1911315917969
0,577305,-37.58750534057617,-2.3329334259033203,-28.65302848815918,-345.03436279296875
0,577306,-45.227115631103516,-38.17494201660156,14.301462173461914,-304.6584777832031
0,577309,53.97341537475586,22.26812744140625,55.4567756652832,200.39564514160156
0,577310,20.628795623779297,-4.961714744567871,-20.643705368041992,249.0136260986328
0,577313,-14.938302993774414,-73.46717071533203,-36.88966751098633,-128.5117645263672
0,577314,-0.12807530164718628,-1.4583371877670288,11.701981544494629,-41.313331604003906
0,577317,-8.624332427978516,137.68704223632812,32.85713195800781,8.4207763671875
0,577318,32.74357223510742,15.573098182678223,21.320798873901367,-198.00741577148438
0,577321,-33.40618133544922,-153.51846313476562,-65.9882583618164,-102.57431030273438
0,577322,-74.67193603515625,-49.25088882446289,-43.39067840576172,209.9167022705078
0,577325,90.0547103881836,93.49695587158203,-2.653982400894165,330.71551513671875
0,577326,64.15970611572266,31.077068328857422,-0.5554053783416748,-91.1947250366211
0,577329,-89.91683197021484,-43.236568450927734,51.32435989379883,-410.1048278808594
0,577330,-38.86940002441406,24.225374221801758,45.58280944824219,16.431983947753906
0,577333,57.36669158935547,64.78752899169922,-14.1055326461792,290.45220947265625
0,577334,14.706196784973145,-13.993298530578613,-47.290260314941406,-34.19107437133789
0,577337,-42.96244812011719,-60.11427307128906,-8.13058090209961,-0.9647580981254578
0,577338,31.648944854736328,0.8959598541259766,55.628318786621094,116.89547729492188
0,577341,19.2208194732666,-14.563362121582031,16.661989212036133,-210.63047790527344
0,577342,-57.30741500854492,-44.06715393066406,-31.928537368774414,-252.63076782226562
0,577345,34.04722213745117,93.84529113769531,-3.2458503246307373,270.621337890625
0,577347,46.73871612548828,63.76859664916992,-20.4278621673584,367.7660217285156
0,577349,-44.0300407409668,-97.91414642333984,-1.391405463218689,-273.8518981933594
0,577351,-9.774852752685547,2.3951313495635986,52.28246307373047,-316.6346740722656
0,577353,0.6935007572174072,21.2065372467041,-10.46025562286377,170.983642578125
0,577355,-25.13799285888672,-60.06128692626953,-44.208274841308594,259.2787170410156
0,577357,13.314878463745117,12.225780487060547,-6.065372467041016,-24.35877799987793
0,577359,30.323898315429688,43.63353729248047,3.6932218074798584,-221.9733428955078
0,577361,-8.655348777770996,-22.509807586669922,19.59493637084961,-50.62898635864258
0,577363,-11.455188751220703,-17.027128219604492,32.030029296875,114.51229095458984
0,577365,17.049924850463867,62.17782974243164,-19.62069320678711,152.1370086669922
0,577367,-11.180428504943848,36.40431594848633,-30.601085662841797,0.3546251654624939
0,577369,-24.945236206054688,-51.32542037963867,-41.58237075805664,-348.3843078613281
0,577371,3.2928719520568848,-72.24600219726562,-27.119638442993164,-156.3542022705078
0,577373,-17.118223190307617,-4.4461989402771,101.32101440429688,359.326171875
0,577375,24.01299476623535,48.04853820800781,23.050779342651367,174.60887145996094
0,577377,68.03040313720703,16.523595809936523,-54.66604995727539,-182.53829956054688
0,577379,-17.81827735900879,10.652358055114746,14.37448787689209,-64.54318237304688
0,577382,-47.20930862426758,6.465985298156738,13.168551445007324,86.23294067382812
0,577383,-1.3541879653930664,-29.34303092956543,8.26086139678955,8.971722602844238
0,577384,-15.59512710571289,-31.741439819335938,-25.099946975708008,80.89329528808594
0,577387,-7.2910590171813965,46.71770095825195,-5.394609451293945,65.67359161376953
0,577388,62.64595031738281,61.16422653198242,70.58287811279297,-200.20962524414062
0,577391,12.436540603637695,-48.12890625,-10.181845664978027,-120.34161376953125
0,577392,-38.726016998291016,-53.360843658447266,-89.5667953491211,29.940460205078125
0,577395,-7.316184043884277,-45.3458137512207,-9.43244743347168,100.20447540283203
0,577396,-2.417034864425659,0.05427391082048416,20.567264556884766,69.9301986694336
0,577399,8.913053512573242,85.13883209228516,8.563597679138184,-23.10559844970703
0,577402,19.852535247802734,32.5654296875,28.045867919921875,79.06682586669922
0,577403,-17.193927764892578,-25.358272552490234,-17.411842346191406,6.6536664962768555
0,577405,-37.3817024230957,-23.963891983032227,-61.593780517578125,-91.2171859741211
0,577407,33.68974304199219,29.11130714416504,59.174095153808594,-122.52734375
0,577409,22.69307518005371,17.926008224487305,93.24163818359375,-118.68106079101562
0,577411,-34.6933479309082,-47.46733093261719,-45.23820114135742,195.49456787109375
0,577413,-0.8440389633178711,6.115009307861328,-71.79457092285156,214.9384307861328
0,577415,14.544952392578125,17.041866302490234,16.22886848449707,-128.13925170898438
0,577417,-8.706911087036133,-8.199885368347168,18.837940216064453,-143.8407745361328
0,577419,-7.494239807128906,1.9853044748306274,-3.9513180255889893,68.52728271484375
0,577421,16.06465721130371,-21.09621810913086,43.368927001953125,80.65662384033203
0,577423,30.186670303344727,27.54343032836914,-5.7861223220825195,-177.07577514648438
0,577425,4.7636189460754395,9.283624649047852,-46.24016571044922,-158.9979705810547
0,577427,-35.63103485107422,-61.16995620727539,5.518685817718506,270.9342346191406
0,577429,-23.271677017211914,-26.274799346923828,-8.55113697052002,221.45213317871094
0,577431,-0.04742708429694176,47.70465087890625,-17.02027702331543,-111.26725769042969
0,577433,3.1070938110351562,54.2364501953125,35.529232025146484,-71.9797592163086
0,577435,35.00553512573242,-19.05208969116211,19.22286033630371,-46.616600036621094
0,577437,20.17852783203125,-19.95285987854004,-12.726866722106934,-85.25685119628906
0,577439,-42.874271392822266,-0.730868399143219,-18.944910049438477,-58.67083740234375
0,577441,-2.4705617427825928,18.016416549682617,19.13117790222168,93.67900848388672
0,577443,7.6868367195129395,-20.26416015625,13.094344139099121,214.1922607421875
0,577445,-30.04986000061035,-39.55742263793945,-35.39497756958008,58.099857330322266
0,577447,36.79326629638672,61.33987045288086,24.679672241210938,-303.1168212890625
0,577449,36.902217864990234,14.055097579956055,40.68424606323242,-251.3389434814453
0,577451,-29.3153076171875,-43.09787368774414,-18.434337615966797,261.93951416015625
0,577453,1.5518289804458618,14.706281661987305,-73.04319763183594,195.2067108154297
0,577455,-21.636938095092773,-1.0283819437026978,-60.45147705078125,-109.0815200805664
0,577457,-38.451541900634766,-29.97551727294922,41.50086212158203,54.73386764526367
0,577459,63.07268524169922,22.91223907470703,61.14668655395508,59.65852355957031
0,577461,10.904029846191406,14.767003059387207,4.654054641723633,-137.1285400390625
0,577463,-63.93183517456055,-42.260650634765625,-15.864706039428711,-7.3883771896362305
0,577465,19.949649810791016,30.319480895996094,5.142361164093018,126.20887756347656
0,577467,36.878089904785156,32.31117630004883,19.669191360473633,-22.42585563659668
0,577469,-21.48570442199707,-36.69318389892578,7.609457492828369,-80.52979278564453
0,577471,-29.38311195373535,-16.819244384765625,-16.1402530670166,12.861214637756348
0,577473,11.953688621520996,17.540952682495117,-35.589290618896484,-23.912382125854492
0,577475,35.537986755371094,15.272737503051758,40.5174674987793,-119.46208953857422
0,577477,-0.36267319321632385,-25.65597152709961,38.123104095458984,-35.50954818725586
0,577479,-9.081130981445312,31.447254180908203,-49.44994354248047,121.93931579589844
0,577481,14.28909969329834,47.22377395629883,-11.610570907592773,53.51044845581055
0,577483,-22.166202545166016,-87.90833282470703,4.098744869232178,-4.824482440948486
0,577485,-36.18498229980469,-40.864078521728516,3.9190640449523926,29.65411949157715
0,577487,44.25556945800781,49.43663024902344,-8.55809497833252,56.958499908447266
0,577489,35.3708610534668,-18.411054611206055,-25.152544021606445,28.633785247802734
0,577491,-48.10899353027344,-1.3077752590179443,26.056949615478516,-95.0794906616211
0,577493,-13.810713768005371,49.45045471191406,8.122174263000488,-66.70072174072266
0,577495,25.190837860107422,32.201499938964844,-5.703493118286133,59.53211975097656
0,577497,16.272817611694336,12.222249031066895,35.59218978881836,32.82908630371094
0,577499,-23.219032287597656,-31.0147705078125,6.934471130371094,-204.0103759765625
0,577501,-37.85576248168945,-66.27002716064453,-42.08116149902344,-122.45015716552734
0,577503,26.050642013549805,-7.343077182769775,-32.301753997802734,252.27816772460938
0,577505,24.45401954650879,50.220252990722656,-10.244413375854492,148.74473571777344
0,577507,-13.009443283081055,34.67046356201172,24.675880432128906,-115.04806518554688
0,577509,-20.002037048339844,-18.666038513183594,52.08393096923828,-27.28061294555664
0,577511,9.954473495483398,-32.98862838745117,20.462553024291992,98.83537292480469
0,577513,34.843597412109375,9.925596237182617,-16.614728927612305,24.13523292541504
0,577515,-12.909177780151367,18.228004455566406,-24.096027374267578,-134.05116271972656
0,577517,-24.75745964050293,-4.993773460388184,-12.8550443649292,-160.4839324951172
0,577519,6.159572601318359,-25.875885009765625,-8.767574310302734,67.23709106445312
0,577521,18.88007164001465,2.1425466537475586,14.913256645202637,241.70799255371094
0,577523,8.005562782287598,26.671010971069336,15.15098762512207,41.94628143310547
0,577525,-12.38051700592041,4.964160442352295,-26.329980850219727,-157.7372589111328
0,577527,-6.851672649383545,-11.0206298828125,-20.232847213745117,-114.70276641845703
0,577529,-4.872197151184082,-38.131683349609375,10.541709899902344,-4.772246360778809
0,577531,5.1968817710876465,22.5805606842041,34.458465576171875,128.19537353515625
0,577533,36.21245193481445,62.74361801147461,-5.13985013961792,86.82884979248047
0,577535,-32.62473678588867,-59.28225326538086,-11.242776870727539,-103.87408447265625
0,577537,-46.437496185302734,-65.38044738769531,8.290346145629883,-24.2950439453125
0,577539,40.119537353515625,68.75801849365234,-7.363516807556152,94.90351104736328
0,577541,7.689126491546631,51.99357223510742,28.515695571899414,-0.86549973487854
0,577543,-14.679093360900879,-63.32493591308594,-43.58810043334961,-125.89952850341797
0,577545,15.096327781677246,-18.32777976989746,-14.05169677734375,-77.51101684570312
0,577547,9.791044235229492,59.19758224487305,67.75113677978516,80.29371643066406
0,577549,-15.995474815368652,-0.9485592842102051,-41.76511764526367,54.50455856323242
0,577551,-7.5414934158325195,-40.7738037109375,-16.273550033569336,38.59134292602539
0,577553,-7.852525234222412,-28.1920166015625,13.8171968460083,44.301143646240234
0,577555,9.492928504943848,2.623290777206421,2.0990452766418457,-64.73418426513672
0,577557,16.220355987548828,23.75982093811035,27.778186798095703,-71.69029235839844
0,577559,-0.8659519553184509,32.72179412841797,-38.152366638183594,37.94105529785156
0,577561,4.869908332824707,20.62466049194336,-4.603762149810791,40.27064895629883
0,577563,-29.24188995361328,-47.272823333740234,39.03228759765625,-13.96096420288086
0,577565,-3.200591802597046,-10.407581329345703,-18.915206909179688,17.684911727905273
0,577567,40.02959060668945,55.49755859375,5.783797264099121,27.062238693237305
0,577569,1.4502841234207153,-20.47405433654785,1.9330142736434937,-3.989002227783203
0,577571,-19.22332191467285,-15.719218254089355,-16.714014053344727,-162.67074584960938
0,577573,2.2262940406799316,20.22767448425293,55.12698745727539,-261.57635498046875
0,577575,-23.460729598999023,-48.05843734741211,-49.8995361328125,242.3450164794922
0,577577,-5.499719619750977,6.667530059814453,-98.16661071777344,391.07354736328125
0,577579,41.02010726928711,78.11474609375,71.63133239746094,-128.23614501953125
0,577581,-0.7683491110801697,-8.599922180175781,50.83064270019531,-122.97022247314453
0,577584,-34.186683654785156,-91.98067474365234,-2.5415961742401123,-17.13810157775879
0,577585,7.47663688659668,-12.334531784057617,-6.292701244354248,-35.24782180786133
0,577586,-9.871295928955078,52.88502883911133,-46.5549201965332,58.52237319946289
0,577589,-20.695201873779297,8.697362899780273,12.73836898803711,11.109058380126953
0,577590,35.51329803466797,-5.763082981109619,39.87247085571289,4.862069129943848
0,577593,15.746505737304688,10.309425354003906,12.933186531066895,18.197612762451172
0,577594,-20.40655517578125,-4.2963433265686035,-36.101417541503906,-25.05352783203125
0,577597,-13.660643577575684,-27.20044708251953,-31.00832748413086,-26.71220588684082
0,577598,25.206003189086914,23.744121551513672,53.16303634643555,-11.53537654876709
0,577601,21.776309967041016,5.799367427825928,15.567758560180664,-24.47370147705078
0,577602,-15.963311195373535,-18.331512451171875,-37.03700256347656,-24.86530303955078
0,577605,-15.176570892333984,35.59349060058594,10.864969253540039,38.69335174560547
0,577606,5.56063175201416,-12.859562873840332,-10.565727233886719,41.671199798583984
0,577609,22.22888946533203,-11.526315689086914,-5.273869514465332,21.2258243560791
0,577613,0.6619116067886353,14.772340774536133,38.1989631652832,-44.339500427246094
0,577613,-28.022499084472656,-38.43512725830078,-35.904502868652344,-100.13011169433594
0,577614,-0.2210305780172348,1.529824137687683,-22.744287490844727,-4.8808274269104
0,577617,27.89720916748047,9.194879531860352,20.381322860717773,137.58717346191406
0,577618,-16.24385643005371,-14.75833797454834,2.1392879486083984,133.08709716796875
0,577621,-17.053831100463867,33.47874069213867,15.40839958190918,-158.75791931152344
0,577622,2.0241966247558594,0.2724565267562866,4.852014064788818,-101.6245346069336
0,577625,9.867598533630371,-38.29734420776367,5.592172622680664,161.1416473388672
0,577626,29.176647186279297,15.235968589782715,-11.668460845947266,7.409545421600342
0,577629,-19.365745544433594,26.342891693115234,-26.693973541259766,-79.1073989868164
0,577630,-18.324874877929688,-4.1858954429626465,19.223283767700195,43.09681701660156
0,577633,18.32172203063965,-1.1877796649932861,24.894617080688477,-4.685616493225098
0,577634,8.092238426208496,14.602375030517578,-30.936580657958984,-56.18054962158203
0,577637,-25.558879852294922,13.510395050048828,-13.7978515625,8.264698028564453
0,577638,-9.464118957519531,-15.420337677001953,42.99203872680664,13.120235443115234
0,577641,23.364582061767578,-23.960845947265625,-2.305548667907715,12.167258262634277
0,577642,-27.677595138549805,-14.140080451965332,-37.698909759521484,-14.207148551940918
0,577645,-1.4430937767028809,1.0951727628707886,-9.501896858215332,-35.007606506347656
0,577646,37.76842498779297,33.71210861206055,11.433684349060059,-8.780686378479004
0,577649,-1.9468055963516235,-9.133964538574219,3.8141379356384277,-68.02720642089844
0,577650,-0.36498209834098816,-30.28667449951172,4.87869119644165,33.999420166015625
0,577653,-24.90894889831543,18.785463333129883,16.47440528869629,215.35894775390625
0,577654,7.070342540740967,19.12154769897461,13.107046127319336,22.519237518310547
0,577657,25.1971435546875,-7.180334091186523,-3.844381093978882,-127.78680419921875
0,577658,-51.66671371459961,-22.534198760986328,-29.956722259521484,-39.66453552246094
0,577661,3.7790980339050293,22.53177261352539,-20.700782775878906,-17.663164138793945
0,577662,52.788475036621094,19.066665649414062,5.570422172546387,8.728080749511719
0,577665,-14.03101634979248,-24.14438819885254,14.734318733215332,60.27063751220703
0,577666,-11.779159545898438,11.850303649902344,7.839621067047119,-33.63727569580078
0,577669,11.518769264221191,23.84914779663086,9.769852638244629,-23.79726791381836
0,577670,-12.897767066955566,-31.443572998046875,8.800623893737793,-28.265846252441406
0,577673,-16.373809814453125,-39.93122100830078,-25.692840576171875,-30.792680740356445
0,577674,5.676905632019043,4.737329006195068,-13.840547561645508,156.89492797851562
0,577677,36.957977294921875,39.53398132324219,53.10739517211914,-5.82164192199707
0,577678,8.967710494995117,22.625547409057617,5.098366737365723,-95.52201080322266
0,577681,-14.206364631652832,-37.362152099609375,-29.100894927978516,27.594181060791016
0,577682,-14.720953941345215,-1.0984658002853394,20.925264358520508,9.636028289794922
0,577685,-27.583980560302734,-0.6959322094917297,-56.404945373535156,-7.6792426109313965
0,577686,7.698494911193848,-12.21728801727295,-17.661514282226562,-9.668442726135254
0,577689,31.310945510864258,40.36271667480469,98.07372283935547,12.748884201049805
0,577690,-17.625301361083984,-2.759720802307129,-32.340824127197266,-5.90415620803833
0,577693,-35.023529052734375,-39.60499572753906,-59.664817810058594,2.8553144931793213
0,577694,17.942123413085938,-11.85836124420166,34.434669494628906,-0.8971390128135681
0,577697,20.309738159179688,37.78688430786133,12.929100036621094,-19.40546226501465
0,577698,3.615670680999756,20.387073516845703,10.014668464660645,-14.40594482421875
0,577701,5.348433971405029,-31.117937088012695,-1.2458816766738892,1.9870481491088867
0,577702,-17.40140151977539,-12.708297729492188,-14.10264778137207,34.77842712402344
0,577705,-8.704327583312988,-0.11234356462955475,-8.356620788574219,1.2533934116363525
0,577706,19.244674682617188,11.58267593383789,-1.9678328037261963,-6.2670063972473145
0,577709,12.843958854675293,13.339529037475586,24.283418655395508,-7.130729675292969
0,577710,-8.032994270324707,11.0698881149292,-8.684798240661621,-19.952665328979492
0,577713,1.6240769624710083,6.432703971862793,-15.522259712219238,35.52615737915039
0,577714,26.140344619750977,-6.954312801361084,-9.442095756530762,47.79231262207031
0,577717,-23.270492553710938,-17.5238094329834,-17.971006393432617,-34.70355224609375
0,577718,-44.379146575927734,-11.687421798706055,42.52286911010742,-96.40200805664062
0,577721,29.92766761779785,20.038541793823242,-0.9897452592849731,14.804240226745605
0,577722,9.530220985412598,2.4638631343841553,-33.53725051879883,44.40141677856445
0,577725,-37.00031280517578,-20.307268142700195,51.557926177978516,9.858831405639648
0,577726,21.047513961791992,-5.565524101257324,25.95792007446289,62.27726745605469
0,577729,31.38489532470703,39.51664733886719,-34.63420867919922,-18.13282012939453
0,577730,-8.775792121887207,4.389855861663818,-20.412755966186523,-31.172517776489258
0,577733,-23.206724166870117,-51.25199508666992,-7.102683067321777,-27.202173233032227
0,577734,3.3573572635650635,7.855399131774902,24.772441864013672,-17.459341049194336
0,577737,6.785592555999756,1.1571424007415771,2.717329263687134,48.06734085083008
0,577738,-23.625728607177734,-8.386139869689941,-42.42438888549805,6.600250720977783
0,577741,22.235502243041992,44.36387252807617,26.30175018310547,2.7931296825408936
0,577742,25.403348922729492,11.064926147460938,24.47907829284668,-5.976153373718262
0,577745,-24.125476837158203,-23.156145095825195,-43.20326614379883,-33.98612594604492
0,577746,9.130082130432129,-9.74621295928955,-6.451081275939941,4.161907196044922
0,577749,16.75347900390625,3.412064552307129,24.776947021484375,12.239204406738281
0,577750,-20.03045082092285,5.638792514801025,12.146035194396973,-15.854554176330566
0,577753,-19.05362319946289,-8.993640899658203,-14.081066131591797,3.7522621154785156
0,577754,10.66510009765625,-0.8397927284240723,3.177800416946411,19.18845558166504
0,577757,0.4278031289577484,3.2693541049957275,25.061620712280273,-35.791744232177734
0,577758,-15.87706470489502,-17.86339569091797,-25.073301315307617,14.582792282104492
0,577761,13.240067481994629,-19.25844955444336,0.9353066682815552,66.88742065429688
0,577762,9.085881233215332,18.28483009338379,-1.0870369672775269,-42.922027587890625
0,577765,-5.121859073638916,22.107830047607422,-12.613795280456543,-42.520023345947266
0,577766,-17.35919761657715,-30.323486328125,30.376848220825195,15.9417724609375
0,577769,-0.7821841835975647,11.369582176208496,-8.713027954101562,34.52376174926758
0,577770,20.698482513427734,26.341726303100586,-22.771032333374023,23.87067985534668
0,577773,7.888193607330322,-7.1173906326293945,16.007402420043945,-36.03574752807617
0,577774,-12.905789375305176,6.93997049331665,2.5323362350463867,-30.576631546020508
0,577777,-12.594947814941406,-18.44207763671875,-26.834081649780273,-5.442749977111816
0,577778,38.94459533691406,2.6281604766845703,26.829126358032227,27.619949340820312
0,577781,13.573946952819824,23.768733978271484,25.66830062866211,41.784942626953125
0,577782,-42.43934631347656,-14.563077926635742,-38.061092376708984,-40.6298828125
0,577785,-14.685830116271973,-4.282895088195801,-1.6134663820266724,-37.13566970825195
0,577786,23.410728454589844,11.012974739074707,25.712379455566406,60.65960693359375
0,577789,1.045201063156128,-27.393699645996094,-12.506964683532715,-0.7872467041015625
0,577790,-4.823223114013672,0.46272504329681396,-14.264093399047852,-51.68967056274414
0,577793,29.065324783325195,30.848228454589844,28.21514892578125,33.06418991088867
0,577794,-10.10706615447998,-6.336935520172119,7.805331707000732,10.032398223876953
0,577797,-37.478267669677734,7.140797138214111,-25.580551147460938,-21.27167510986328
0,577798,-12.951757431030273,2.068530797958374,8.368983268737793,38.9213752746582
0,577801,16.99611473083496,-30.3991756439209,-15.556026458740234,-16.185394287109375
0,577802,12.715938568115234,3.3673574924468994,-24.25245475769043,-44.28532409667969
0,577805,3.1880156993865967,24.054555892944336,29.805984497070312,49.27726745605469
0,577806,22.818702697753906,-9.03459644317627,2.7237191200256348,53.28218460083008
0,577809,-26.897432327270508,-32.86251449584961,-1.7320778369903564,-20.22977638244629
0,577810,-15.659014701843262,12.303912162780762,11.666011810302734,-55.602569580078125
0,577813,26.40953826904297,19.959184646606445,-26.70036506652832,-108.99152374267578
0,577815,-19.41382598876953,-21.94101905822754,12.445223808288574,15.617684364318848
0,577817,3.380502223968506,-13.953566551208496,12.682256698608398,171.83331298828125
0,577819,28.75787353515625,21.07497215270996,-23.79374885559082,-24.032318115234375
0,577821,-8.20989990234375,27.27103042602539,27.893266677856445,-66.17341613769531
0,577823,-16.595149993896484,-32.51799392700195,5.174388885498047,10.37795352935791
0,577825,1.1000014543533325,-1.3514574766159058,-5.775418758392334,-26.29892921447754
0,577827,8.379327774047852,47.21937561035156,-2.004676580429077,35.515541076660156
0,577829,-7.320777416229248,-17.417694091796875,-27.799314498901367,19.353273391723633
0,577831,-7.4031081199646,-16.9555721282959,25.209043502807617,-18.52777099609375
0,577836,17.847501754760742,12.331817626953125,-5.569143772125244,11.395389556884766
0,577836,0.3361126780509949,-22.466039657592773,-18.70899772644043,2.0014522075653076
0,577837,-16.357181549072266,11.812755584716797,40.36274337768555,-13.836492538452148
0,577839,21.388206481933594,29.61985206604004,-4.038862705230713,-17.17715072631836
0,577841,-6.222075939178467,-24.806516647338867,-33.73345947265625,-2.7117466926574707
0,577843,-29.489381790161133,-12.086748123168945,9.712299346923828,15.595311164855957
0,577845,13.80710506439209,-6.03182315826416,2.5440263748168945,-7.668428421020508
0,577847,35.525089263916016,-6.697953701019287,-14.395000457763672,-16.556819915771484
0,577849,-25.690570831298828,-13.296663284301758,0.8699692487716675,6.350029945373535
0,577851,-52.9332389831543,15.6093168258667,10.295588493347168,17.036544799804688
0,577853,41.4008674621582,49.61838912963867,15.677762985229492,18.246257781982422
0,577855,25.75882911682129,-14.15809440612793,4.907043933868408,0.19245989620685577
0,577857,-21.09991455078125,-3.6802237033843994,-11.278966903686523,-8.93076229095459
0,577859,3.791682243347168,-9.448028564453125,0.34290796518325806,-1.217185378074646
0,577861,9.221302032470703,-26.276832580566406,23.8424129486084,-23.58790397644043
0,577863,-0.5846288204193115,28.347951889038086,-27.149700164794922,-21.457759857177734
0,577865,1.8688651323318481,-20.937170028686523,-27.24367332458496,38.37679672241211
0,577867,-10.914164543151855,-17.87631607055664,31.688949584960938,29.930221557617188
0,577869,-6.538895130157471,66.294921875,11.667597770690918,-29.31941795349121
0,577871,13.926258087158203,0.5855879187583923,10.266542434692383,0.5677295327186584
0,577873,-2.9910473823547363,-52.409584045410156,-21.72735595703125,15.720081329345703
0,577875,-0.557767391204834,5.76926851272583,-52.08229064941406,-18.24089813232422
0,577877,-7.711851119995117,10.619683265686035,4.474454402923584,-24.48954200744629
0,577879,4.02103853225708,-29.82555389404297,38.68975067138672,-17.542760848999023
0,577881,14.043111801147461,38.14483642578125,21.079309463500977,49.23213577270508
0,577883,-5.035539627075195,89.98492431640625,-10.318791389465332,45.49238586425781
0,577885,-15.590723991394043,-79.37932586669922,-21.825977325439453,-66.32694244384766
0,577887,-7.725374698638916,-85.54195404052734,-4.501828193664551,-30.221845626831055
0,577889,22.104808807373047,87.77596282958984,31.373361587524414,58.48698043823242
0,577891,4.243165493011475,22.156238555908203,22.83571434020996,12.882730484008789
0,577893,-18.468408584594727,-55.431480407714844,-30.872772216796875,-24.088233947753906
0,577895,1.1293100118637085,-4.053452014923096,-12.105134010314941,-0.04843275621533394
0,577897,-12.29000186920166,-12.964564323425293,10.258444786071777,5.864583969116211
0,577899,-9.780570030212402,-18.374876022338867,-17.93846321105957,6.054723739624023
0,577901,22.337615966796875,32.14801025390625,19.26772117614746,-9.002018928527832
0,577903,10.831058502197266,37.22802734375,33.28413772583008,-13.775826454162598
0,577905,3.3061864376068115,-1.181570053100586,-19.02811050415039,21.08026695251465
0,577907,17.400358200073242,-5.832833290100098,-34.3662109375,-10.756973266601562
0,577909,-19.211795806884766,-9.142736434936523,-8.000540733337402,-11.902356147766113
0,577911,-15.44325065612793,-8.472862243652344,29.116411209106445,12.000040054321289
0,577913,32.39900207519531,0.06684593856334686,24.023698806762695,-24.9338321685791
0,577915,5.578820705413818,17.935285568237305,-23.365896224975586,7.398852825164795
0,577917,-9.656291007995605,7.871576309204102,-26.813247680664062,21.345415115356445
0,577919,-15.459898948669434,-36.27875518798828,15.878239631652832,3.525139331817627
0,577921,-21.6039981842041,7.610245704650879,28.45281410217285,-2.9819719791412354
0,577923,12.062378883361816,12.981996536254883,-18.246213912963867,-13.199459075927734
0,577925,1.514348030090332,-20.899925231933594,-30.134593963623047,13.150849342346191
0,577927,-20.1765193939209,3.290722131729126,17.761293411254883,1.7778621912002563
0,577929,15.272725105285645,-2.716188430786133,-71.6086196899414,8.959162712097168
0,577931,30.280424118041992,7.932335376739502,2.9078643321990967,1.2446563243865967
0,577933,-18.11157989501953,-2.5312955379486084,102.55851745605469,-39.98959732055664
0,577935,-29.672189712524414,-3.287522554397583,-20.254150390625,16.763517379760742
0,577937,18.596668243408203,20.2874755859375,13.122535705566406,26.777280807495117
0,577939,26.65778160095215,-7.676407814025879,-10.5787353515625,-26.754135131835938
0,577941,-11.296228408813477,1.8045073747634888,-14.255306243896484,-13.322453498840332
0,577943,-16.37004280090332,10.798733711242676,17.182308197021484,5.019925117492676
0,577945,30.577739715576172,2.431941270828247,14.77664852142334,13.037869453430176
0,577947,3.9731760025024414,-25.050813674926758,24.160215377807617,4.4599103927612305
0,577949,-53.8120002746582,-8.848634719848633,-35.060298919677734,-20.426414489746094
0,577951,11.154417037963867,37.89739990234375,-15.879786491394043,-4.968775272369385
0,577953,53.1622200012207,11.727640151977539,2.87750244140625,33.97490310668945
0,577955,-20.353031158447266,-28.914657592773438,-46.40801239013672,20.906970977783203
0,577957,-31.6704158782959,-27.751094818115234,8.458417892456055,-10.704870223999023
0,577959,36.928260803222656,39.2091178894043,81.25062561035156,-17.28074073791504
0,577961,-8.226741790771484,23.85500717163086,-31.364093780517578,-31.253742218017578
0,577963,-50.2629508972168,-41.92439651489258,-38.721771240234375,-56.23598098754883
0,577965,34.557044982910156,-12.138782501220703,38.869598388671875,84.52591705322266
0,577967,21.29523277282715,2.9664855003356934,-10.967507362365723,110.3926773071289
0,577969,-29.397188186645508,-6.998814105987549,-19.169265747070312,-136.76565551757812
0,577971,8.720565795898438,23.125728607177734,21.200721740722656,-43.2498664855957
0,577973,10.5330171585083,26.235219955444336,11.599690437316895,92.2721176147461
0,577975,-12.439031600952148,-11.321575164794922,17.941387176513672,-4.726856708526611
0,577977,-26.742759704589844,-45.06500244140625,-26.38444709777832,-39.310794830322266
0,577979,15.738679885864258,-1.3619807958602905,-48.17903137207031,-20.468904495239258
0,577981,23.57487678527832,47.18708419799805,33.71836853027344,34.6392936706543
0,577983,-12.394417762756348,-14.56147575378418,27.034238815307617,34.84613800048828
0,577985,24.17270278930664,-14.252335548400879,-29.0318603515625,-5.110651969909668
0,577987,-8.770706176757812,23.6110782623291,-17.055908203125,-10.127608299255371
0,577989,-28.903045654296875,-7.682737827301025,26.62909507751465,-10.669514656066895
0,577991,5.778010368347168,-16.877960205078125,2.531621217727661,-7.823561668395996
0,577993,12.966858863830566,15.401363372802734,-9.98607063293457,19.637950897216797
0,577995,25.843975067138672,-4.182367324829102,1.4617277383804321,17.650197982788086
0,577997,-1.7825769186019897,-21.391950607299805,-8.929513931274414,0.34797266125679016
0,577999,-35.56303024291992,26.29615592956543,-11.098358154296875,-22.104812622070312
0,578001,-7.507106781005859,-2.6691274642944336,14.965725898742676,-67.52754974365234
0,578003,31.72667121887207,-3.912893533706665,27.39165687561035,-0.6894100904464722
0,578005,18.02009391784668,15.305126190185547,-21.6328125,62.1772346496582
0,578007,-32.719512939453125,-29.80599021911621,14.611806869506836,5.991624355316162
0,578009,-2.6482231616973877,-3.3633720874786377,22.53023910522461,-16.89907455444336
0,578011,30.902786254882812,19.332660675048828,-19.590072631835938,4.634158611297607
0,578014,-33.178077697753906,15.091198921203613,-7.968865394592285,7.687539100646973
0,578015,-3.4070088863372803,13.355345726013184,-4.3127617835998535,-38.19704818725586
0,578016,32.43497848510742,-28.05072021484375,0.5736018419265747,1.6987223625183105
0,578019,-17.4885311126709,-4.7471137046813965,9.19283676147461,59.75041580200195
0,578020,-20.49705696105957,28.37948989868164,7.058953285217285,8.074234962463379
0,578023,-9.818659782409668,-12.333948135375977,-36.115760803222656,-37.87507629394531
0,578024,5.360594749450684,-32.79370880126953,-14.168869972229004,-32.012508392333984
0,578027,14.957578659057617,-7.904023170471191,33.8804817199707,17.330841064453125
0,578028,12.282129287719727,30.39181137084961,10.473992347717285,14.795599937438965
0,578031,-3.5146641731262207,6.626199245452881,11.758687973022461,-11.456747055053711
0,578032,-6.6590352058410645,-6.486220836639404,16.24139404296875,17.69000244140625
0,578035,19.558380126953125,-4.959290027618408,-37.77116775512695,-0.7089465260505676
0,578036,-21.97097396850586,-17.318639755249023,-35.035030364990234,-6.986953258514404
0,578039,12.14219856262207,34.23524475097656,29.85618019104004,14.595620155334473
0,578040,30.411216735839844,10.221779823303223,22.697978973388672,8.464784622192383
0,578043,-45.17952346801758,-27.95583152770996,-17.898303985595703,3.0827255249023438
0,578044,6.659547328948975,18.308218002319336,-30.309120178222656,-54.843929290771484
1,578047,-14.208263397216797,-22.707332611083984,-7.2827324867248535,-29.300989151000977
1,578049,-24.379451751708984,-18.433303833007812,21.078462600708008,67.19992065429688
1,578051,36.52799987792969,56.58197021484375,24.840314865112305,14.342418670654297
1,578053,11.721089363098145,5.45196533203125,14.426180839538574,-21.10675048828125
1,578055,-4.943923473358154,-30.374608993530273,-7.283575534820557,-8.985525131225586
1,578057,-21.431529998779297,-37.971900939941406,-10.376982688903809,-24.36699676513672
1,578059,-5.862279415130615,28.628765106201172,-43.9894905090332,94.60563659667969
1,578061,23.063488006591797,34.61195373535156,-20.815195083618164,3.091501474380493
1,578063,-21.979843139648438,-21.351064682006836,98.90790557861328,-124.58271026611328
1,578065,-15.05595588684082,9.681668281555176,20.763578414916992,6.8211140632629395
1,578067,51.12123107910156,-45.28596878051758,-90.81573486328125,38.73661422729492
1,578069,7.251827239990234,5.2588725090026855,-16.88690757751465,42.263214111328125
1,578071,-28.699081420898438,21.296066284179688,56.43731689453125,-3.554931163787842
1,578073,-1.3276480436325073,-33.58953094482422,12.908049583435059,-100.3062744140625
1,578075,36.52938461303711,44.60149383544922,-3.1371240615844727,14.809021949768066
1,578077,5.562896251678467,1.2684872150421143,7.816380500793457,102.14127349853516
1,578079,-41.91436004638672,-36.8114128112793,-58.49959945678711,-24.355518341064453
1,578081,26.655059814453125,38.68893814086914,19.22707176208496,-25.325485229492188
1,578083,30.721250534057617,-3.703730583190918,46.156009674072266,23.70204734802246
1,578085,-34.470558166503906,-20.772573471069336,-52.64982223510742,14.759662628173828
1,578087,0.3290620446205139,37.90656661987305,-0.7941886186599731,-7.289944171905518
1,578089,-3.777090311050415,0.08908037096261978,24.156572341918945,-48.15025329589844
1,578091,-17.61695671081543,-43.86383056640625,-11.022220611572266,16.880626678466797
1,578093,5.2530646324157715,-5.499934673309326,2.200653553009033,37.04933547973633
1,578095,-26.27275848388672,13.005290985107422,-17.861099243164062,-46.48285675048828
1,578097,3.7331883907318115,-2.972730875015259,-19.583362579345703,-23.05390739440918
1,578099,41.92933654785156,23.07407569885254,41.02156066894531,39.625999450683594
1,578101,1.1414650678634644,15.87703800201416,48.26069259643555,1.1525328159332275
1,578103,-18.92259407043457,-32.77021026611328,-32.11001968383789,9.88096809387207
1,578105,6.6127190589904785,-21.941556930541992,-26.11139678955078,44.34896469116211
1,578107,-10.089302062988281,26.846086502075195,24.089908599853516,-20.19570541381836
1,578109,3.8294074535369873,21.012048721313477,5.053117275238037,-43.520965576171875
1,578111,15.650142669677734,-16.746278762817383,-29.5699405670166,-3.082937240600586
1,578113,-18.206562042236328,-11.224508285522461,-10.445655822753906,1.0762513875961304
1,578368,-5.426930904388428,8.4976224899292,29.294111251831055,7.770885467529297
1,578370,-2.6820335388183594,-10.243672370910645,-6.504660129547119,1.0022605657577515
1,578372,-16.00876235961914,-13.605260848999023,-15.322336196899414,-26.689729690551758
1,578374,10.078537940979004,15.820551872253418,12.90119457244873,14.3052396774292
1,578376,35.991416931152344,23.90877342224121,-9.771530151367188,16.070249557495117
1,578378,-0.6564716696739197,-2.6267995834350586,-22.37871551513672,-15.533318519592285
1,578380,-13.384119987487793,-19.707622528076172,30.8874454498291,17.323928833007812
1,579193,-1.1145663261413574,-0.9480535387992859,18.049489974975586,12.184521675109863
1,579194,-11.775200843811035,14.320491790771484,-33.546287536621094,-9.617825508117676
1,579197,-1.177832841873169,23.23060417175293,21.442081451416016,-1.1985162496566772
1,579198,18.438968658447266,4.582433223724365,6.116585731506348,7.7146220207214355
1,579201,0.763841986656189,-26.143829345703125,-18.731082916259766,-13.869335174560547
1,579202,-29.322622299194336,-28.685733795166016,9.052446365356445,-7.600874423980713
1,579205,17.617454528808594,7.820743083953857,-3.9262051582336426,16.065948486328125
1,579206,22.025678634643555,18.402729034423828,9.1653413772583,-14.534994125366211
1,579209,-16.155445098876953,5.817429542541504,-6.725135326385498,-8.327805519104004
1,579210,-18.92903709411621,-13.88037395477295,4.538419723510742,18.828954696655273
1,579213,4.646703720092773,-29.360437393188477,6.327538967132568,-21.25082015991211
1,579214,15.741107940673828,8.831256866455078,-17.72148323059082,-18.58164405822754
1,579217,-28.376985549926758,21.666227340698242,-0.2967230975627899,25.452518463134766
1,579218,6.1764912605285645,4.258220195770264,-2.0415468215942383,24.220937728881836
1,579221,34.207576751708984,-79.15304565429688,-15.09467601776123,52.149620056152344
1,579222,-9.472807884216309,12.78980541229248,20.10391616821289,-13.820682525634766
1,579225,-10.179778099060059,128.88479614257812,33.211795806884766,-83.20574188232422
1,579226,1.2519330978393555,-36.20045852661133,-21.75962257385254,20.0234317779541
1,579229,-6.369009494781494,-33.83662414550781,-24.261445999145508,18.554149627685547
1,579230,17.455127716064453,43.88058853149414,7.8627753257751465,-29.820476531982422
1,579233,10.089147567749023,-11.929939270019531,10.444720268249512,12.83320140838623
1,579234,-20.20757484436035,-11.703658103942871,-0.552054226398468,13.571124076843262
1,579237,-1.1802585124969482,-14.684871673583984,10.208619117736816,-9.384352684020996
1,579238,9.11663818359375,-11.185542106628418,11.97592830657959,-10.49637508392334
1,579241,15.198095321655273,14.911770820617676,-9.669977188110352,14.173100471496582
1,579242,-17.563390731811523,9.580174446105957,-12.289012908935547,4.036557674407959
1,579245,-37.98256301879883,2.6944198608398438,-6.601462364196777,-22.450763702392578
1,579246,2.0301320552825928,-38.08686828613281,10.113309860229492,-4.95003604888916
1,579249,24.392738342285156,-4.309479713439941,13.618528366088867,35.976200103759766
1,579250,27.176908493041992,27.677547454833984,-22.437847137451172,27.4947452545166
1,579253,-20.63131332397461,-26.945144653320312,-14.24902057647705,-30.254192352294922
1,579254,-38.89488983154297,6.737529277801514,0.8512099981307983,-4.899433612823486
1,579257,28.70930290222168,45.97929382324219,22.23384666442871,12.118499755859375
1,579258,30.713672637939453,-1.266852855682373,20.580921173095703,-15.205927848815918
1,579261,-28.057893753051758,-47.59842300415039,-25.368444442749023,-5.61417293548584
1,579262,-7.86362886428833,4.756040096282959,-4.476336479187012,11.179829597473145
1,579265,30.844675064086914,47.19059371948242,-14.84567928314209,-1.7950787544250488
1,579266,4.865896224975586,-22.524024963378906,3.3426342010498047,-10.02437686920166
1,579269,-19.41371726989746,-39.31634521484375,34.13667297363281,5.560354709625244
1,579270,0.1441517174243927,23.759876251220703,-9.089890480041504,-14.228151321411133
1,579273,13.443109512329102,14.835779190063477,-10.479907989501953,-5.016542434692383
1,579274,-15.628387451171875,-4.754029750823975,3.539372444152832,18.84181785583496
1,579277,-6.983637809753418,9.05609130859375,17.01507568359375,18.908727645874023
1,579279,7.127564430236816,-21.940828323364258,-2.120736837387085,14.935091018676758
1,579281,0.20163744688034058,-3.142601490020752,-37.11732864379883,-34.16830825805664
1,579283,20.482742309570312,25.532649993896484,-0.9756758213043213,-21.035396575927734
1,579285,-6.7516889572143555,-9.216561317443848,25.26393699645996,22.484128952026367
1,579287,-21.097898483276367,-4.973443984985352,9.21204662322998,6.9859843254089355
1,579290,-12.636605262756348,21.812347412109375,2.797598361968994,11.674129486083984
1,579291,-5.93577766418457,-31.270103454589844,-15.199584007263184,2.182448148727417
1,579293,21.344573974609375,-21.001317977905273,-20.955171585083008,-13.062211036682129
1,579295,23.026592254638672,54.27731704711914,-6.747088432312012,-37.83806610107422
1,579297,16.987754821777344,-3.4187538623809814,13.94905948638916,-3.621591806411743
1,579299,-22.139205932617188,-11.993480682373047,9.357524871826172,53.347957611083984
1,579301,-23.466264724731445,8.318593978881836,-0.05096500366926193,-2.090064287185669
1,579303,-4.787479400634766,-27.615358352661133,24.382619857788086,-36.87430191040039
1,579305,-4.940206527709961,-22.949378967285156,-18.572370529174805,-13.01235294342041
1,579307,19.404237747192383,1.0944557189941406,-23.47640037536621,14.822343826293945
1,579309,7.2407684326171875,40.11689376831055,19.088403701782227,38.43524169921875
1,579311,0.4333218038082123,4.473038673400879,13.161020278930664,2.001716136932373
1,579313,-4.036701679229736,-17.297760009765625,-2.312959909439087,-23.51163673400879
1,579315,-9.319395065307617,32.359771728515625,-15.986014366149902,10.750456809997559
1,579317,7.478857040405273,-11.650542259216309,4.734492301940918,-13.495916366577148
1,579319,1.4737745523452759,-31.62608528137207,2.376553535461426,-12.50332260131836
1,579321,-0.087175652384758,17.606037139892578,-5.017205238342285,24.35887908935547
1,579323,-1.2402966022491455,0.454321026802063,-0.9289200305938721,2.993107795715332
1,579325,-13.827249526977539,-14.487643241882324,8.142487525939941,-17.3411865234375
1,579327,13.12545394897461,21.595064163208008,26.396564483642578,-14.369050025939941
1,579329,32.466453552246094,19.284292221069336,-6.612525463104248,11.887690544128418
1,579331,-27.668325424194336,-36.474884033203125,-27.207752227783203,23.108901977539062
1,579333,-28.860960006713867,-11.920397758483887,8.299426078796387,1.8840904235839844
1,579335,21.357219696044922,31.280677795410156,12.952573776245117,-19.6511287689209
1,579337,15.511445999145508,-1.8204234838485718,-6.361817836761475,-7.406546115875244
1,579339,-7.759559631347656,-13.373056411743164,-1.9826786518096924,-1.313219428062439
1,579341,-15.87808895111084,1.6141340732574463,-11.35384464263916,-4.070601463317871
1,579343,1.6378884315490723,-5.232935905456543,-7.161661148071289,22.282154083251953
1,579345,11.196023941040039,6.387375354766846,-2.029359817504883,17.789600372314453
1,579347,21.329389572143555,28.206634521484375,-2.339437961578369,-24.58772087097168
1,579349,-8.544814109802246,-6.370652675628662,20.271852493286133,-9.683818817138672
1,579351,-33.99247741699219,-37.798072814941406,-5.825469017028809,12.091047286987305
1,579353,-7.670494079589844,-12.798428535461426,-26.12567710876465,-16.007413864135742
1,579355,-6.8924241065979,16.53927230834961,18.3651180267334,-9.096391677856445
1,579357,25.216360092163086,28.46033477783203,26.387123107910156,6.142505168914795
1,579359,30.417661666870117,9.097579002380371,-12.902931213378906,21.414520263671875
1,579361,-26.781902313232422,-29.17373275756836,-13.563185691833496,20.416156768798828
1,579363,-19.631059646606445,-16.60007667541504,8.04825210571289,-20.7241268157959
1,579365,23.66554069519043,35.66522979736328,-17.13327980041504,-9.780685424804688
1,579367,-6.337462425231934,-7.656368255615234,7.67941427230835,24.359867095947266
1,579369,-25.996355056762695,-65.99456787109375,15.800758361816406,-16.888158798217773
1,579371,38.830387115478516,27.21953582763672,-12.805712699890137,9.318804740905762
1,579373,32.54829025268555,64.70292663574219,48.53538131713867,31.79075813293457
1,579375,-9.529303550720215,4.316123008728027,10.215174674987793,-39.819061279296875
1,579377,-14.35546875,-9.38370132446289,-67.42098236083984,-15.861512184143066
1,579379,-11.005447387695312,-8.270157814025879,-40.0684700012207,5.8997673988342285
1,579381,-22.737606048583984,-8.489532470703125,41.6326904296875,-1.3079496622085571
1,579383,-0.4048728346824646,12.817358016967773,54.626216888427734,-0.32375842332839966
1,579385,29.18979835510254,-1.732473611831665,-16.916561126708984,-21.997962951660156
1,579387,-6.230215072631836,-26.770692825317383,-16.024084091186523,32.13887405395508
1,579389,9.091464042663574,12.238143920898438,-11.61397933959961,26.22735023498535
1,579391,7.687347888946533,-16.87933921813965,-5.836365699768066,-46.80925750732422
1,579393,-28.7756404876709,-45.577816009521484,-3.2490289211273193,1.8422960042953491
1,579395,11.582249641418457,44.50077819824219,12.194856643676758,34.02687454223633
1,579397,11.973577499389648,53.71136474609375,46.905540466308594,9.573741912841797
1,579400,-22.471500396728516,-40.32377243041992,-52.37984848022461,-19.3035945892334
1,579402,7.282806873321533,-17.10209083557129,-45.62507629394531,-26.937652587890625
1,579403,-5.596400260925293,32.38378143310547,73.2926025390625,8.163525581359863
1,579405,-21.461069107055664,-21.501571655273438,-3.804748773574829,-4.598535537719727
1,579407,5.124983787536621,-36.561683654785156,-64.9569091796875,-14.254036903381348
1,579409,-6.9060516357421875,11.855344772338867,21.92052459716797,30.62038230895996
1,579411,20.786489486694336,20.051219940185547,43.467750549316406,48.602699279785156
1,579413,28.7430362701416,0.028137966990470886,-9.743973731994629,-15.926453590393066
1,579415,-16.399763107299805,16.848209381103516,-26.703468322753906,-56.883392333984375
1,579417,-3.1122891902923584,5.069940567016602,2.6296212673187256,8.18386459350586
1,579419,6.977357387542725,-20.922714233398438,16.62885093688965,7.731819152832031
1,579421,4.919199466705322,-9.686177253723145,8.456156730651855,-11.387016296386719
1,579423,19.550310134887695,21.4482364654541,-1.93582284450531,44.76217269897461
1,579425,14.021260261535645,29.121910095214844,-0.44127899408340454,-15.461495399475098
1,579427,-10.131254196166992,-3.7678990364074707,26.89090919494629,-34.44175720214844
1,579429,-28.366518020629883,4.604682922363281,0.16349256038665771,34.79975128173828
1,579431,-30.78409767150879,-23.52374267578125,-27.55946159362793,1.1999170780181885
1,579433,9.981714248657227,-9.584409713745117,-17.825952529907227,-15.902349472045898
1,579435,-30.909067153930664,21.04090690612793,0.2619006633758545,3.2973270416259766
1,579437,-16.870010375976562,-50.88569259643555,-9.356109619140625,6.224437713623047
1,579439,80.19093322753906,-15.866863250732422,-3.7035772800445557,11.337278366088867
1,579441,-37.004051208496094,15.8328218460083,30.264606475830078,10.45468807220459
1,579443,-72.87026977539062,3.1093878746032715,1.8245253562927246,-6.995378017425537
1,579445,48.76658630371094,8.657392501831055,-9.65239143371582,-23.146778106689453
1,579447,63.33742141723633,9.786931991577148,-20.558597564697266,-7.053941249847412
1,579449,40.98494338989258,53.942569732666016,30.475000381469727,0.17725005745887756
1,579451,-4.7093281745910645,3.321610450744629,36.9909553527832,-1.9248944520950317
1,579453,-51.83898162841797,-30.448720932006836,-60.824058532714844,-20.520225524902344
1,579455,6.567297458648682,12.903971672058105,6.5893874168396,0.2493150383234024
1,579457,21.545316696166992,-14.488090515136719,22.66811180114746,40.62248229980469
1,579459,-43.74855041503906,-41.14321517944336,-27.36739730834961,1.8984639644622803
1,579461,-37.81103515625,0.62376868724823,30.76778221130371,-24.931013107299805
1,579463,17.451753616333008,14.375706672668457,-22.152151107788086,4.987308502197266
1,579465,46.622684478759766,-7.107175827026367,-33.377811431884766,24.908838272094727
1,579467,25.921289443969727,5.882016181945801,46.54424285888672,7.0093841552734375
1,579469,-5.592945575714111,23.1155948638916,10.20689582824707,-7.536945343017578
1,579471,-13.59146499633789,22.73696517944336,-12.640094757080078,-24.59861183166504
1,579473,-1.0336127281188965,-12.225964546203613,-8.353425025939941,-6.895848274230957
1,579475,-13.179177284240723,-41.52375793457031,2.20270037651062,36.67115783691406
1,579477,-36.73174285888672,-17.13193130493164,40.9896354675293,14.339946746826172
1,579479,-49.79153823852539,21.096323013305664,3.8012869358062744,-30.515220642089844
1,579481,2.904282569885254,-6.710839748382568,-33.00648880004883,-16.612016677856445
1,579483,79.84854125976562,-20.871320724487305,-14.414186477661133,26.405181884765625
1,579485,17.163602828979492,48.283870697021484,-5.983911037445068,13.448213577270508
1,579487,9.54384708404541,52.805110931396484,12.631340980529785,-6.54049825668335
1,579489,53.77588653564453,-12.84489917755127,18.134864807128906,-23.06114959716797
1,579491,-46.58438491821289,-39.35382080078125,-25.17017364501953,-37.13515853881836
1,579493,-76.11138153076172,-20.904258728027344,-52.08647537231445,-1.790637731552124
1,579495,1.2018016576766968,-3.024846315383911,6.429693698883057,58.13499069213867
1,579497,19.852022171020508,28.414480209350586,56.538963317871094,44.02522277832031
1,579499,-47.52914047241211,4.528506278991699,-6.709549903869629,-65.36511993408203
1,579501,-38.2334098815918,-56.7501220703125,-25.813032150268555,-31.252511978149414
1,579504,145.50827026367188,22.371187210083008,48.97923278808594,51.92404556274414
1,579505,65.34288787841797,33.028316497802734,10.725335121154785,11.156914710998535
1,579506,-146.6910400390625,-29.75393295288086,-54.25152587890625,-44.2935676574707
1,579509,-32.961875915527344,-27.199899673461914,-8.440382957458496,-25.869304656982422
1,579510,52.93453598022461,-26.73059844970703,18.343116760253906,41.3525505065918
1,579513,36.82096481323242,56.850196838378906,28.579843521118164,-4.850585460662842
1,579514,35.079524993896484,82.28597259521484,27.624858856201172,-31.580060958862305
1,579517,17.38494873046875,5.86086368560791,-21.60663414001465,3.5747287273406982
1,579518,21.413808822631836,-16.31849479675293,-32.950313568115234,-4.052560329437256
1,579521,-13.85606575012207,9.649614334106445,9.120503425598145,36.53366470336914
1,579522,-51.99492645263672,-5.543436050415039,18.044029235839844,18.95060920715332
1,579525,-91.26042175292969,-99.83515167236328,-31.811229705810547,-6.756468296051025
1,579526,-69.67021179199219,-87.42508697509766,-64.51564025878906,44.52162551879883
1,579531,82.65045928955078,70.2146224975586,62.0749626159668,-5.681366443634033
1,579531,68.997802734375,78.01856994628906,102.38422393798828,-18.751407623291016
1,579532,-73.13761138916016,-13.978891372680664,-62.52883529663086,11.563627243041992
1,579535,-34.01823425292969,-44.64042663574219,-49.28083419799805,-24.252588272094727
1,579536,60.07624435424805,-17.9781436920166,17.114999771118164,-15.620776176452637
1,579539,110.75951385498047,62.12031555175781,-10.328914642333984,3.766813278198242
1,579540,62.2132568359375,20.73210906982422,6.57241153717041,-8.007030487060547
1,579543,-94.43341064453125,-45.798606872558594,13.958348274230957,-63.759700775146484
1,579544,-109.13787841796875,8.076628684997559,-2.397465229034424,-53.25607681274414
1,579547,41.65883255004883,77.59490203857422,-2.5164794921875,57.46698760986328
1,579548,48.61305236816406,27.235939025878906,12.536171913146973,71.0301742553711
1,579551,-61.25505065917969,-94.66058349609375,3.8265249729156494,-0.9283407926559448
1,579552,-12.571084022521973,-58.76756286621094,-49.857643127441406,-13.440774917602539
1,579555,89.64958953857422,49.8551139831543,-10.729830741882324,63.98743438720703
1,579556,34.9681396484375,40.04278564453125,56.8258171081543,61.95802688598633
1,579559,-99.26628875732422,-34.79764938354492,15.2233247756958,-84.89852142333984
1,579560,-100.0201416015625,-77.1491470336914,-2.7666964530944824,-61.1009635925293
1,579563,30.19876480102539,-2.5472054481506348,-11.6958646774292,38.15946578979492
1,579564,95.79801177978516,83.23184967041016,4.6517415046691895,9.247658729553223
1,579567,49.4358024597168,20.798749923706055,-25.067279815673828,16.09674644470215
1,579568,-44.85569763183594,-25.997297286987305,-55.02936935424805,-21.279640197753906
1,579571,-31.115676879882812,15.875930786132812,54.36807632446289,-79.36256408691406
1,579572,29.555641174316406,0.40691593289375305,42.66276550292969,-34.89509963989258
1,579575,8.647808074951172,-20.253192901611328,-11.606173515319824,22.71851921081543
1,579576,-19.72323226928711,14.993803977966309,-22.398962020874023,6.338693141937256
1,579579,21.36764907836914,5.553968906402588,4.911781311035156,45.56743240356445
1,579580,23.127098083496094,-0.31726139783859253,8.740392684936523,83.19741821289062
1,579583,-28.88970184326172,55.89574432373047,-17.180706024169922,-11.914173126220703
1,579584,-6.525752544403076,-12.413351058959961,40.407249450683594,-6.299839019775391
1,579587,-50.814918518066406,-161.00901794433594,-26.087146759033203,-1.3930939435958862
1,579588,-22.617019653320312,-77.8854751586914,-45.851219177246094,-52.23295974731445
1,579591,104.1229019165039,118.90355682373047,30.79743194580078,64.68946075439453
1,579592,15.854297637939453,133.84829711914062,29.128280639648438,52.4427604675293
1,579595,-126.95750427246094,79.74018859863281,-33.520294189453125,-114.81819915771484
1,579596,0.8508443832397461,1.121237874031067,-22.925989151000977,-59.61759567260742
1,579599,95.03242492675781,-190.55801391601562,52.511627197265625,39.12690734863281
1,579600,-15.107698440551758,-126.66956329345703,-9.804304122924805,13.206660270690918
1,579603,-32.90093994140625,271.14447021484375,-50.2529296875,-39.712337493896484
1,579604,47.593788146972656,241.41604614257812,49.41725158691406,3.3084640502929688
1,579607,32.44144821166992,-353.5742492675781,54.73191452026367,62.94321060180664
1,579608,-67.15038299560547,-297.0275573730469,-64.72813415527344,50.59055709838867
1,579611,-50.904518127441406,238.72698974609375,-41.44336700439453,4.634738922119141
1,579612,19.439571380615234,100.88880920410156,34.38086700439453,-195.91668701171875
1,579615,54.641029357910156,-72.36067962646484,11.784571647644043,6.769537448883057
1,579616,19.71217918395996,-7.783323764801025,-5.542115688323975,291.9262390136719
1,579619,-60.978458404541016,-68.40982055664062,-5.292988300323486,-87.84768676757812
1,579620,-5.33121395111084,8.052684783935547,-31.411733627319336,-149.97911071777344
1,579623,76.22393035888672,101.09147644042969,9.766338348388672,93.94469451904297
1,579624,28.797229766845703,71.52995300292969,63.864593505859375,10.21756362915039
1,579627,-43.619659423828125,25.282196044921875,18.629838943481445,-71.04387664794922
1,579628,-37.32478332519531,-43.51430130004883,-38.15120315551758,-17.395248413085938
1,579631,7.70968770980835,-136.77645874023438,-48.23139190673828,57.47211456298828
1,579632,13.747258186340332,-66.76030731201172,12.502265930175781,48.450172424316406
1,579635,-2.496565103530884,179.45191955566406,25.196138381958008,-21.73309326171875
1,579636,-35.21417999267578,178.32159423828125,20.118144989013672,-26.83295249938965
1,579639,-13.072593688964844,-79.21041870117188,13.255088806152344,13.417475700378418
1,579640,34.63790512084961,-199.939208984375,-37.9691047668457,-17.270544052124023
1,579643,10.841666221618652,-39.95964050292969,-19.945823669433594,-35.77840042114258
1,579644,3.171489715576172,104.87367248535156,18.44794273376465,-5.147830963134766
1,579647,-25.66963768005371,25.875652313232422,35.700531005859375,37.977664947509766
1,579648,-27.390378952026367,-45.63744354248047,-24.3906307220459,30.278732299804688
1,579651,37.04159927368164,27.83665657043457,-18.878440856933594,-37.686492919921875
1,579652,7.654682636260986,131.74635314941406,40.40094757080078,-43.17594909667969
1,579655,12.981475830078125,-1.0391654968261719,-29.04262924194336,37.8883171081543
1,579656,45.8200798034668,-113.36500549316406,-50.93901824951172,54.974937438964844
1,579659,-66.87698364257812,-84.11349487304688,-40.34564971923828,-35.01274871826172
1,579660,-31.70414924621582,-94.6517105102539,34.64188003540039,-15.193499565124512
1,579663,76.41304016113281,76.21365356445312,114.12039184570312,65.1006851196289
1,579664,-27.537906646728516,120.0225830078125,-0.31617972254753113,24.12191390991211
1,579667,-31.953449249267578,16.87920379638672,-69.58934783935547,-70.86600494384766
1,579668,17.962003707885742,9.293624877929688,4.108067512512207,-46.96609878540039
1,579673,-13.280163764953613,-14.740900039672852,5.381677627563477,4.247912883758545
1,579673,32.71376419067383,-21.80847930908203,-21.532930374145508,-32.35130310058594
1,579674,17.69186782836914,-59.87174987792969,35.52101135253906,24.343982696533203
1,579677,-56.13823318481445,-48.1275520324707,55.58353042602539,91.52814483642578
1,579678,-24.327863693237305,-3.6970338821411133,-43.14837646484375,4.301324844360352
1,579681,8.320232391357422,11.122556686401367,-74.62252807617188,-76.07467651367188
1,579682,66.17851257324219,153.23995971679688,38.475608825683594,12.225081443786621
1,579685,31.240238189697266,39.427268981933594,34.74968338012695,58.54499435424805
1,579686,-117.02705383300781,-147.95809936523438,-31.01648712158203,-31.9165096282959
1,579689,33.974151611328125,105.69967651367188,-1.7802674770355225,-44.84407043457031
1,579690,101.49531555175781,93.98725891113281,6.126447677612305,-1.6375848054885864
1,579693,-47.46786880493164,-176.22122192382812,1.620037317276001,49.83652114868164
1,579694,-28.764719009399414,-93.16777038574219,19.687908172607422,44.692901611328125
1,579697,-25.797470092773438,43.00468444824219,-17.49393081665039,-73.5833969116211
1,579698,6.054826259613037,19.94428062438965,-19.60655403137207,-18.8723087310791
1,579701,36.70672607421875,29.15876007080078,18.324668884277344,52.50409698486328
1,579702,-4.2586669921875,28.179458618164062,-4.973447799682617,-37.60904312133789
1,579705,-42.04571533203125,6.600897312164307,-18.422508239746094,-18.741140365600586
1,579706,-50.3455810546875,-3.5569241046905518,17.959726333618164,52.911312103271484
1,579709,42.492828369140625,-69.01398468017578,14.624139785766602,23.773216247558594
1,579710,53.91800308227539,-25.41575050354004,-51.781517028808594,-56.59392166137695
1,579713,7.090699672698975,66.03372192382812,15.293025016784668,-13.515871047973633
1,579714,7.291807174682617,25.63005828857422,61.531211853027344,18.251365661621094
1,579717,3.5334360599517822,14.627208709716797,-5.452803611755371,-30.644105911254883
1,579718,3.254650592803955,29.83994483947754,-16.7554874420166,-17.21819305419922
1,579721,-32.134220123291016,-33.14435958862305,-0.20689652860164642,26.59309959411621
1,579722,-39.44611740112305,-39.83586502075195,5.78989839553833,50.5891227722168
1,579725,52.08534240722656,26.128664016723633,-30.577356338500977,25.26063346862793
1,579726,44.83236312866211,-16.95958709716797,-23.514747619628906,-34.20724868774414
1,579729,-49.89018630981445,-46.45663833618164,39.392696380615234,3.5216989517211914
1,579730,-77.31449127197266,11.041123390197754,12.421053886413574,30.128135681152344
1,579733,-10.580489158630371,25.673105239868164,-31.2437744140625,-59.36969757080078
1,579734,62.60737609863281,22.304962158203125,2.3832895755767822,-26.401395797729492
1,579737,15.444561004638672,8.303154945373535,-24.334178924560547,35.28559112548828
1,579738,11.326966285705566,5.761734962463379,25.97470474243164,11.2724027633667
1,579741,13.164273262023926,-1.0185281038284302,79.29632568359375,7.665377616882324
1,579742,-8.666367530822754,-54.17390823364258,-54.71781539916992,20.657737731933594
1,579745,3.8654391765594482,-17.83126449584961,-4.546857833862305,-24.938133239746094
1,579746,-18.251127243041992,39.92662811279297,61.54764175415039,-33.79131317138672
1,579749,-29.59119415283203,-1.6014399528503418,-57.014217376708984,23.3697566986084
1,579750,-9.387090682983398,-2.438295364379883,-23.643861770629883,14.253283500671387
1,579753,17.89218521118164,-18.053194046020508,26.127988815307617,12.905538558959961
1,579754,-3.691908121109009,32.25453186035156,-42.08594512939453,20.023298263549805
1,579757,0.737604558467865,109.04987335205078,6.544251918792725,-29.315364837646484
1,579758,6.045029640197754,-54.3104248046875,48.78634262084961,-44.92460632324219
1,579761,-14.605331420898438,-96.17108917236328,-54.277244567871094,-38.81826400756836
1,579762,19.94403076171875,56.950111389160156,-45.846405029296875,-1.2068758010864258
1,579765,48.796966552734375,3.421933174133301,31.946807861328125,69.51321411132812
1,579766,36.92518997192383,-46.491424560546875,21.201696395874023,48.914546966552734
1,579769,-62.932586669921875,-1.1851187944412231,36.349853515625,-34.73379898071289
1,579770,-92.13951873779297,-32.41434860229492,31.155420303344727,-33.179134368896484
1,579773,80.28312683105469,1.942399501800537,-47.53739929199219,56.453125
1,579774,77.89533233642578,70.24574279785156,-23.819517135620117,-0.20568117499351501
1,579777,-99.3944091796875,9.618206977844238,20.100313186645508,-95.67540740966797
1,579778,-52.893226623535156,-27.0745906829834,-2.7011301517486572,0.2982691824436188
1,579781,84.64867401123047,10.111828804016113,29.895488739013672,90.35039520263672
1,579782,7.0238423347473145,-11.417648315429688,9.348770141601562,-4.947386741638184
1,579785,-72.78242492675781,-18.935317993164062,-69.61518859863281,-76.13370513916016
1,579786,39.13267135620117,31.762073516845703,-0.26364046335220337,14.5224609375
1,579789,49.749725341796875,59.607330322265625,41.235595703125,41.455509185791016
1,579791,9.752979278564453,10.248180389404297,14.101648330688477,-19.947139739990234
1,579793,1.2790800333023071,-68.3404769897461,18.95207405090332,-13.215005874633789
1,579795,-61.892154693603516,-59.94389343261719,-50.91822814941406,28.016233444213867
1,579797,-18.75050926208496,23.969717025756836,-11.108522415161133,26.977394104003906
1,579799,25.546878814697266,56.905757904052734,67.1478500366211,-16.76806640625
1,579801,9.733844757080078,9.858176231384277,-7.370375156402588,-26.237842559814453
1,579803,24.080514907836914,-35.72533416748047,-50.05927276611328,41.31523513793945
1,579805,-30.69243049621582,-16.550458908081055,-13.564702033996582,11.939213752746582
1,579807,-38.437110900878906,-38.03568649291992,12.831409454345703,-36.49602508544922
1,579809,15.46118450164795,-53.01970291137695,12.321430206298828,34.85178756713867
1,579811,7.95474910736084,51.11679458618164,13.322312355041504,-5.5723652839660645
1,579813,-1.399930477142334,85.08063507080078,-14.90749740600586,-50.93670654296875
1,579815,1.9379159212112427,124.488525390625,-11.148812294006348,31.9818172454834
1,579817,45.72420883178711,-78.19828796386719,39.81444549560547,52.056880950927734
1,579819,10.878756523132324,-256.822509765625,-11.817387580871582,-47.6785774230957
1,579821,-42.42665481567383,132.77743530273438,-22.7684383392334,-158.63519287109375
1,579823,-1.1311954259872437,162.01144409179688,10.243287086486816,-81.7293701171875
1,579826,21.628944396972656,-96.86361694335938,-1.4870872497558594,198.7442169189453
1,579827,0.6121854186058044,-32.52220916748047,-13.040837287902832,152.14480590820312
1,579830,-81.97750091552734,-7.127891540527344,-29.3958797454834,-147.65179443359375
1,579831,0.0006510380189865828,2.517061471939087,21.981908798217773,-24.145614624023438
1,579832,124.0648422241211,27.527725219726562,4.479700565338135,89.06856536865234
1,579835,12.848917007446289,-7.921968936920166,15.670639038085938,-12.713770866394043
1,579836,-46.97672653198242,-22.34284782409668,45.97222900390625,2.0676028728485107
1,579839,-13.56308364868164,1.5298895835876465,-38.72597885131836,1.1775118112564087
1,579840,-15.414703369140625,17.475923538208008,7.1147141456604,-2.710441827774048
1,579843,-28.386442184448242,18.383106231689453,18.087459564208984,-7.304035663604736
1,579844,3.1076107025146484,23.983341217041016,-43.29319381713867,-26.541988372802734
1,579847,43.63652801513672,-29.631555557250977,-0.6879978179931641,-17.918773651123047
1,579848,-3.2562923431396484,-29.80894660949707,17.146053314208984,-16.572866439819336
1,579851,-0.7332048416137695,28.328575134277344,6.007445335388184,34.4818000793457
1,579852,1.250813603401184,-22.768951416015625,-16.508922576904297,3.743954658508301
1,579855,-52.036216735839844,-49.17731857299805,-16.86723518371582,-49.43622970581055
1,579856,-18.197023391723633,5.111013412475586,6.357230186462402,46.53779983520508
1,579859,28.57322120666504,49.46337890625,-12.807840347290039,16.989736557006836
1,579860,58.237648010253906,42.351280212402344,14.902213096618652,-14.767866134643555
1,579863,6.0089945793151855,-42.75373840332031,17.962024688720703,20.401885986328125
1,579864,-28.403091430664062,-20.329814910888672,-11.200332641601562,-31.393251419067383
1,579867,26.55561065673828,57.581092834472656,44.79023742675781,10.386321067810059
1,579868,-0.5928295254707336,-3.423861503601074,-1.9574201107025146,9.279026985168457
1,579871,-27.909549713134766,-17.28251075744629,-58.27095031738281,-77.8111572265625
1,579872,-10.842061042785645,24.704761505126953,8.7122220993042,-6.504776477813721
1,579875,29.26535987854004,-21.154773712158203,42.10343551635742,97.83820343017578
1,579876,-7.955469131469727,-25.085756301879883,7.18294095993042,20.23702621459961
1,579879,-50.4969367980957,11.811079978942871,-55.00204086303711,-38.29988098144531
1,579880,-0.2743944227695465,-17.43018341064453,-18.86612892150879,12.998732566833496
1,579883,20.48035430908203,-0.6318126916885376,33.312164306640625,-14.038405418395996
1,579884,24.274227142333984,40.730377197265625,35.7945671081543,-25.595182418823242
1,579887,-13.087803840637207,14.528040885925293,-42.858123779296875,-4.3214111328125
1,579888,-19.493770599365234,0.7353794574737549,-42.907047271728516,2.7741968631744385
1,579891,6.760609149932861,-32.19698715209961,90.39398956298828,26.72649574279785
1,579892,5.434909820556641,-38.480377197265625,14.880859375,28.804229736328125
1,579895,22.510557174682617,1.4539865255355835,-67.9289779663086,-2.90289044380188
1,579896,-1.1595280170440674,-2.914358139038086,25.772485733032227,-27.75725746154785
1,579899,-5.949195384979248,34.91378402709961,40.664546966552734,-8.070001602172852
1,579900,10.21766185760498,50.01885223388672,-37.04829788208008,-2.39420223236084
1,579903,-22.839200973510742,-32.52073669433594,-29.0135440826416,12.13037395477295
1,579904,-13.742508888244629,-48.1388053894043,-5.580556392669678,6.526176452636719
1,579907,27.313739776611328,34.52566909790039,-11.954874038696289,-17.741056442260742
1,579908,15.812056541442871,18.41851806640625,22.314477920532227,-15.285236358642578
1,579911,-10.018230438232422,-43.53246307373047,43.74227523803711,-3.720449209213257
1,579912,3.0160839557647705,-0.4954533874988556,-11.000351905822754,49.539554595947266
1,579915,-9.671607971191406,21.89857292175293,-33.22307205200195,9.710225105285645
1,579916,-5.5963850021362305,28.60189437866211,21.15266227722168,-79.56220245361328
1,579919,-2.858631134033203,-21.27252197265625,14.15087604522705,8.35390567779541
1,579920,-31.402578353881836,-56.77832794189453,-31.012895584106445,50.053775787353516
1,579923,36.668697357177734,55.834014892578125,-1.6717486381530762,7.574117660522461
1,579924,43.27314376831055,34.26688003540039,7.621485233306885,6.237975120544434
1,579927,-40.741275787353516,-32.61477279663086,-2.431674003601074,2.8245811462402344
1,579928,-20.687938690185547,2.74272084236145,30.002748489379883,-5.083858013153076
1,579931,8.713966369628906,-4.651684284210205,-27.946165084838867,-33.357357025146484
1,579932,4.382152080535889,13.174914360046387,-17.04507064819336,4.13761568069458
1,579935,24.913434982299805,0.07774744927883148,45.48174285888672,-101.05934143066406
1,579936,-5.796473026275635,-46.669281005859375,-10.24262523651123,-19.097558975219727
1,579939,6.825440883636475,-4.919864177703857,-41.81393051147461,214.80078125
1,579940,7.376345634460449,16.649667739868164,5.533520698547363,-0.5813292860984802
1,579943,-87.16638946533203,-15.256880760192871,16.081653594970703,-121.59959411621094
1,579944,-13.690105438232422,-6.491342544555664,17.02741050720215,13.456493377685547
1,579947,107.55753326416016,29.18064308166504,29.672809600830078,66.62721252441406
1,579948,11.254942893981934,4.486992835998535,-49.77656173706055,5.147044658660889
1,579951,-90.32196807861328,-11.741852760314941,-19.69169807434082,-55.94412612915039
1,579952,2.6561503410339355,30.263681411743164,27.181072235107422,-29.855239868164062
1,579955,57.64303970336914,-1.6988197565078735,-20.246843338012695,4.772770404815674
1,579956,2.919058322906494,-12.707762718200684,25.449987411499023,37.22916793823242
1,579959,-11.477193832397461,11.819103240966797,16.22547149658203,3.4630587100982666
1,579960,3.391798496246338,-5.848092555999756,-39.484947204589844,-16.54682731628418
1,579963,14.708328247070312,25.288061141967773,-2.0040314197540283,-15.162384986877441
1,579964,-9.111576080322266,24.877716064453125,26.47792625427246,-35.296085357666016
1,579967,-23.554109573364258,-45.07199478149414,8.671242713928223,22.312042236328125
1,579968,-19.911672592163086,-58.47421646118164,5.635879993438721,53.52127456665039
1,579971,12.923111915588379,-8.532052040100098,-20.28999137878418,-0.4443257451057434
1,579973,33.288246154785156,37.478702545166016,-16.722728729248047,-5.466466903686523
1,579975,3.0186569690704346,32.43804168701172,32.73826217651367,18.592071533203125
1,579977,-40.70336151123047,-26.21652603149414,-5.393247127532959,-6.056114196777344
1,579979,-17.83173179626465,1.1837210655212402,-34.241214752197266,-37.1961669921875
1,579981,33.0880241394043,36.97869873046875,26.53352165222168,-15.60988998413086
1,579983,18.252408981323242,17.44371223449707,25.64555549621582,6.765719413757324
1,579985,6.702718257904053,5.941329002380371,-10.041637420654297,-3.4440484046936035
1,579987,-17.179887771606445,-68.0541763305664,-11.116692543029785,19.218097686767578
1,579989,-1.849887490272522,-23.97265625,12.808154106140137,29.422527313232422
1,579991,-26.957551956176758,35.7731819152832,-53.82548141479492,-38.16352462768555
1,579993,-18.84259033203125,13.789410591125488,-29.568801879882812,-33.44482421875
1,579995,56.23033142089844,7.961557388305664,103.05961608886719,16.057065963745117
1,579997,-5.3948211669921875,-21.612350463867188,-28.207223892211914,7.664975643157959
1,580000,-16.509963989257812,-1.8781356811523438,-50.21312713623047,39.02546691894531
1,580002,31.973979949951172,-2.853309154510498,51.766029357910156,13.146200180053711
1,580002,-17.4921817779541,-18.14064598083496,-8.471482276916504,-23.90447235107422
1,580005,-20.52281379699707,4.924086570739746,1.7906975746154785,28.91845703125
1,580006,35.26204299926758,-8.93493366241455,30.711050033569336,6.506544589996338
1,580009,-0.925009548664093,19.56609535217285,-27.40936851501465,-78.21925354003906
1,580010,-38.67589569091797,56.84967803955078,-33.70539855957031,-18.487564086914062
1,580013,2.948932647705078,-13.672414779663086,25.988521575927734,77.93855285644531
1,580014,19.134584426879883,-32.10586166381836,1.6743290424346924,33.404685974121094
1,580017,3.234053373336792,-8.463783264160156,-40.5548210144043,-32.96500015258789
1,580018,-19.900535583496094,-13.075870513916016,-7.47223424911499,-49.699195861816406
1,580021,1.4384043216705322,54.83124923706055,27.2847957611084,-3.587904691696167
1,580022,48.8927001953125,64.04280853271484,63.16770935058594,40.69118881225586
1,580025,-10.98653793334961,-88.93640899658203,0.5573521256446838,-23.74443244934082
1,580026,-44.20210266113281,-71.22998809814453,-54.5077018737793,-53.64914321899414
1,580029,10.570982933044434,65.79922485351562,9.9780912399292,56.97699737548828
1,580030,11.024234771728516,0.7523903846740723,4.420603275299072,67.85099792480469
1,580033,-18.304872512817383,-24.867351531982422,-14.723329544067383,-174.48965454101562
1,580034,-2.486888885498047,35.91229248046875,16.627073287963867,-93.04568481445312
1,580037,22.092636108398438,-0.9707456827163696,22.681568145751953,296.70654296875
1,580038,-0.024097295477986336,-40.66956329345703,-7.899894714355469,99.33815002441406
1,580041,-7.369550704956055,3.900689125061035,-36.973533630371094,-186.97268676757812
1,580042,-19.056753158569336,13.867851257324219,-11.983433723449707,-37.429954528808594
1,580045,-7.750758647918701,-16.04131317138672,14.29928207397461,34.79277801513672
1,580046,45.724849700927734,32.5049934387207,8.131914138793945,16.64623260498047
1,580049,20.280323028564453,32.2989387512207,22.425046920776367,13.199861526489258
1,580050,-39.442020416259766,-24.00499153137207,-30.613231658935547,8.735941886901855
1,580053,-19.07262420654297,-15.080739974975586,-33.74787139892578,16.3782901763916
1,580054,38.326969146728516,4.722962856292725,53.005615234375,-35.54454803466797
1,580057,1.045030951499939,-17.91343116760254,14.210116386413574,-43.48466873168945
1,580058,-31.179527282714844,-13.583257675170898,-23.54186248779297,28.88401222229004
1,580061,10.973664283752441,39.29424285888672,32.64216613769531,17.825252532958984
1,580062,-9.558050155639648,16.481225967407227,-5.322211265563965,-34.85630416870117
1,580065,5.564097881317139,-20.768585205078125,-69.32427978515625,-30.015430450439453
1,580066,39.01432418823242,8.674742698669434,17.108688354492188,6.963031768798828
1,580069,-25.083662033081055,3.9583773612976074,50.57135009765625,17.978796005249023
1,580070,-22.470945358276367,-22.688194274902344,-23.458499908447266,12.628758430480957
1,580073,24.401451110839844,-8.118714332580566,-17.774635314941406,21.83112907409668
1,580074,-0.11681732535362244,21.141477584838867,17.044557571411133,6.19303035736084
1,580077,-26.57575035095215,-5.258720397949219,-2.2839317321777344,-10.132807731628418
1,580078,-2.601458787918091,-25.233877182006836,2.7964634895324707,-17.331501007080078
1,580081,16.453767776489258,18.236059188842773,20.66199493408203,-62.61778259277344
1,580082,2.7568812370300293,-0.6326463222503662,-18.913177490234375,1.0068758726119995
1,580085,-4.204348564147949,-14.013860702514648,-26.17906951904297,92.93604278564453
1,580086,10.443822860717773,14.854031562805176,19.418994903564453,-0.5894163250923157
1,580089,-14.81706714630127,-7.929022312164307,12.36638355255127,-38.996986389160156
1,580090,-26.37081527709961,-1.4845914840698242,3.1198995113372803,3.1456923484802246
1,580093,59.12887954711914,13.554533958435059,13.112330436706543,27.464130401611328
1,580094,37.49998092651367,12.797591209411621,-1.4690918922424316,6.559094429016113
1,580097,-59.259029388427734,-2.669515371322632,-33.50371551513672,-22.1707706451416
1,580098,-30.826847076416016,-39.24505615234375,-33.33840560913086,17.78968620300293
1,580101,27.861957550048828,28.41674041748047,42.38203430175781,-0.06414052098989487
1,580102,9.728774070739746,49.22437286376953,30.09503936767578,-41.0242805480957
1,580105,-18.828039169311523,-35.74995422363281,-27.250925064086914,-9.408538818359375
1,580106,19.345121383666992,-29.606138229370117,10.615023612976074,41.08917236328125
1,580109,7.707808971405029,11.5182466506958,10.564245223999023,22.97732925415039
1,580110,-27.45347023010254,13.421365737915039,-31.57467269897461,-28.272872924804688
1,580113,7.495939254760742,-15.271313667297363,-7.07425594329834,-20.97388458251953
1,580114,7.637725830078125,-13.921346664428711,31.820545196533203,11.960904121398926
1,580117,-23.85262107849121,-11.581171989440918,-19.466552734375,-10.56148624420166
1,580118,-8.0787935256958,-23.20679473876953,-45.19298553466797,-8.5560941696167
1,580121,39.4151725769043,67.08535766601562,38.37579345703125,39.519283294677734
1,580122,38.559627532958984,58.44740295410156,37.723480224609375,5.951341152191162
1,580125,-58.2658576965332,-67.91326904296875,-48.34697723388672,-48.955543518066406
1,580126,-61.464881896972656,-34.27103042602539,6.890824794769287,-4.274447917938232
1,580129,69.82553100585938,28.860858917236328,43.45111846923828,1.189607858657837
1,580130,49.2480583190918,12.668620109558105,-27.285707473754883,10.529290199279785
1,580133,-36.401458740234375,-4.033722877502441,-5.400750160217285,68.3866958618164
1,580134,-21.559040069580078,-0.1250285506248474,9.681581497192383,-10.703981399536133
1,580137,13.497342109680176,-7.092556476593018,24.098012924194336,-34.76590347290039
1,580138,-3.1080691814422607,-35.908634185791016,4.436258792877197,2.648909091949463
1,580141,-26.106367111206055,15.893609046936035,-62.25784683227539,27.08029556274414
1,580143,9.470051765441895,37.485443115234375,7.963029384613037,28.966960906982422
1,580145,18.5665225982666,-6.7148118019104,14.614861488342285,-47.92312240600586
1,580147,-1.2235949039459229,-0.09746824204921722,-29.584840774536133,-182.774169921875
1,580149,-10.013343811035156,-8.04354190826416,37.73466873168945,16.260208129882812
1,580151,-3.284515142440796,-0.4851747453212738,16.9355411529541,277.30010986328125
1,580153,6.050454139709473,3.623911142349243,-28.851343154907227,-55.78715515136719
1,580155,12.529815673828125,-8.151183128356934,15.534001350402832,-86.67581939697266
1,580157,7.116309642791748,21.298200607299805,20.500625610351562,56.505767822265625
1,580159,-14.9843111038208,9.996058464050293,-2.7139902114868164,-82.89927673339844
1,580161,4.672019958496094,-20.312952041625977,-8.65439224243164,10.57949161529541
1,580163,14.98862361907959,-3.781243324279785,-13.535391807556152,66.78533935546875
1,580165,-17.04224395751953,7.337124347686768,-4.361255168914795,7.3385910987854
1,580167,-14.8323335647583,-22.877931594848633,4.306335926055908,-12.304713249206543
1,580169,-10.893455505371094,-11.877191543579102,-2.5652246475219727,-15.928512573242188
1,580171,6.165363788604736,26.001237869262695,-24.920177459716797,-10.33749771118164
1,580173,20.189971923828125,0.6090978384017944,-6.116911888122559,-26.95243263244629
1,580175,-0.2749364972114563,-15.051947593688965,28.578937530517578,-15.949013710021973
1,580178,-4.333573341369629,13.747432708740234,23.02168083190918,20.042503356933594
1,580179,7.959411144256592,5.947829723358154,-3.0510265827178955,15.504080772399902
1,580180,10.944640159606934,-16.5740909576416,-24.637981414794922,-19.810691833496094
1,580183,-24.94496726989746,-7.506260871887207,-1.944717288017273,22.96708106994629
1,580184,-1.9808050394058228,-1.4739456176757812,18.970693588256836,52.22407150268555
1,580188,35.9296989440918,19.279802322387695,11.48721694946289,-10.745027542114258
1,580189,2.139223337173462,27.28310775756836,-35.45956039428711,-37.50875473022461
1,580190,-28.496423721313477,-31.52803611755371,-17.139644622802734,-24.464712142944336
1,580193,-24.19650650024414,-29.98236656188965,46.15791702270508,11.868724822998047
1,580194,9.790770530700684,38.91638946533203,3.2937252521514893,13.467074394226074
1,580197,14.84738540649414,31.35308265686035,-10.521624565124512,-20.012842178344727
1,580198,4.005987167358398,-14.606724739074707,4.94770622253418,1.9696911573410034
1,580201,3.914990186691284,-31.6611270904541,-22.605571746826172,-4.751603603363037
1,580202,-29.651321411132812,-24.2627010345459,-2.5250933170318604,-5.5494866371154785
1,580205,6.004083633422852,4.773533344268799,17.060108184814453,32.81858444213867
1,580206,29.50099754333496,21.649486541748047,0.6248346567153931,18.197328567504883
1,580209,-30.410301208496094,11.221558570861816,3.620496988296509,-8.551804542541504
1,580210,10.757261276245117,-2.3276994228363037,21.511381149291992,-2.0401854515075684
1,580213,31.772680282592773,12.905303001403809,-19.455787658691406,7.090986728668213
1,580214,-5.5765862464904785,14.771876335144043,-27.2094669342041,-22.063549041748047
1,580217,-22.97185707092285,-33.89625549316406,27.558197021484375,-31.327295303344727
1,580218,-8.831356048583984,-12.69974422454834,-16.847185134887695,17.197858810424805
1,580221,15.636272430419922,14.526857376098633,-27.752918243408203,11.176933288574219
1,580222,-12.29440689086914,2.6904585361480713,11.87084674835205,-7.721031665802002
1,580225,5.961804389953613,9.123852729797363,41.561302185058594,33.142555236816406
1,580226,14.070887565612793,-13.564107894897461,21.41129493713379,-4.692178726196289
1,580229,4.79549503326416,-5.42976713180542,-50.714134216308594,-49.19337463378906
1,580230,-3.8124260902404785,12.032538414001465,1.6078565120697021,7.596811771392822
1,580233,-36.691253662109375,-5.841928482055664,25.34389877319336,37.34288787841797
1,580234,16.21500587463379,-2.8508925437927246,-16.500391006469727,-7.045637607574463
1,580237,25.51833724975586,-0.9937232136726379,-3.1499061584472656,-30.88266944885254
1,580238,-10.525787353515625,-0.061009034514427185,-8.793270111083984,15.47255802154541
1,580241,1.8102059364318848,21.092174530029297,18.149782180786133,34.610206604003906
1,580242,-24.535612106323242,2.620729446411133,18.551149368286133,-7.770746231079102
1,580245,-9.143633842468262,-26.65163803100586,-49.193519592285156,-14.36022663116455
1,580246,40.693267822265625,11.8804292678833,-10.733784675598145,13.55748462677002
1,580249,-4.6929450035095215,21.837011337280273,45.56742477416992,-13.827707290649414
1,580250,-28.372785568237305,-47.66385269165039,7.954450607299805,-11.054241180419922
1,580253,21.997541427612305,-12.270561218261719,-22.68899917602539,21.23740577697754
1,580254,-0.6398504972457886,50.11301040649414,3.2917165756225586,-7.279801368713379
1,580257,-28.644577026367188,-10.614782333374023,-4.840725421905518,-28.667104721069336
1,580258,12.307608604431152,-33.931373596191406,-21.930038452148438,-0.03199668601155281
1,580261,18.739776611328125,24.735843658447266,28.08468246459961,38.115234375
1,580262,-14.755101203918457,17.322324752807617,3.217524528503418,-9.812067985534668
1,580265,-2.9892303943634033,-3.814854860305786,-20.574039459228516,-20.789379119873047
1,580266,7.289013862609863,5.086039066314697,19.277938842773438,17.586288452148438
1,580269,-18.378005981445312,-12.581177711486816,19.635488510131836,6.339601039886475
1,580270,16.48418426513672,21.496171951293945,-2.072070598602295,4.927577972412109
1,580273,21.207353591918945,-3.6940271854400635,-28.82815933227539,-20.589061737060547
1,580274,-23.613962173461914,-39.19521713256836,-6.193669319152832,-28.62601089477539
1,580277,17.676258087158203,23.994165420532227,35.70498275756836,31.394779205322266
1,580278,9.493680953979492,9.598978042602539,18.0441951751709,32.457820892333984
1,580281,-37.58934783935547,-32.629486083984375,-30.178916931152344,-15.146953582763672
1,580282,22.00395965576172,10.479344367980957,-34.766143798828125,-26.889211654663086
1,580285,14.980696678161621,6.094024181365967,13.38582706451416,-23.239501953125
1,580286,-29.705280303955078,-26.502443313598633,16.09734344482422,35.72312927246094
1,580289,14.405800819396973,25.802207946777344,-5.825404644012451,19.657520294189453
1,580290,7.233307838439941,30.252735137939453,12.0430326461792,-26.302194595336914
1,580293,-17.93638801574707,-15.680145263671875,-9.679521560668945,15.212608337402344
1,580294,1.2160122394561768,-21.207365036010742,-27.85895347595215,-7.934238433837891
1,580297,4.7261762619018555,9.372273445129395,21.6413631439209,-8.092225074768066
1,580298,12.563579559326172,16.074092864990234,36.9417839050293,21.49517059326172
1,580301,-2.563432455062866,-11.91319751739502,-18.497337341308594,-12.035064697265625
1,580302,-25.952600479125977,-5.921095371246338,-37.51322937011719,-20.523752212524414
1,580305,10.269737243652344,0.5641133785247803,5.563753128051758,8.10511589050293
1,580306,24.5338191986084,3.6515893936157227,25.623624801635742,16.702665328979492
1,580309,-12.859504699707031,-1.2525370121002197,4.232461452484131,5.794365406036377
1,580310,-16.345083236694336,-9.2792329788208,-7.421494960784912,-5.207890033721924
1,580313,14.159483909606934,12.090127944946289,-1.369721531867981,-10.237133026123047
1,580314,3.1809897422790527,8.539802551269531,8.599172592163086,-1.3007149696350098
1,580317,-15.552803993225098,-11.987369537353516,5.529682159423828,3.151165008544922
1,580318,3.64371919631958,7.18681001663208,-22.629047393798828,5.309428691864014
1,580321,15.898186683654785,11.093341827392578,-13.795608520507812,7.2072882652282715
1,580322,-11.574610710144043,-29.96127700805664,23.119272232055664,7.8433942794799805
1,580325,-7.700486660003662,-12.396475791931152,13.575267791748047,-13.597771644592285
1,580326,4.29846715927124,19.80450439453125,-2.272423028945923,-18.12360382080078
1,580329,-8.733981132507324,2.213700771331787,-11.004993438720703,21.806303024291992
1,580330,26.172664642333984,11.424091339111328,-20.539457321166992,8.93704605102539
1,580333,9.225712776184082,-26.959238052368164,-9.122946739196777,16.84592056274414
1,580334,-27.378705978393555,-22.853824615478516,-18.24352264404297,-8.50007438659668
1,580337,-29.3983211517334,38.25756072998047,6.208950042724609,-85.67879486083984
1,580338,22.79105567932129,25.001789093017578,74.66184997558594,31.77430534362793
1,580341,54.227867126464844,3.721877336502075,18.04113006591797,61.71036911010742
1,580342,-25.13642120361328,-13.010311126708984,-46.518863677978516,-46.96450424194336
1,580345,-36.39700698852539,-13.207852363586426,11.244184494018555,11.464146614074707
1,580346,15.692190170288086,7.585380554199219,6.770732402801514,7.803543567657471
1,580349,16.532638549804688,14.096521377563477,-18.97862434387207,-29.181459426879883
1,580350,-11.514314651489258,-15.47783374786377,7.542233943939209,30.794435501098633
1,580353,-11.947330474853516,-0.3609885573387146,8.831535339355469,-0.6718555092811584
1,580354,6.433066368103027,-7.7084879875183105,-25.909194946289062,-18.273502349853516
1,580357,-3.5633833408355713,-28.919584274291992,-13.298175811767578,23.100502014160156
1,580358,0.5496790409088135,38.24836730957031,14.611465454101562,-9.566872596740723
1,580361,17.767789840698242,18.056859970092773,5.132490158081055,-19.258882522583008
1,580363,5.077398777008057,-32.71352005004883,-17.248510360717773,6.915068626403809
1,580365,-19.62126350402832,-1.1889489889144897,-9.177215576171875,18.201906204223633
1,580367,-7.158248424530029,-0.6315608024597168,41.17144775390625,-7.103838920593262
1,580369,19.46727752685547,-16.434505462646484,-1.0164560079574585,-22.035531997680664
1,580371,-1.8039937019348145,9.943138122558594,-31.90370750427246,33.02864074707031
1,580373,-1.619026780128479,22.55298614501953,7.239627361297607,-0.14241226017475128
1,580375,-2.3152287006378174,12.439992904663086,4.601380825042725,-31.325815200805664
1,580377,-13.31722354888916,2.6371467113494873,-1.4271414279937744,21.802640914916992
1,580379,1.3648591041564941,-18.020862579345703,1.1037828922271729,22.22763442993164
1,580381,2.944528818130493,-23.860197067260742,9.342151641845703,6.286704063415527
1,580383,9.82427978515625,15.168758392333984,14.86005973815918,-16.489431381225586
1,580388,-0.7194097638130188,17.05470848083496,-21.2292423248291,-47.75925827026367
1,580388,-9.993964195251465,-17.502479553222656,-35.41037368774414,-15.308361053466797
1,580390,8.301319122314453,1.0834790468215942,6.3178558349609375,43.25885009765625
1,580391,-6.925097465515137,-10.503400802612305,42.130558013916016,27.37436294555664
1,580392,7.241137981414795,8.350961685180664,19.51547622680664,-20.046428680419922
1,580395,27.063051223754883,35.91733932495117,-16.53079605102539,-14.032520294189453
1,580396,-34.05511474609375,-20.83857536315918,-9.179363250732422,19.47825813293457
1,580399,-17.419841766357422,-32.70500946044922,-7.471165657043457,10.47097396850586
1,580400,31.185401916503906,-6.199875831604004,-5.689686298370361,-14.153905868530273
1,580403,-7.777982234954834,17.530160903930664,-2.5666608810424805,-13.142638206481934
1,580404,-10.533501625061035,4.064332008361816,7.166345596313477,2.528566360473633
1,580407,11.489611625671387,-25.034530639648438,13.323674201965332,24.69483184814453
1,580408,9.117502212524414,24.189748764038086,-33.89381790161133,6.4151153564453125
1,580411,-5.633741855621338,126.0251693725586,7.664949893951416,-24.083396911621094
1,580412,-29.767467498779297,53.833866119384766,38.280357360839844,-10.62596321105957
1,580415,-1.2676888704299927,-178.9337615966797,-40.04891586303711,6.6440019607543945
1,580416,27.881664276123047,-107.36018371582031,-2.6011180877685547,-4.311094284057617
1,580419,36.432369232177734,115.33580780029297,48.16679382324219,7.367707252502441
1,580420,4.816370964050293,42.432830810546875,12.767891883850098,13.295663833618164
1,580423,-50.46415328979492,-75.04622650146484,-34.011932373046875,-19.34576988220215
1,580424,-0.7060837149620056,-26.65205192565918,-7.465912342071533,2.601428985595703
1,580427,11.968457221984863,19.65882682800293,25.11000633239746,9.976706504821777
1,580428,-15.874510765075684,25.241060256958008,-26.818368911743164,-11.594644546508789
1,580431,-8.673233032226562,6.043426513671875,-24.291311264038086,21.05451774597168
1,580432,7.2503886222839355,-21.535749435424805,19.357912063598633,-48.89228057861328
1,580435,34.896209716796875,6.190587043762207,14.732145309448242,-23.047563552856445
1,580436,-9.229878425598145,25.182973861694336,-12.961624145507812,110.14160919189453
1,580439,-30.745014190673828,19.570402145385742,-4.964593410491943,-24.71906089782715
1,580440,7.128818511962891,3.97820782661438,-3.8836350440979004,-74.3412857055664
1,580443,2.6520586013793945,7.532508850097656,9.93214225769043,50.007118225097656
1,580444,-6.940093040466309,11.521700859069824,7.602032661437988,33.52654266357422
1,580447,19.08466339111328,-38.60234832763672,-16.32954978942871,-15.866216659545898
1,580448,14.797260284423828,-16.3708438873291,8.094365119934082,-29.780000686645508
1,580451,-11.615863800048828,17.315214157104492,6.853987216949463,-13.874717712402344
1,580452,-21.76677131652832,-23.392213821411133,-2.815953254699707,3.1363117694854736
1,580455,-3.8853187561035156,-3.5559113025665283,15.726420402526855,13.75857162475586
1,580456,17.941152572631836,4.157717704772949,2.85768723487854,12.516846656799316
1,580459,19.386362075805664,18.194053649902344,-10.656267166137695,-11.240278244018555
1,580460,17.675479888916016,69.882080078125,27.76190948486328,10.48306655883789
1,580463,-24.217870712280273,-22.849334716796875,-23.80373764038086,13.552151679992676
1,580464,-21.4947509765625,-80.9970932006836,-53.055015563964844,-22.712617874145508
1,580467,12.730396270751953,17.828012466430664,40.31902313232422,-18.201562881469727
1,580468,-1.9929146766662598,22.893640518188477,39.76455307006836,7.259701728820801
1,580471,9.541083335876465,-43.67991638183594,-25.032482147216797,11.768126487731934
1,580472,16.85565948486328,15.027606964111328,-21.718135833740234,14.264293670654297
1,580475,-23.074920654296875,40.08985137939453,-8.945626258850098,0.7693043351173401
1,580476,-31.80010414123535,-29.454927444458008,-9.728193283081055,-25.1380672454834
1,580479,9.23790168762207,-14.002259254455566,21.99488067626953,2.8099074363708496
1,580480,17.723302841186523,20.394207000732422,9.891304969787598,21.553133010864258
1,580483,-5.456768035888672,8.657031059265137,-18.815933227539062,-15.604899406433105
1,580484,-9.391242027282715,3.877835512161255,3.503427267074585,-8.425718307495117
1,580487,3.52553653717041,1.8172816038131714,16.76253890991211,24.135881423950195
1,580488,18.077625274658203,10.466886520385742,16.155254364013672,13.842021942138672
1,580491,0.3696942925453186,-10.07992172241211,5.806502342224121,-19.464162826538086
1,580492,-9.97304630279541,-23.44291114807129,-30.214508056640625,0.29404759407043457
1,580495,-4.787764549255371,6.251440525054932,-20.863367080688477,0.679844081401825
1,580496,-8.19960880279541,1.4376344680786133,21.765884399414062,-10.886160850524902
1,580499,19.180957794189453,11.105570793151855,6.244287490844727,12.445911407470703
1,580500,26.790250778198242,6.309269905090332,-22.562671661376953,-34.139495849609375
1,580503,-8.015615463256836,-9.875858306884766,8.003032684326172,19.40092658996582
1,580504,-11.010025978088379,-7.439171314239502,25.826745986938477,34.28430938720703
1,580507,2.4640424251556396,-15.488658905029297,-18.73230743408203,-50.97401428222656
1,580508,-20.319604873657227,23.301918029785156,-9.120948791503906,9.656628608703613
1,580511,-3.8851399421691895,24.60955238342285,19.469757080078125,33.39628219604492
1,580512,23.400426864624023,-28.971778869628906,-2.689072370529175,-26.760557174682617
1,580515,-14.893824577331543,-9.901684761047363,-10.93054485321045,-17.39977264404297
1,580516,-25.93191146850586,6.197876453399658,14.285933494567871,12.501727104187012
1,580519,11.228599548339844,-8.807169914245605,7.105082988739014,6.286517143249512
1,580520,14.3243408203125,5.21127462387085,-11.822681427001953,8.36600399017334
1,580523,-8.101823806762695,4.551091194152832,0.7699747085571289,-3.065774917602539
1,580524,6.555011749267578,15.29586410522461,5.98878812789917,-4.69672966003418
1,580527,4.149996280670166,3.791746139526367,-6.470733165740967,20.122547149658203
1,580528,-2.9532310962677,-17.614736557006836,-20.49217414855957,11.796339988708496
1,580531,31.6969051361084,6.868729591369629,11.57755184173584,-12.881218910217285
1,580532,-5.104241371154785,5.386380672454834,30.481006622314453,-16.439132690429688
1,580535,-43.74535369873047,-6.04503870010376,-12.976038932800293,-4.893709659576416
1,580536,11.472399711608887,-10.925040245056152,-39.204776763916016,-11.106998443603516
1,580539,26.28545379638672,-3.4403133392333984,-2.159226179122925,13.345027923583984
1,580540,-0.27353546023368835,17.16175651550293,28.053667068481445,20.9838924407959
1,580543,-1.5908854007720947,12.081679344177246,13.289234161376953,-21.771949768066406
1,580544,-24.458141326904297,-32.006134033203125,-13.762540817260742,-34.141380310058594
1,580547,-17.907922744750977,-30.65318489074707,0.004921259358525276,15.492618560791016
1,580548,27.989917755126953,39.97892379760742,13.692874908447266,45.55192947387695
1,580551,30.725467681884766,30.96691131591797,-16.673995971679688,-15.45739459991455
1,580552,-10.678671836853027,-34.74590301513672,-10.705648422241211,-17.103546142578125
1,580555,-28.41542625427246,-18.137086868286133,20.206871032714844,21.328857421875
1,580556,0.9115777611732483,23.560338973999023,-1.022856593132019,-3.374953031539917
