Aktueller Finger,timestamp_ms,sensor_0,sensor_1,sensor_2,sensor_3
0,207002,31.126808166503906,38.878631591796875,-6.478504180908203,-23.55858039855957
0,207002,21.370342254638672,-49.663856506347656,-16.6910457611084,-12.518150329589844
0,207003,-26.46626853942871,-5.244618892669678,5.854978084564209,-40.839107513427734
0,207006,-12.504230499267578,59.25940704345703,11.379405975341797,54.62620544433594
0,207007,16.337921142578125,-20.027103424072266,-1.1077854633331299,98.62031555175781
0,207010,-9.77966594696045,-54.66757583618164,-3.1844422817230225,1.282408595085144
0,207011,-17.560699462890625,-2.0062389373779297,-30.747894287109375,63.076568603515625
0,207014,16.141782760620117,39.238040924072266,38.77291488647461,-137.54244995117188
0,207015,15.629192352294922,22.80466651916504,40.60047912597656,-352.1076354980469
0,207018,1.9221577644348145,2.4996657371520996,-57.02383041381836,186.10426330566406
0,207019,-2.2221920490264893,-32.44980239868164,-6.436687469482422,456.1982421875
0,207022,-20.5030574798584,-28.611007690429688,49.55072784423828,-126.54518127441406
0,207023,9.48099136352539,22.42258644104004,-1.5113643407821655,-252.05650329589844
0,207026,-0.25187280774116516,30.072063446044922,-36.72098159790039,33.74669647216797
0,207027,8.75861930847168,16.879880905151367,1.762597918510437,-4.108215808868408
0,207030,34.329193115234375,-20.223384857177734,14.980644226074219,18.38614273071289
0,207031,-38.786563873291016,-40.9852409362793,-13.023399353027344,19.46063804626465
0,207034,-26.25645637512207,12.985310554504395,5.6507673263549805,-20.76886558532715
0,207289,15.623872756958008,35.488712310791016,-13.569485664367676,17.147777557373047
0,207290,7.796714782714844,-26.891029357910156,-2.3730742931365967,-3.424713611602783
0,207293,28.271316528320312,-28.29175567626953,32.5672492980957,-3.9999656677246094
0,207294,-1.7357478141784668,31.721343994140625,-29.217493057250977,2.4708786010742188
0,207297,-38.945335388183594,7.380080223083496,-14.212997436523438,-12.043243408203125
0,209606,-9.403610229492188,-23.412364959716797,9.861652374267578,-30.43313980102539
0,209607,18.513023376464844,28.675724029541016,10.837799072265625,20.73587989807129
0,209610,-3.0864453315734863,10.625085830688477,15.279343605041504,52.93900680541992
0,209611,-19.32834243774414,-51.600399017333984,-22.021236419677734,-9.130940437316895
0,209614,28.9232120513916,-10.34448528289795,-8.660656929016113,19.072952270507812
0,209615,19.717851638793945,20.007848739624023,4.089562892913818,25.73297882080078
0,209618,-6.980722904205322,-1.506516456604004,-6.221858024597168,-60.69599151611328
0,209619,5.876562118530273,47.35234451293945,19.214576721191406,-3.4779279232025146
0,209622,-28.480653762817383,12.872879981994629,18.293062210083008,17.206430435180664
0,209623,-2.828826427459717,-48.7945671081543,-23.811237335205078,-37.573604583740234
0,209626,21.529003143310547,9.186559677124023,-10.548760414123535,-9.925148010253906
0,209627,-30.057519912719727,5.411338806152344,21.253345489501953,1.570826768875122
0,209630,-4.412229061126709,10.324098587036133,29.59843635559082,39.75064468383789
0,209631,29.416671752929688,15.540658950805664,5.841527938842773,25.512065887451172
0,209634,-0.012708257883787155,-27.020065307617188,-21.490076065063477,-11.61097526550293
0,209635,-1.4933035373687744,10.312213897705078,-6.065128803253174,-5.022546291351318
0,209638,-4.268864631652832,23.6207218170166,3.064182996749878,1.2898273468017578
0,209639,11.462218284606934,-39.6563720703125,4.338205337524414,32.82925796508789
0,209642,8.475698471069336,-7.018922328948975,-6.861167907714844,-17.30780029296875
0,209643,-37.138427734375,6.628882884979248,-41.02608871459961,-38.033973693847656
0,209646,0.1796324998140335,-43.645042419433594,-25.09138298034668,7.315291881561279
0,209647,23.893259048461914,23.567720413208008,20.57696533203125,41.2316780090332
0,209650,-12.541054725646973,27.457624435424805,51.074100494384766,-27.70769691467285
0,209651,13.303217887878418,-18.24825096130371,23.26388931274414,-73.56392669677734
0,209654,13.67603874206543,32.66680908203125,-23.308734893798828,76.25740051269531
0,209655,-33.44953536987305,-6.0707221031188965,-25.913761138916016,19.11943817138672
0,209658,1.470813512802124,-54.259742736816406,-13.870779991149902,-116.53264617919922
0,209659,27.729106903076172,37.991851806640625,17.11821937561035,50.786529541015625
0,209662,-26.889427185058594,30.892513275146484,-10.407709121704102,93.43388366699219
0,209663,-3.1320383548736572,-22.46101188659668,-2.072634696960449,-54.133453369140625
0,209666,37.849586486816406,23.899816513061523,59.56598663330078,-17.85523796081543
0,209668,-13.60084056854248,-8.629816055297852,-11.815986633300781,10.4850435256958
0,209670,-24.565837860107422,-38.08462905883789,-49.808231353759766,-3.524721622467041
0,209672,12.244083404541016,4.366713523864746,14.717443466186523,0.9656431674957275
0,209674,25.643510818481445,6.330111026763916,-5.932383060455322,-20.100717544555664
0,209676,-18.44784927368164,8.058426856994629,-9.890702247619629,10.470718383789062
0,209678,-23.42332649230957,19.940053939819336,24.900779724121094,11.068717002868652
0,209680,6.50876522064209,-26.90150260925293,7.962649822235107,-11.123419761657715
0,209682,-11.818010330200195,-7.759788990020752,-22.61932945251465,-0.7795949578285217
0,209684,11.611563682556152,58.657508850097656,-9.275703430175781,22.00863265991211
0,209686,29.59539222717285,-20.73908233642578,8.409131050109863,24.560428619384766
0,209688,-15.68980598449707,-52.310054779052734,-13.019262313842773,-29.306821823120117
0,209690,-7.829770565032959,15.778093338012695,14.336721420288086,-55.74684143066406
0,209692,16.19828224182129,-1.9352302551269531,19.74639320373535,7.208112716674805
0,209694,-12.946904182434082,1.1211662292480469,0.3396700322628021,54.456974029541016
0,209696,-5.995752811431885,24.30915069580078,-11.266485214233398,4.9181084632873535
0,209698,-2.945460796356201,-0.1112711951136589,6.936954975128174,-17.39753532409668
0,209700,15.388249397277832,-18.926219940185547,30.484188079833984,30.526708602905273
0,209702,1.4780892133712769,-26.228002548217773,-35.97516632080078,-17.412010192871094
0,209704,10.561990737915039,17.00809097290039,-17.926456451416016,3.028324604034424
0,209706,17.20903968811035,28.790712356567383,25.9588680267334,67.32063293457031
0,209708,-35.35206985473633,-8.755578994750977,6.339171886444092,-159.45449829101562
0,209710,-11.67199420928955,5.579954624176025,-4.629090309143066,-71.08946990966797
0,209712,0.85667484998703,4.429303169250488,10.475244522094727,259.1428527832031
0,209714,15.49901294708252,-22.66044044494629,6.927682399749756,3.763270616531372
0,209716,6.409703254699707,11.347214698791504,-27.34328842163086,-142.99630737304688
0,209718,-0.7530785799026489,14.15751838684082,-14.199830055236816,17.172494888305664
0,209720,-13.261514663696289,-2.619143009185791,-30.373132705688477,1.5977452993392944
0,209722,1.2921017408370972,-6.505936622619629,9.715635299682617,11.601399421691895
0,209724,30.49227523803711,-19.47044563293457,49.0809440612793,9.405036926269531
0,209726,-30.27633285522461,15.480753898620605,-3.979952812194824,-14.980022430419922
0,209728,-13.836759567260742,11.582453727722168,2.5652072429656982,-49.10402297973633
0,209730,33.76851272583008,-12.219823837280273,23.916643142700195,-10.128772735595703
0,209732,-19.133447647094727,-19.540306091308594,-31.399133682250977,118.94452667236328
0,209734,-32.365055084228516,-26.81438446044922,-35.78132629394531,10.527251243591309
0,209736,40.21015548706055,48.3978271484375,31.09099006652832,-93.19417572021484
0,209738,1.9141572713851929,54.217079162597656,14.789402961730957,-7.168867588043213
0,209740,-30.50020980834961,-55.52242660522461,-18.879976272583008,19.857662200927734
0,209742,42.64401626586914,-17.112873077392578,10.2276029586792,10.396846771240234
0,209743,-8.390485763549805,12.236454963684082,14.603704452514648,47.573062896728516
0,209746,-38.249366760253906,-19.183446884155273,-23.711843490600586,6.911127090454102
0,209748,43.23584747314453,35.2489128112793,-7.421353816986084,-10.509905815124512
0,209750,-11.567732810974121,0.854221522808075,-9.78903579711914,-10.764439582824707
0,209752,-38.36864471435547,-19.33222770690918,-5.854376316070557,-60.26044845581055
0,209754,25.9167537689209,0.48239484429359436,28.101299285888672,-34.666229248046875
0,209756,11.599671363830566,14.482475280761719,-11.302250862121582,10.312426567077637
0,209758,-0.10029144585132599,-8.728330612182617,11.584342956542969,108.76724243164062
0,209760,-13.76693058013916,-44.18696212768555,21.752233505249023,-11.317492485046387
0,209762,10.79906940460205,29.938007354736328,-26.04927635192871,-120.68983459472656
0,209764,8.067129135131836,21.38676643371582,18.13979148864746,53.1474609375
0,209766,-18.65754508972168,-16.54311180114746,23.097021102905273,41.81830978393555
0,209768,16.25630760192871,-1.5191799402236938,-40.610748291015625,-25.511943817138672
0,209770,2.7991161346435547,20.60120391845703,-34.302520751953125,27.183685302734375
0,209772,4.066615104675293,12.013736724853516,0.5197066068649292,43.333518981933594
0,209774,11.939330101013184,-33.31209182739258,27.995487213134766,-44.546356201171875
0,209776,-15.581426620483398,16.850542068481445,34.85246658325195,-45.63685607910156
0,209778,-30.753360748291016,23.25780487060547,-14.698796272277832,42.62166976928711
0,209780,12.970428466796875,-27.32943344116211,-15.8243989944458,12.69908332824707
0,209782,24.193872451782227,1.9591317176818848,0.6737621426582336,-55.379390716552734
0,209784,-15.716850280761719,13.527063369750977,1.2559525966644287,-9.92774772644043
0,209786,13.168642044067383,-15.341511726379395,10.494941711425781,57.4361457824707
0,209788,6.320993900299072,-19.26413345336914,-9.280311584472656,2.2374534606933594
0,209790,-32.296974182128906,-5.306411266326904,7.630292892456055,-11.13021183013916
0,209792,-1.4737266302108765,6.503751277923584,2.316479444503784,-7.656439304351807
0,209794,13.223740577697754,8.184883117675781,-23.67576789855957,1.7241051197052002
0,209796,1.2796623706817627,18.71575164794922,-2.240151882171631,24.872432708740234
0,209798,12.847733497619629,19.03995132446289,23.84247589111328,-2.4187591075897217
0,209800,-17.80938148498535,-24.91427230834961,7.257584571838379,-18.032123565673828
0,209802,-16.787418365478516,-6.7157745361328125,-17.428390502929688,-9.154916763305664
0,209804,23.29130744934082,11.556650161743164,-21.341350555419922,4.829455852508545
0,209806,1.03685462474823,-10.6839017868042,-2.2076146602630615,-17.46761131286621
0,209808,-9.440253257751465,6.468523979187012,29.294893264770508,-7.518671035766602
0,209810,-16.792564392089844,-0.8229681253433228,4.058750629425049,-3.0860042572021484
0,209812,10.050125122070312,-16.317453384399414,-8.027872085571289,-14.595874786376953
0,209814,30.456098556518555,7.104435443878174,16.403236389160156,31.48273277282715
0,209816,-19.544355392456055,8.029385566711426,-19.456371307373047,44.570030212402344
0,209818,-3.158728837966919,-16.27574348449707,-24.51776885986328,9.364253997802734
0,209820,10.312638282775879,-9.263175010681152,45.01439666748047,-33.037635803222656
0,209821,-5.802949905395508,31.261600494384766,-6.559561729431152,-51.32969284057617
0,209824,9.346466064453125,30.543514251708984,-42.482444763183594,16.75220489501953
0,209825,1.9214441776275635,-36.25282669067383,34.56723403930664,37.463802337646484
0,209828,-18.565345764160156,-29.342395782470703,25.936460494995117,-49.8348503112793
0,209829,-7.1199727058410645,13.798942565917969,22.673267364501953,43.83324432373047
0,209832,3.8429477214813232,7.946268558502197,-42.982051849365234,67.81289672851562
0,209833,29.06290626525879,4.693923473358154,-64.66006469726562,-116.73987579345703
0,209836,25.62552261352539,-3.1414902210235596,59.812225341796875,-33.92812728881836
0,209837,-16.28946876525879,4.978947639465332,22.651241302490234,27.76978302001953
0,209840,-20.990827560424805,-15.330119132995605,-49.01668930053711,6.584220886230469
0,209841,-28.66033363342285,-8.310802459716797,2.632765769958496,109.33090209960938
0,209844,22.075563430786133,55.63740921020508,38.62428283691406,36.65911102294922
0,209845,15.697968482971191,-10.356243133544922,-10.794268608093262,-44.43040466308594
0,209848,-46.77314758300781,-70.8311538696289,-40.53092956542969,-15.745270729064941
0,209849,4.6408371925354,21.658878326416016,18.121952056884766,-26.257143020629883
0,209852,29.63489532470703,40.07074737548828,42.22245788574219,-69.08043670654297
0,209853,5.508572101593018,-13.74561595916748,-2.5652544498443604,-24.504478454589844
0,209856,-14.815934181213379,15.510573387145996,-59.17717742919922,25.782602310180664
0,209857,-17.6760196685791,12.154935836791992,-25.241117477416992,-4.71506929397583
0,209860,25.305442810058594,-41.542049407958984,75.58568572998047,54.107521057128906
0,209861,8.37746810913086,-34.51214599609375,30.039920806884766,99.4417724609375
0,209864,-31.664161682128906,28.664640426635742,-46.505126953125,-65.03211975097656
0,209865,27.851774215698242,44.0608024597168,2.0665698051452637,-102.48695373535156
0,209868,25.051578521728516,-12.368158340454102,-4.840401649475098,-15.582889556884766
0,209869,-35.7883186340332,-10.332757949829102,-18.479812622070312,-89.83806610107422
0,209872,-1.6084128618240356,13.776703834533691,45.133201599121094,79.56676483154297
0,209873,9.974761009216309,-21.08530044555664,0.8402692675590515,236.4477081298828
0,209876,-11.35619068145752,-9.028385162353516,-41.55707550048828,-11.759133338928223
0,209877,16.063644409179688,18.5531063079834,16.340011596679688,-106.78094482421875
0,209880,-5.204490661621094,-6.616970062255859,19.772228240966797,52.2339973449707
0,209881,-32.43824768066406,-17.913856506347656,-0.9570950269699097,27.809303283691406
0,209884,32.100154876708984,9.129921913146973,-22.184885025024414,-187.7503204345703
0,209885,8.013771057128906,13.304352760314941,-20.254756927490234,-112.37834930419922
0,209888,-12.812925338745117,-3.2965495586395264,20.18960189819336,225.7814483642578
0,209889,39.182918548583984,0.28903859853744507,0.3868543207645416,184.07797241210938
0,209892,-33.162254333496094,-21.385662078857422,-0.17599818110466003,-134.56398010253906
0,209893,-40.383018493652344,20.066097259521484,28.8124942779541,-183.74288940429688
0,209896,43.938743591308594,30.373279571533203,-18.58102798461914,-93.62187957763672
0,209897,8.044456481933594,-22.465415954589844,-41.18918228149414,16.21677589416504
0,209900,-10.23412799835205,-20.905893325805664,43.15042495727539,246.10598754882812
0,209901,15.621478080749512,3.4192373752593994,45.85380935668945,102.08704376220703
0,209904,-28.013290405273438,16.95546531677246,-41.803043365478516,-176.8472900390625
0,209905,-21.800737380981445,-16.890222549438477,-16.567733764648438,-25.86232566833496
0,209908,10.798147201538086,3.3643009662628174,19.60816764831543,114.68917846679688
0,209909,14.95340633392334,40.21534729003906,1.7929779291152954,17.225210189819336
0,209912,14.506875038146973,-18.452329635620117,-18.632259368896484,-154.79025268554688
0,209913,4.026891231536865,-23.389902114868164,-18.603832244873047,-69.71861267089844
0,209916,8.974177360534668,43.15345001220703,4.2829270362854,182.51962280273438
0,209917,-16.96550750732422,3.065997362136841,13.073734283447266,-7.4948248863220215
0,209920,-28.41379165649414,-71.53414916992188,13.46840763092041,-63.94321060180664
0,209921,9.450594902038574,-19.778390884399414,-19.122568130493164,72.46465301513672
0,209924,28.047000885009766,48.370975494384766,-63.823883056640625,-97.06139373779297
0,209925,7.520581245422363,-5.291485786437988,10.955615043640137,3.514343500137329
0,209928,-15.758207321166992,-7.672333717346191,79.68746185302734,93.06087493896484
0,209929,-1.570521354675293,21.17999839782715,1.9023222923278809,70.4462890625
0,209932,-18.505325317382812,-10.297607421875,-2.124708652496338,-112.98345184326172
0,209933,-42.14883804321289,-4.99338960647583,-7.236970901489258,-367.4486083984375
0,209936,49.48392868041992,51.714515686035156,-13.706489562988281,187.54025268554688
0,209937,40.626766204833984,26.214723587036133,45.7420654296875,607.9881591796875
0,209940,-59.71800994873047,-108.76428985595703,-21.043779373168945,-194.89862060546875
0,209941,3.3801302909851074,-14.946969032287598,-38.24395751953125,-691.7146606445312
0,209944,42.83733367919922,144.2196502685547,-33.04846954345703,58.319786071777344
0,209945,-53.31132507324219,-27.27491569519043,-22.05245018005371,506.6667175292969
0,209949,-46.10527420043945,-132.97601318359375,69.8425064086914,272.4755859375
0,209949,74.91901397705078,30.7891902923584,36.49528884887695,1.8800604343414307
0,209952,78.51351928710938,73.2218246459961,-4.688575267791748,-336.8512268066406
0,209953,16.017414093017578,21.355327606201172,8.093659400939941,-164.6217803955078
0,209956,-65.6965103149414,-37.198299407958984,-30.847715377807617,95.21514892578125
0,209957,-57.82988739013672,-75.64460754394531,53.7332878112793,-25.75492286682129
0,209960,9.56877326965332,10.46857738494873,24.71142578125,-37.387062072753906
0,209961,-9.486294746398926,8.777185440063477,-145.75636291503906,-231.6376953125
0,209964,43.137939453125,33.98558807373047,27.7735595703125,150.0635223388672
0,209965,25.18010711669922,109.27906036376953,96.82076263427734,450.03558349609375
0,209968,-24.823509216308594,-20.19203758239746,-40.71854019165039,-166.2275848388672
0,209969,-6.6125712394714355,-85.2343978881836,-45.92458724975586,-300.7077941894531
0,209972,-38.25810623168945,-27.436809539794922,-24.57805824279785,-50.09547805786133
0,209973,-25.066688537597656,-22.93502426147461,-17.670801162719727,110.80549621582031
0,209976,14.748822212219238,-10.75283145904541,7.802256107330322,172.02401733398438
0,209977,4.193582057952881,6.782373428344727,16.352659225463867,48.658748626708984
0,209980,46.35364532470703,96.3946762084961,49.340633392333984,-10.273776054382324
0,209981,64.87291717529297,61.898170471191406,-5.962429046630859,-29.58974266052246
0,209984,-33.664024353027344,-43.363162994384766,-21.159238815307617,-93.06831359863281
0,209985,-44.69111251831055,-31.084747314453125,88.7043228149414,31.494104385375977
0,209988,6.522751331329346,-64.65575408935547,-25.07636070251465,-19.843387603759766
0,209989,10.015022277832031,-24.100204467773438,-61.39267349243164,-76.73888397216797
0,209992,-3.289841890335083,38.729026794433594,3.3824100494384766,106.55968475341797
0,209993,-7.624175548553467,56.25628662109375,7.80665397644043,154.7772674560547
0,209996,-11.611809730529785,6.557581424713135,12.214991569519043,-100.58769226074219
0,209997,4.974339962005615,-7.982723712921143,-6.003529071807861,-333.14422607421875
0,210000,5.253046989440918,-13.860230445861816,7.45054817199707,206.87216186523438
0,210001,-31.558807373046875,-101.61968994140625,-1.8891929388046265,378.62615966796875
0,210004,9.078120231628418,24.44715118408203,-12.648737907409668,-257.8037414550781
0,210005,45.67901611328125,102.01913452148438,12.869468688964844,-327.37078857421875
0,210008,0.6495458483695984,-2.0762391090393066,17.780588150024414,137.97048950195312
0,210009,-29.04692840576172,-13.121742248535156,-8.2426118850708,165.26397705078125
0,210012,17.823007583618164,-5.050127983093262,-3.676243305206299,43.989959716796875
0,210013,30.131919860839844,-34.38766098022461,5.312463760375977,136.21820068359375
0,210016,-40.826934814453125,-25.61202621459961,-42.839111328125,-190.4788360595703
0,210017,-26.075658798217773,30.893798828125,3.6733245849609375,-264.41693115234375
0,210020,32.8454475402832,20.845735549926758,42.523223876953125,31.534088134765625
0,210021,6.786439418792725,-28.013681411743164,-25.904495239257812,251.02349853515625
0,210024,-23.3386287689209,-6.53956413269043,12.362181663513184,508.04852294921875
0,210025,6.678020000457764,-9.831480026245117,8.759329795837402,52.117435455322266
0,210028,11.466449737548828,-14.915851593017578,-47.348812103271484,-1138.6494140625
0,210029,-22.981821060180664,48.698211669921875,25.203353881835938,-1098.4495849609375
0,210032,-14.89849853515625,28.986846923828125,31.324974060058594,1169.3714599609375
0,210033,3.793178081512451,-16.36103057861328,-56.96900939941406,1509.27294921875
0,210036,29.31138038635254,4.727512836456299,9.941563606262207,-397.4154968261719
0,210037,26.41990852355957,4.315829277038574,61.15971755981445,-470.7021789550781
0,210040,-1.2131935358047485,14.121052742004395,-23.299110412597656,-103.49768829345703
0,210041,-22.975608825683594,9.145552635192871,-1.588417410850525,-254.12167358398438
0,210044,-32.85691452026367,-41.0338249206543,3.280251979827881,-83.0049819946289
0,210045,-6.581335544586182,-62.33839797973633,-57.8069953918457,-181.0330810546875
0,210048,8.613957405090332,-7.830382347106934,1.835485816001892,556.7139282226562
0,210049,30.078641891479492,37.27391052246094,14.753453254699707,850.2102661132812
0,210052,-10.110278129577637,29.45201301574707,1.8414223194122314,-833.0798950195312
0,210053,12.857644081115723,27.71677589416504,54.50257110595703,-723.9898071289062
0,210056,73.84730529785156,26.9967041015625,22.884366989135742,461.2740478515625
0,210057,-49.80259323120117,-3.519068956375122,-36.26696014404297,116.72689819335938
0,210060,-65.11465454101562,-29.139612197875977,-37.177330017089844,146.37594604492188
0,210061,22.56095314025879,-5.109325408935547,1.8340253829956055,129.97860717773438
0,210064,-11.15310287475586,-51.86055374145508,-32.02849197387695,-751.8427734375
0,210065,-32.58512496948242,-27.03500747680664,-4.358540058135986,-271.5355224609375
0,210068,4.649636268615723,45.9715690612793,78.14447021484375,1053.0634765625
0,210069,54.10579299926758,-34.432254791259766,8.939671516418457,228.75209045410156
0,210072,44.773799896240234,6.579434871673584,-33.267215728759766,-645.3499145507812
0,210074,-3.936307430267334,65.75861358642578,-3.4326162338256836,205.02755737304688
0,210076,-41.25840759277344,-10.905658721923828,5.741672515869141,227.59718322753906
0,210078,-39.40468978881836,-8.377887725830078,30.674724578857422,-201.8121795654297
0,210080,18.21358871459961,51.079811096191406,5.900335311889648,-264.66796875
0,210082,64.27192687988281,69.65361785888672,-50.558494567871094,-249.31288146972656
0,210084,21.386674880981445,-75.7310562133789,7.336174488067627,381.2025146484375
0,210086,-84.65776062011719,-163.96995544433594,3.9258291721343994,860.6829223632812
0,210088,-36.77993392944336,77.69483184814453,-23.614627838134766,-294.2975769042969
0,210090,44.21257019042969,94.2030258178711,16.536035537719727,-1042.7591552734375
0,210092,-6.6850199699401855,-116.47321319580078,-32.33154296875,-40.435123443603516
0,210094,-18.46649169921875,-1.1803278923034668,-2.2705910205841064,292.89080810546875
0,210096,9.966593742370605,66.744384765625,33.19805908203125,256.6570129394531
0,210098,-1.1332706212997437,-66.78950500488281,-2.0919134616851807,181.0218963623047
0,210100,29.18119239807129,13.911988258361816,36.25801467895508,-302.56219482421875
0,210102,55.456722259521484,94.19803619384766,22.63787841796875,-128.74093627929688
0,210104,-19.732297897338867,-26.23556137084961,-43.01478958129883,787.5453491210938
0,210106,-32.16980743408203,-19.664735794067383,-33.5633544921875,393.92718505859375
0,210108,3.2643470764160156,56.1963996887207,46.68146896362305,-1273.9952392578125
0,210110,-35.955020904541016,5.264294147491455,40.553062438964844,-1308.1514892578125
0,210112,-31.926294326782227,-82.64232635498047,-79.8931655883789,1053.97998046875
0,210114,55.99502944946289,-70.79886627197266,-46.540748596191406,1586.5518798828125
0,210116,37.658931732177734,86.57652282714844,73.57648468017578,-476.2357482910156
0,210118,-45.73752212524414,41.75312423706055,19.128297805786133,-472.32989501953125
0,210120,-13.704259872436523,-82.49808502197266,-54.3156852722168,-91.9559326171875
0,210122,32.529788970947266,30.550708770751953,-19.187463760375977,-302.8722229003906
0,210124,20.74141502380371,78.05152893066406,70.6450424194336,316.8919677734375
0,210126,-29.969581604003906,-20.740215301513672,41.22499084472656,273.4441833496094
0,210128,-12.64615535736084,-25.040618896484375,-42.10769271850586,-85.82656860351562
0,210130,51.0977668762207,43.74321746826172,27.187150955200195,198.5385284423828
0,210132,-35.94306564331055,-92.04428100585938,-34.73698806762695,-168.78662109375
0,210134,-52.388893127441406,-77.75507354736328,-91.65015411376953,-422.16290283203125
0,210136,51.42869186401367,133.83689880371094,59.13969802856445,174.5424346923828
0,210138,1.8907654285430908,17.812572479248047,54.7703742980957,-311.6260986328125
0,210140,-9.467169761657715,-105.20947265625,-20.688018798828125,-259.80499267578125
0,210142,11.824856758117676,8.840478897094727,-31.640731811523438,391.2069396972656
0,210144,-10.072834014892578,72.75328063964844,-19.674362182617188,417.8392333984375
0,210146,44.1792106628418,10.406864166259766,30.75880241394043,452.878173828125
0,210148,-47.60933303833008,-46.47498321533203,-16.848751068115234,59.761077880859375
0,210150,-46.930355072021484,9.391810417175293,2.971775531768799,-817.95751953125
0,210152,85.59104919433594,45.05859375,44.354957580566406,-208.49070739746094
0,210154,-3.515209674835205,-13.331331253051758,-25.030752182006836,1210.2205810546875
0,210156,-49.331539154052734,-38.9981689453125,-28.429973602294922,-483.4091491699219
0,210158,-25.516376495361328,-11.313541412353516,4.861185073852539,-1330.161865234375
0,210160,-8.121254920959473,22.132442474365234,47.93062973022461,580.803955078125
0,210162,77.05603790283203,20.833175659179688,28.371196746826172,632.5284423828125
0,210164,12.368022918701172,-5.197721004486084,-57.37316131591797,-465.22271728515625
0,210166,-87.8567123413086,-57.84305191040039,-62.43862533569336,-772.5126342773438
0,210168,38.54322814941406,9.18076229095459,46.680908203125,480.3376770019531
0,210170,56.48600387573242,67.89563751220703,58.00447082519531,1162.607666015625
0,210172,-25.215972900390625,-12.91524887084961,-19.016807556152344,-293.06341552734375
0,210174,18.250459671020508,22.994409561157227,29.150449752807617,-546.1792602539062
0,210176,-10.999907493591309,-14.28848934173584,-22.076658248901367,330.415283203125
0,210178,15.257155418395996,-52.29003143310547,-36.84858703613281,-76.5360336303711
0,210180,8.31645679473877,29.240476608276367,38.097164154052734,-684.213623046875
0,210182,-86.49031066894531,-34.51118469238281,-31.057010650634766,62.779335021972656
0,210183,-20.155311584472656,-21.454683303833008,-4.394462585449219,1121.116455078125
0,210186,-1.7369846105575562,-12.65666675567627,-16.945266723632812,733.8546142578125
0,210187,11.177409172058105,-26.9732666015625,-57.368751525878906,-1113.3052978515625
0,210190,77.30210876464844,102.2798080444336,59.22392272949219,-1123.6568603515625
0,210191,-18.67263412475586,29.854372024536133,51.85643005371094,513.3156127929688
0,210194,-24.862680435180664,-3.5123727321624756,0.12582704424858093,390.7004699707031
0,210195,33.76285171508789,29.163904190063477,-11.860407829284668,57.3319206237793
0,210198,6.943994045257568,-56.16830825805664,-31.680097579956055,116.6707992553711
0,210199,-6.829532623291016,-13.324864387512207,16.480981826782227,-97.99424743652344
0,210202,-28.084980010986328,1.7215627431869507,-24.537803649902344,195.9457550048828
0,210203,24.005643844604492,-25.835922241210938,-11.938851356506348,80.28009033203125
0,210206,23.437030792236328,67.79646301269531,89.45850372314453,-787.18603515625
0,210207,-27.586048126220703,17.622802734375,-20.18423843383789,-224.80247497558594
0,210211,-26.405996322631836,-119.28372192382812,-73.27490234375,630.5767211914062
0,210211,-34.10233688354492,2.1813602447509766,11.057234764099121,-39.99327087402344
0,210214,19.018217086791992,66.74918365478516,21.92599105834961,-56.05726623535156
0,210215,36.00389862060547,-16.997081756591797,5.727759838104248,284.9421081542969
0,210218,-5.8525710105896,-0.8982439637184143,-3.2501065731048584,167.030517578125
0,210219,-12.870261192321777,15.87459659576416,28.724519729614258,-47.672332763671875
0,210222,-5.708703517913818,-20.141281127929688,-5.995857238769531,-410.22662353515625
0,210223,31.45989227294922,-2.780392646789551,-47.21641540527344,-53.376304626464844
0,210226,18.730093002319336,66.21723175048828,38.83124923706055,451.7363586425781
0,210227,-31.333393096923828,49.0609016418457,63.31795120239258,119.03361511230469
0,210230,-14.308184623718262,-69.84728240966797,-61.946285247802734,-366.28668212890625
0,210231,30.241891860961914,-78.61202239990234,-69.50605010986328,-226.9130096435547
0,210234,19.706605911254883,29.588720321655273,38.84794616699219,194.7581024169922
0,210235,-35.63056945800781,7.941263675689697,8.935702323913574,68.3056411743164
0,210238,-21.949542999267578,-12.457830429077148,-5.322774887084961,-342.82745361328125
0,210239,0.6606935858726501,23.849864959716797,8.815520286560059,-40.047245025634766
0,210242,2.14808988571167,-1.3397443294525146,-8.553573608398438,899.8648071289062
0,210243,34.51705551147461,1.2055636644363403,19.105730056762695,212.98370361328125
0,210246,7.5931315422058105,-8.52323055267334,-5.826395034790039,-1291.3685302734375
0,210247,-34.529632568359375,-22.903505325317383,-15.675189018249512,-457.16400146484375
0,210250,33.92980194091797,38.01298141479492,29.535531997680664,906.6632690429688
0,210251,36.48908233642578,32.11514663696289,19.712461471557617,475.2637023925781
0,210254,-37.55399703979492,-16.312339782714844,-19.552621841430664,-208.8006591796875
0,210255,-25.516855239868164,-18.16400718688965,-17.835651397705078,-79.92928314208984
0,210258,-45.549232482910156,-28.79627227783203,-13.29345417022705,-103.3836898803711
0,210259,-6.165493011474609,3.0810348987579346,3.5164260864257812,-106.33138275146484
0,210262,54.23466491699219,6.417133331298828,7.894380569458008,47.608577728271484
0,210263,11.624178886413574,15.379396438598633,-6.404426574707031,16.87378692626953
0,210266,-1.4393571615219116,54.25431823730469,15.113664627075195,40.35629653930664
0,210267,15.503037452697754,-8.519662857055664,17.603548049926758,3.3966569900512695
0,210270,-24.40005874633789,-67.23588562011719,16.859966278076172,-86.03407287597656
0,210271,-12.691559791564941,-12.847548484802246,-19.750736236572266,67.9389877319336
0,210274,81.70794677734375,43.6739501953125,-28.02048110961914,123.48388671875
0,210275,-14.976993560791016,11.990666389465332,5.008071422576904,-100.73664855957031
0,210278,-108.02976989746094,-15.801608085632324,-11.174787521362305,-44.98276901245117
0,210279,19.002099990844727,4.705673694610596,27.798315048217773,25.564559936523438
0,210282,33.34410858154297,-35.711673736572266,6.434303283691406,-69.24449920654297
0,210283,-14.965194702148438,-26.88047218322754,-33.99687957763672,37.019954681396484
0,210286,10.478261947631836,79.484375,11.411396980285645,-29.313312530517578
0,210287,-21.187271118164062,0.6460538506507874,10.293770790100098,-67.45282745361328
0,210290,-0.13458137214183807,-49.14207077026367,0.512774646282196,170.78713989257812
0,210291,77.95771026611328,40.66596984863281,-19.56650733947754,88.2497787475586
0,210294,16.648696899414062,-24.96929168701172,-15.80351448059082,-52.19895553588867
0,210295,-103.56961059570312,-23.794296264648438,8.0618257522583,-75.95063018798828
0,210298,-16.17392921447754,30.693143844604492,34.31190490722656,-92.9941635131836
0,210299,92.8758544921875,-19.93284034729004,47.37100601196289,-51.07054901123047
0,210302,-3.265453577041626,-2.797022581100464,-21.05193328857422,93.85453796386719
0,210303,-41.94277572631836,17.901762008666992,-60.595088958740234,64.94417572021484
0,210306,-28.884777069091797,-5.113704681396484,-12.410747528076172,-34.51491928100586
0,210307,-16.947460174560547,22.616901397705078,27.382726669311523,89.05828094482422
0,210310,81.94811248779297,44.39773178100586,7.530474662780762,37.630943298339844
0,210311,100.80113983154297,6.322478771209717,16.53675079345703,-144.9314727783203
0,210314,-121.6575927734375,-96.0554428100586,-10.598264694213867,-78.90936279296875
0,210315,-144.16647338867188,-35.88425064086914,-38.014869689941406,122.85315704345703
0,210318,151.8755340576172,100.3429946899414,28.502574920654297,118.5892105102539
0,210319,66.83495330810547,-23.0471248626709,16.666627883911133,-25.68216323852539
0,210322,-115.48674774169922,-20.42453956604004,-16.37802505493164,-203.68002319335938
0,210323,-7.995979309082031,64.7125015258789,8.85523796081543,-125.83773040771484
0,210326,97.19064331054688,-50.516300201416016,18.652301788330078,185.73486328125
0,210327,-18.173675537109375,-77.72572326660156,-25.007572174072266,100.42693328857422
0,210330,-129.30540466308594,28.431928634643555,-28.41656494140625,-112.61361694335938
0,210331,61.308902740478516,61.08635330200195,36.163761138916016,115.76124572753906
0,210334,52.64232635498047,-6.500758171081543,-0.05715733394026756,88.9418716430664
0,210335,-92.15396118164062,-19.363786697387695,-30.937660217285156,-143.2802734375
0,210338,57.109718322753906,42.01606369018555,45.63499069213867,-27.18882942199707
0,210339,75.82088470458984,8.820655822753906,18.12242889404297,0.46817901730537415
0,210342,-67.04022216796875,-60.54018783569336,-66.60768127441406,-50.93987274169922
0,210343,-34.486900329589844,1.1659948825836182,-16.159770965576172,-80.2149658203125
0,210346,54.380653381347656,14.745587348937988,33.17767333984375,12.05724048614502
0,210347,47.08767318725586,-2.4815895557403564,25.64581871032715,232.35195922851562
0,210350,-38.99445343017578,27.22785186767578,20.48651885986328,128.12002563476562
0,210351,-53.29518508911133,-9.809062957763672,-4.287728786468506,-155.6140899658203
0,210354,4.412712574005127,-20.424480438232422,-21.51654624938965,-402.345458984375
0,210355,4.538043975830078,-23.660051345825195,-41.71977996826172,-14.555685997009277
0,210358,8.64889907836914,-3.2440404891967773,-9.301603317260742,449.7227783203125
0,210360,29.539958953857422,61.11530685424805,48.49472427368164,93.29302215576172
0,210361,-8.660910606384277,-10.993558883666992,30.621551513671875,-27.737327575683594
0,210363,-13.90072250366211,-26.472618103027344,-40.28150177001953,-30.634689331054688
0,210366,-17.957809448242188,29.99348258972168,-70.76001739501953,-292.43487548828125
0,210367,-13.066204071044922,-19.842647552490234,10.954352378845215,2.694812774658203
0,210370,46.739402770996094,15.402632713317871,87.71682739257812,291.09912109375
0,210371,14.342020034790039,22.92841148376465,46.472232818603516,-39.07628631591797
0,210374,-30.022445678710938,-27.224393844604492,-29.31096649169922,-105.58065795898438
0,210375,-2.0046546459198,0.8408750295639038,-39.0879020690918,58.08107376098633
0,210378,-1.6917699575424194,12.31358528137207,-21.543964385986328,-21.953632354736328
0,210379,21.348438262939453,-20.656539916992188,6.0828351974487305,-65.90278625488281
0,210382,11.31105899810791,-24.44544792175293,3.8284785747528076,-253.75509643554688
0,210383,-33.39993667602539,-12.998374938964844,5.452689170837402,-180.6580352783203
0,210386,11.494830131530762,10.552884101867676,2.0641379356384277,553.1160278320312
0,210387,31.953027725219727,53.106361389160156,14.04903507232666,576.5574951171875
0,210390,-36.773529052734375,-27.163780212402344,1.4552899599075317,-467.78253173828125
0,210391,-57.39746856689453,-48.93617630004883,-58.374595642089844,-546.7733764648438
0,210394,43.44561767578125,48.566001892089844,15.450627326965332,266.0314636230469
0,210395,13.163908958435059,27.698890686035156,42.340450286865234,106.28484344482422
0,210398,-20.890390396118164,-13.077791213989258,19.044872283935547,-48.759376525878906
0,210399,61.90134048461914,-1.8001532554626465,14.77994441986084,132.6808319091797
0,210402,-3.199259042739868,-3.824859857559204,-55.608154296875,-69.3910140991211
0,210403,-56.841617584228516,-20.457117080688477,-42.757423400878906,-70.21757507324219
0,210406,12.088228225708008,7.689469337463379,51.09711456298828,67.57688903808594
0,210407,19.17767906188965,36.04591369628906,31.77809715270996,-3.7958614826202393
0,210410,-29.398351669311523,-10.025125503540039,-24.258302688598633,-76.5167236328125
0,210411,1.421984076499939,-15.279516220092773,-3.5531203746795654,7.783890724182129
0,210414,27.63169288635254,0.39005014300346375,-16.88519287109375,-19.1409912109375
0,210415,-12.502283096313477,-10.611353874206543,-40.147037506103516,-16.36126708984375
0,210418,-4.634143352508545,-19.77410125732422,28.15133285522461,121.75501251220703
0,210419,9.298036575317383,-0.15484829246997833,42.32353591918945,26.008594512939453
0,210422,-8.889909744262695,1.812757134437561,-14.230657577514648,-74.31757354736328
0,210423,-9.076367378234863,-2.1462841033935547,-0.8172643184661865,20.95960235595703
0,210426,10.45678997039795,37.276363372802734,-11.617197036743164,-11.29653549194336
0,210427,19.595441818237305,11.193412780761719,-2.148057460784912,-70.92206573486328
0,210430,-5.180424213409424,-34.70113754272461,44.78764724731445,46.044776916503906
0,210431,-5.51426362991333,-29.724533081054688,-7.799213409423828,105.0100326538086
0,210434,15.301122665405273,26.223852157592773,-41.234718322753906,-76.69465637207031
0,210435,7.499747276306152,57.2477912902832,-6.88292932510376,-87.601318359375
0,210438,-31.36590003967285,-17.96379280090332,-6.5080671310424805,85.85182189941406
0,210439,-12.291051864624023,-35.998348236083984,47.660980224609375,29.2540283203125
0,210442,30.642837524414062,28.067731857299805,14.684009552001953,-81.34222412109375
0,210443,-9.526911735534668,-0.4964345693588257,-46.04941177368164,-23.65923500061035
0,210446,-19.740564346313477,-30.844470977783203,5.730630874633789,117.47673797607422
0,210447,-1.0784492492675781,-14.595785140991211,-11.91109561920166,15.965224266052246
0,210450,-17.113544464111328,16.84222412109375,-9.284561157226562,-169.82774353027344
0,210451,33.79297637939453,58.24580001831055,24.22518539428711,69.04241943359375
0,210454,39.318302154541016,-17.320093154907227,10.549551963806152,224.2095947265625
0,210455,-26.34349250793457,-29.148155212402344,7.13588285446167,-40.70091247558594
0,210458,-20.042871475219727,-2.5548062324523926,7.586050033569336,-176.6632537841797
0,210459,-24.15830421447754,-37.542659759521484,-24.454174041748047,-110.42530059814453
0,210462,21.562524795532227,29.405412673950195,5.935205459594727,-84.33255004882812
0,210463,62.62762451171875,50.502262115478516,37.78546905517578,230.37448120117188
0,210466,-18.5460147857666,-23.561389923095703,-30.8172550201416,223.8416748046875
0,210467,-52.36947250366211,-54.4555778503418,-52.35042190551758,-253.49697875976562
0,210470,-42.943851470947266,-15.116926193237305,-14.077146530151367,-134.23385620117188
0,210471,1.8537250757217407,39.933231353759766,29.31876564025879,64.85540008544922
0,210474,85.25967407226562,39.60708999633789,54.90519714355469,141.2165985107422
0,210475,17.669584274291992,-13.302227020263672,-33.05487060546875,69.86766815185547
0,210478,-73.01177978515625,-37.51836013793945,-49.225276947021484,-198.47523498535156
0,210479,12.814104080200195,2.1618659496307373,59.028785705566406,-76.51842498779297
0,210482,44.81229019165039,44.57707214355469,44.479270935058594,209.90191650390625
0,210483,-18.03533363342285,17.511436462402344,-22.339824676513672,108.1107406616211
0,210486,-8.287585258483887,-19.39936065673828,8.145024299621582,-178.32188415527344
0,210487,17.843217849731445,3.8877737522125244,11.402846336364746,-62.85594177246094
0,210490,2.2295525074005127,11.390671730041504,-32.283843994140625,137.55223083496094
0,210491,-9.81292724609375,-42.05622482299805,8.676437377929688,5.603810787200928
0,210494,-11.890604972839355,-38.562225341796875,-33.38261795043945,-92.03181457519531
0,210495,-23.116756439208984,32.538917541503906,-47.27685546875,-13.578767776489258
0,210498,-11.16950511932373,1.9006154537200928,25.834903717041016,-12.308719635009766
0,210499,36.38125991821289,-23.157520294189453,26.170902252197266,24.683420181274414
0,210502,24.618915557861328,41.023193359375,-2.9056968688964844,94.28243255615234
0,210503,-51.44748306274414,22.701913833618164,-27.9550724029541,-8.680355072021484
0,210506,6.285387992858887,-35.67827224731445,14.114435195922852,-60.69221496582031
0,210508,16.340970993041992,-34.816829681396484,39.23601150512695,-24.584775924682617
0,210510,-38.12690734863281,37.81700897216797,21.231931686401367,-60.92020034790039
0,210512,42.39363479614258,52.83795928955078,0.46359866857528687,-3.2384936809539795
0,210514,16.548940658569336,-47.33226013183594,-72.376220703125,35.645477294921875
0,210516,-21.828289031982422,-38.799072265625,-19.60251235961914,60.157440185546875
0,210518,17.971826553344727,27.910123825073242,103.42720031738281,140.2497100830078
0,210520,-6.9201788902282715,29.869365692138672,-11.491202354431152,-61.531219482421875
0,210521,2.849916458129883,13.007901191711426,-54.018306732177734,-104.58651733398438
0,210524,4.492690086364746,-49.20321273803711,23.319507598876953,69.18416595458984
0,210525,3.316436290740967,-9.696137428283691,7.810699462890625,-59.694000244140625
0,210528,7.202890872955322,45.90463638305664,-24.739213943481445,-111.60835266113281
0,210529,-53.16313171386719,-48.1446647644043,-4.562289714813232,-8.691719055175781
0,210532,-10.058416366577148,-2.545527458190918,30.13088035583496,129.9375457763672
0,210533,36.95976257324219,64.23231506347656,-24.717187881469727,112.88299560546875
0,210536,-9.029218673706055,-29.92367172241211,-7.564488410949707,-110.89955139160156
0,210537,12.059416770935059,-6.994246482849121,36.77968978881836,-56.42987060546875
0,210540,11.670100212097168,35.67470932006836,-5.5760650634765625,98.47600555419922
0,210541,-36.08697509765625,-34.95783996582031,-25.633384704589844,34.17320251464844
0,210544,4.640271186828613,-20.154638290405273,-6.232606410980225,-126.54750061035156
0,210545,26.8464298248291,1.9790500402450562,-29.576274871826172,-90.2988510131836
0,210548,2.1128714084625244,3.4647510051727295,-4.390902042388916,161.73094177246094
0,210549,8.424771308898926,34.866573333740234,38.85438537597656,141.8470916748047
0,210552,-36.26389694213867,-6.241572856903076,45.3004150390625,-96.71041107177734
0,210553,-5.844658374786377,-13.209602355957031,26.901220321655273,-82.08472442626953
0,210556,51.850711822509766,23.698410034179688,-59.33812713623047,2.4861488342285156
0,210557,-38.02497100830078,-10.2271089553833,-15.026613235473633,-34.787113189697266
0,210560,-15.866543769836426,-19.02484130859375,46.806270599365234,60.72700119018555
0,210561,54.91067886352539,5.461809158325195,-4.163201332092285,64.95355224609375
0,210564,-29.281761169433594,-11.886017799377441,-48.09007263183594,-87.8322982788086
0,210565,-13.957405090332031,-10.544400215148926,-1.2256511449813843,1.744421362876892
0,210568,46.943382263183594,29.425039291381836,65.14337158203125,83.97035217285156
0,210569,-41.278194427490234,14.549179077148438,-24.920413970947266,-73.47769165039062
0,210572,-48.29861831665039,-28.953889846801758,-62.43655776977539,-98.52951049804688
0,210573,40.17328643798828,-5.761772155761719,-11.32024097442627,28.693660736083984
0,210576,14.0305814743042,-9.93188190460205,-35.31287384033203,46.68977737426758
0,210577,10.645965576171875,10.609380722045898,41.96089553833008,20.922746658325195
0,210580,20.706987380981445,32.884586334228516,110.53406524658203,14.756088256835938
0,210581,-43.65673065185547,-13.912263870239258,2.3427138328552246,-13.694685935974121
0,210584,41.36229705810547,32.3724365234375,-35.08844757080078,-14.458795547485352
0,210585,15.386221885681152,2.5678396224975586,-19.030263900756836,28.242319107055664
0,210588,-89.65827178955078,-79.27159118652344,-41.37268829345703,26.11583137512207
0,210589,31.859155654907227,7.407343864440918,25.511398315429688,-0.6770409941673279
0,210592,34.18670654296875,50.83782196044922,57.20536422729492,-19.934282302856445
0,210593,-9.44572925567627,-27.362119674682617,-21.542879104614258,-35.767337799072266
0,210596,-2.2218453884124756,-6.876766681671143,-55.57102966308594,-20.711088180541992
0,210597,-44.972904205322266,36.30544662475586,-24.938344955444336,-56.43119812011719
0,210600,-17.735576629638672,-42.12385559082031,10.176180839538574,22.0474853515625
0,210601,30.704025268554688,-16.26447868347168,14.899478912353516,84.80901336669922
0,210604,45.44306945800781,81.35001373291016,53.82086944580078,66.57940673828125
0,210605,-6.312201499938965,7.812377452850342,13.637713432312012,23.896120071411133
0,210608,-45.102561950683594,-63.491058349609375,-81.713623046875,-146.5818328857422
0,210609,29.898344039916992,0.05251036584377289,21.330835342407227,-43.183223724365234
0,210612,22.844594955444336,2.5270121097564697,67.71199798583984,74.3490982055664
0,210613,-17.979228973388672,-1.6470210552215576,-4.781765937805176,58.227779388427734
0,210616,17.24701690673828,26.686405181884766,-17.906593322753906,44.094486236572266
0,210617,3.9148354530334473,6.280154228210449,-10.689862251281738,-74.23660278320312
0,210620,-29.514528274536133,-48.569828033447266,-53.107784271240234,-119.68017578125
0,210621,-23.637853622436523,-25.39058494567871,-36.669227600097656,-56.41222381591797
0,210624,27.563711166381836,58.677040100097656,54.31498718261719,182.54164123535156
0,210625,13.695869445800781,4.756222724914551,34.346073150634766,161.32156372070312
0,210628,-15.968335151672363,-27.60337257385254,-19.27773094177246,-140.22247314453125
0,210629,-5.779561996459961,10.089193344116211,10.655797958374023,-131.60281372070312
0,210632,10.475882530212402,23.831371307373047,21.252866744995117,-111.6258316040039
0,210633,32.78036880493164,28.253875732421875,-16.817811965942383,34.78369903564453
0,210636,-57.141761779785156,-64.37964630126953,-4.657161235809326,252.28128051757812
0,210637,-41.66230773925781,-50.43600845336914,-6.39204740524292,45.64238739013672
0,210640,62.42852783203125,77.86735534667969,9.475601196289062,11.266443252563477
0,210641,7.859581470489502,28.832426071166992,36.297847747802734,64.65852355957031
0,210644,-12.302793502807617,-36.20189666748047,-22.69489097595215,-257.98431396484375
0,210645,3.8827121257781982,7.31425142288208,-51.38225555419922,-273.4102783203125
0,210648,-22.53921127319336,-12.920235633850098,-15.626856803894043,267.1846618652344
0,210649,24.085481643676758,-16.46052360534668,-0.7701840400695801,354.0404052734375
0,210652,19.85828399658203,23.377079010009766,8.568702697753906,-236.78994750976562
0,210653,-32.99310302734375,-0.49106210470199585,-3.932832956314087,-255.17356872558594
0,210656,4.6732611656188965,2.0020017623901367,27.92413902282715,163.2990264892578
0,210657,-6.179753303527832,3.3533694744110107,56.23570251464844,87.66035461425781
0,210660,13.825837135314941,18.082063674926758,13.615094184875488,-64.60859680175781
0,210661,46.572357177734375,-13.620613098144531,-4.897528648376465,39.801551818847656
0,210664,-46.21395492553711,-83.09088897705078,-85.28755950927734,-37.90227508544922
0,210665,-32.59114456176758,32.19914627075195,-39.67673110961914,-141.90097045898438
0,210668,25.115068435668945,80.0780258178711,93.83252716064453,101.56844329833984
0,210669,5.398282051086426,-40.0430793762207,28.295198440551758,54.164794921875
0,210672,38.12443923950195,-19.700185775756836,-75.18387603759766,12.676173210144043
0,210673,-17.984485626220703,9.57319450378418,-30.4349308013916,120.52534484863281
0,210676,-52.93095779418945,-13.407120704650879,51.32267379760742,-119.88160705566406
0,210677,30.531890869140625,38.13838195800781,25.175710678100586,-54.81672668457031
0,210680,10.79239273071289,16.790382385253906,4.056682109832764,18.35699462890625
0,210681,-17.69366455078125,-60.3091926574707,-43.09265899658203,-93.49281311035156
0,210684,19.386432647705078,5.253696918487549,-22.022933959960938,10.999571800231934
0,210685,0.8787914514541626,85.97407531738281,81.2226333618164,126.28285217285156
0,210688,-9.196061134338379,-33.1303825378418,10.37654972076416,155.1156005859375
0,210689,10.688454627990723,-56.91830062866211,-62.85654067993164,-65.09082794189453
0,210692,-36.52763748168945,17.9834041595459,-10.341641426086426,-167.6803741455078
0,210693,4.33773946762085,-25.974695205688477,2.3335797786712646,11.570009231567383
0,210696,66.48262023925781,31.817060470581055,22.694154739379883,40.49555206298828
0,210697,-28.23659896850586,41.8464241027832,11.271245956420898,-15.117183685302734
0,210700,-64.19863891601562,-79.41610717773438,-64.96575927734375,-64.63609313964844
0,210701,17.9525089263916,-14.442667961120605,2.301846742630005,-11.271220207214355
0,210704,29.603206634521484,72.895751953125,64.17829895019531,152.17617797851562
0,210705,-3.0704100131988525,-15.073343276977539,28.973913192749023,67.58700561523438
0,210708,-7.805304050445557,-9.517654418945312,-11.36620807647705,-177.78927612304688
0,210709,10.600781440734863,31.17006492614746,7.906918525695801,-89.24522399902344
0,210714,27.551671981811523,-26.546857833862305,-1.9098806381225586,156.38650512695312
0,210714,-5.19760799407959,8.041994094848633,-58.136619567871094,42.35866165161133
0,210715,-27.89418601989746,28.80320930480957,5.213134765625,-96.55093383789062
0,210718,-18.950891494750977,-34.67706298828125,16.63100242614746,-19.757583618164062
0,210719,11.026567459106445,-34.37929916381836,-1.372049331665039,38.76927947998047
0,210722,27.715801239013672,4.9785661697387695,-13.493663787841797,45.268428802490234
0,210723,-15.182703971862793,26.79826545715332,-27.74388885498047,-2.3867597579956055
0,210726,-17.22731590270996,12.175684928894043,-0.5509704947471619,5.284127235412598
0,210727,25.727148056030273,-28.305002212524414,15.060043334960938,-4.249751567840576
0,210730,-12.260636329650879,-8.198681831359863,24.544836044311523,-61.70712661743164
0,210731,-110.42040252685547,-27.4267635345459,-9.10544490814209,-84.2352294921875
0,210734,43.2727165222168,24.77505111694336,30.52313995361328,71.15446472167969
0,210735,167.4483184814453,124.90829467773438,33.1561164855957,165.078369140625
0,210738,-40.34736633300781,-43.45635986328125,-60.28193283081055,-70.04329681396484
0,210739,-48.81877517700195,-90.77638244628906,-5.86868143081665,-82.5406494140625
0,210742,33.156375885009766,54.1927375793457,56.9697265625,25.8984375
0,210743,-26.772214889526367,32.79001235961914,-20.43868637084961,0.0979391485452652
0,210746,-35.73551940917969,-35.719783782958984,-50.26869201660156,-22.475357055664062
0,210747,-10.578391075134277,-49.34441375732422,30.76893424987793,-19.0526180267334
0,210750,35.53514099121094,3.399193525314331,9.152262687683105,-37.780174255371094
0,210751,41.23015594482422,58.876487731933594,-21.71889877319336,-0.15222622454166412
0,210754,-40.7239990234375,-50.13451385498047,7.615955829620361,193.46864318847656
0,210755,-30.474716186523438,-59.89963150024414,-46.42950439453125,-29.04140281677246
0,210758,32.94404220581055,91.90132141113281,20.021339416503906,-162.844482421875
0,210759,-8.222073554992676,49.368927001953125,74.64473724365234,212.79238891601562
0,210762,-21.70412254333496,-49.85671615600586,-60.1673698425293,-55.65034103393555
0,210763,29.254058837890625,5.30009651184082,-34.193931579589844,-278.775390625
0,210766,4.235194206237793,-2.543964385986328,67.1130599975586,169.2843475341797
0,210767,-10.542486190795898,-45.219818115234375,0.8071672916412354,114.55225372314453
0,210770,10.92807674407959,19.228776931762695,-45.396976470947266,-98.69743347167969
0,210771,-2.3919529914855957,45.69410705566406,1.5287753343582153,23.061321258544922
0,210774,27.8414363861084,25.854352951049805,44.09233474731445,14.791808128356934
0,210775,-13.54041576385498,-56.007991790771484,4.925747871398926,-25.77531623840332
0,210778,-29.161230087280273,-45.77028274536133,-14.793285369873047,13.602527618408203
0,210779,-5.431827068328857,33.90485382080078,-19.237592697143555,-1.95235276222229
0,210782,-28.004850387573242,13.293791770935059,-28.02389907836914,-48.625404357910156
0,210783,37.94636535644531,7.000319957733154,34.22834396362305,-3.786249876022339
0,210786,28.35263442993164,-8.436624526977539,40.610477447509766,124.32660675048828
0,210787,-23.242212295532227,-20.184690475463867,-17.91851234436035,23.694215774536133
0,210790,-11.99087905883789,18.883275985717773,-9.364097595214844,-116.47819519042969
0,210791,1.555457592010498,30.76715087890625,-5.834685325622559,29.889263153076172
0,210794,13.61523723602295,-43.295753479003906,-52.784950256347656,28.38087272644043
0,210795,-3.8713579177856445,-25.340984344482422,17.373584747314453,-137.4344482421875
0,210798,-8.922163009643555,44.3569450378418,46.45829391479492,-13.2275390625
0,210799,-1.8844126462936401,-10.771235466003418,-12.887813568115234,142.34793090820312
0,210802,4.284588813781738,-8.493937492370605,-9.633471488952637,18.880617141723633
0,210803,4.388315677642822,29.926456451416016,-5.183745861053467,-40.53813552856445
0,210806,16.82448959350586,-1.920864224433899,8.601336479187012,21.268028259277344
0,210807,21.979476928710938,-20.663650512695312,15.081318855285645,-3.9995036125183105
0,210810,-29.444766998291016,16.949989318847656,7.699737071990967,-91.3116455078125
0,210811,-32.00543975830078,14.481706619262695,-31.214447021484375,-11.703320503234863
0,210814,25.394006729125977,-35.99771499633789,-14.81847858428955,119.44725036621094
0,210815,-0.3736504316329956,9.612112045288086,36.39175033569336,-5.254019737243652
0,210818,-26.192724227905273,19.643447875976562,8.855574607849121,-83.25001525878906
0,210819,11.76827335357666,-41.98444747924805,-24.874963760375977,-62.36943817138672
0,210822,14.304296493530273,-0.5615560412406921,-27.23919677734375,79.53252410888672
0,210823,8.323953628540039,23.647178649902344,24.500585556030273,111.97333526611328
0,210826,-14.843963623046875,-6.029596328735352,25.889728546142578,-84.96969604492188
0,210827,-25.55611801147461,-3.789263963699341,-17.970623016357422,3.811640739440918
0,210830,43.24079895019531,52.73805618286133,10.154948234558105,65.0805892944336
0,210831,43.27104187011719,27.41238021850586,15.600817680358887,-84.84295654296875
0,210834,-71.1834945678711,-111.09591674804688,-44.92182159423828,-33.08207321166992
0,210835,-38.01215362548828,-10.456788063049316,-8.348745346069336,78.51025390625
0,210838,74.01370239257812,87.80956268310547,60.16310501098633,-2.8010189533233643
0,210839,-13.233692169189453,-34.9776725769043,-5.938980579376221,-28.3859806060791
0,210842,-44.77644348144531,-32.28580856323242,-59.6131706237793,-11.504393577575684
0,210843,27.987964630126953,45.1817626953125,-22.97460174560547,-24.193090438842773
0,210846,13.132288932800293,-71.64974975585938,-0.5108935832977295,-11.867319107055664
0,210847,38.30393981933594,-7.431454658508301,-52.23979187011719,-30.87194061279297
0,210850,-12.0403470993042,138.3931427001953,40.944007873535156,60.58744430541992
0,210851,-70.9485855102539,-55.53396224975586,133.7808837890625,75.39293670654297
0,210854,23.635883331298828,-47.86487579345703,9.138221740722656,-95.04068756103516
0,210855,54.66121292114258,46.692501068115234,-31.563806533813477,-119.2323989868164
0,210858,-3.1449196338653564,-1.2646565437316895,-31.845855712890625,140.75125122070312
0,210859,-63.834957122802734,-6.93180513381958,-7.2857584953308105,192.90377807617188
0,210862,9.93694019317627,-18.74104881286621,46.533016204833984,-103.1469497680664
0,210863,44.028221130371094,8.754777908325195,-29.19469451904297,-128.51473999023438
0,210866,-41.366539001464844,15.58065414428711,-18.531431198120117,54.048828125
0,210867,-4.946142196655273,-4.994027137756348,31.855735778808594,52.323333740234375
0,210870,35.56270980834961,-5.345768928527832,-27.06122589111328,1.9033781290054321
0,210871,-2.74674654006958,10.849017143249512,5.557851314544678,11.103769302368164
0,210874,-47.6645622253418,-30.75157928466797,-24.36577606201172,-66.96820068359375
0,210875,22.114425659179688,-7.060848712921143,-58.96675109863281,-38.35286331176758
0,210878,28.055091857910156,48.96220016479492,42.35319900512695,67.31546783447266
0,210879,-29.90781593322754,-21.69723892211914,37.95660400390625,-14.971997261047363
0,210882,44.95165252685547,0.28371137380599976,-7.5090651512146,-49.08124923706055
0,210883,-0.018919015303254128,13.510611534118652,3.9012627601623535,19.22161102294922
0,210886,-53.669525146484375,-29.47834587097168,6.429781436920166,6.857480049133301
0,210887,22.743755340576172,16.03456687927246,-8.486588478088379,-14.226001739501953
0,210890,-18.023571014404297,-10.053593635559082,-4.927121639251709,23.90251350402832
0,210891,-17.458724975585938,-42.915313720703125,-3.1303305625915527,22.167856216430664
0,210894,64.66679382324219,48.768707275390625,18.75704002380371,46.04985046386719
0,210895,0.15989573299884796,44.5561637878418,-6.385341167449951,-11.986807823181152
0,210898,-36.167171478271484,-45.64250946044922,-62.77751159667969,-149.18540954589844
0,210899,-4.8169145584106445,-30.83209800720215,4.523717403411865,-26.414358139038086
0,210902,-6.382470607757568,32.47995376586914,82.50222778320312,134.1486053466797
0,210903,0.21064598858356476,-0.16379152238368988,45.27024841308594,48.911720275878906
1,210907,19.481603622436523,-20.503026962280273,-76.09622192382812,-56.292354583740234
1,210907,35.34189987182617,48.128509521484375,-63.20402526855469,-36.15964889526367
1,210910,1.8989155292510986,-12.944034576416016,73.31269073486328,14.763036727905273
1,210911,-50.930267333984375,-44.36854553222656,28.59166717529297,35.55392837524414
1,210914,-8.101156234741211,9.557225227355957,-69.72251892089844,-3.9993996620178223
1,210915,58.943294525146484,43.596004486083984,20.2662296295166,-11.740579605102539
1,210918,-7.114124774932861,3.650113105773926,49.505489349365234,-8.402111053466797
1,210919,-55.9588737487793,-51.765472412109375,-41.49108123779297,12.679418563842773
1,210922,8.56655502319336,19.533605575561523,-20.1871337890625,29.502098083496094
1,210923,22.582712173461914,21.823543548583984,-8.040631294250488,-54.428401947021484
1,210926,-9.777771949768066,-8.28316593170166,1.1582242250442505,-60.97273635864258
1,210927,1.4332648515701294,1.3810063600540161,51.45953369140625,56.119346618652344
1,210930,-14.2230863571167,-8.684639930725098,-26.58376121520996,97.92762756347656
1,210931,10.179762840270996,-12.654240608215332,-45.96846008300781,-68.05341339111328
1,210934,38.11351776123047,18.644371032714844,45.84814453125,-79.40632629394531
1,210935,-29.14421844482422,-4.425164222717285,13.508642196655273,57.499305725097656
1,210938,-8.302706718444824,-19.30420684814453,-3.822672128677368,62.01409912109375
1,210939,39.91874694824219,15.704549789428711,9.20932674407959,33.38103103637695
1,210942,-41.55714416503906,-19.632354736328125,-6.4484453201293945,-43.16928482055664
1,210943,-27.393762588500977,33.53450393676758,-10.794145584106445,-40.30101776123047
1,210946,56.9595947265625,17.21539878845215,-8.168573379516602,-44.206275939941406
1,210947,-31.11677360534668,-55.89487838745117,31.840518951416016,-74.353271484375
1,210950,-16.377424240112305,25.341344833374023,-9.51108169555664,119.16799926757812
1,210951,38.87834167480469,17.874881744384766,-21.56857681274414,98.69322204589844
1,210954,-35.031700134277344,-35.595890045166016,8.05456256866455,-98.3744125366211
1,210955,17.207656860351562,4.650642395019531,2.6987781524658203,37.737545013427734
1,210958,34.91293716430664,7.642759323120117,12.577272415161133,-0.11676367372274399
1,210959,-29.382307052612305,-24.197717666625977,-23.303939819335938,-115.97640228271484
1,210962,1.2961355447769165,32.5813102722168,-12.115574836730957,43.365726470947266
1,210963,10.412688255310059,52.177886962890625,28.530550003051758,21.954221725463867
1,210966,0.6024733781814575,-42.44563674926758,5.8662567138671875,8.833541870117188
1,210967,-1.9260120391845703,-49.86725997924805,-21.115007400512695,14.809198379516602
1,210970,-21.993276596069336,27.432390213012695,12.55589485168457,-51.26964569091797
1,210971,0.2169419229030609,16.089839935302734,9.824941635131836,11.347365379333496
1,210974,11.923420906066895,-47.54660415649414,-54.26280212402344,39.68711471557617
1,210975,11.71878433227539,18.740747451782227,0.19818584620952606,-45.04513168334961
1,210978,-10.631895065307617,44.47625732421875,56.60816192626953,39.574363708496094
1,210979,-28.75876808166504,-26.962215423583984,6.112907886505127,99.52355194091797
1,210982,16.839967727661133,9.56180477142334,-36.28603744506836,-90.49958801269531
1,210983,13.593168258666992,-5.278502464294434,-19.508588790893555,-47.63285446166992
1,210986,-23.091196060180664,1.5755724906921387,17.059478759765625,-75.10238647460938
1,210987,1.9594477415084839,16.440397262573242,30.096370697021484,-62.627418518066406
1,210990,0.5302287936210632,-34.021358489990234,12.518570899963379,285.7101135253906
1,210991,11.312803268432617,30.964229583740234,-22.22576332092285,98.18838500976562
1,210994,42.917598724365234,46.50131607055664,-14.868557929992676,-240.53067016601562
1,210995,-0.22177228331565857,-10.78386116027832,7.46509313583374,-20.266902923583984
1,210998,-48.88529968261719,-53.021263122558594,16.971221923828125,95.11913299560547
1,210999,-19.827800750732422,-26.047590255737305,19.68472671508789,-23.655712127685547
1,211002,50.30775451660156,48.450355529785156,-15.68983268737793,-53.582801818847656
1,211003,18.478124618530273,-0.4446251392364502,-52.0728645324707,21.242225646972656
1,211006,-49.61275100708008,-63.01873779296875,-26.657716751098633,59.64659881591797
1,211007,-22.879255294799805,-6.440557956695557,34.5870361328125,-51.41057586669922
1,211010,39.80598449707031,33.37715530395508,38.15580749511719,-9.394845962524414
1,211011,17.541765213012695,13.69046401977539,-2.6193416118621826,60.57411193847656
1,211014,-11.931342124938965,14.040340423583984,4.797179222106934,-35.53535461425781
1,211015,4.383640766143799,15.181306838989258,-1.694772720336914,-63.2415657043457
1,211018,-31.549549102783203,-29.26120376586914,-17.456357955932617,-115.9743881225586
1,211019,-10.385039329528809,-46.51317596435547,-4.520048141479492,37.45156478881836
1,211022,48.2670783996582,49.68032455444336,1.1296623945236206,246.7796630859375
1,211023,-7.185625076293945,53.900203704833984,28.9427547454834,0.39034825563430786
1,211026,-19.74941635131836,-38.404754638671875,19.143373489379883,-120.16636657714844
1,211027,4.510270595550537,-13.31564998626709,-37.42441177368164,4.231784343719482
1,211030,-0.046757202595472336,4.383184432983398,-13.067232131958008,98.90447998046875
1,211031,-18.463363647460938,-45.767940521240234,20.289316177368164,-13.1912260055542
1,211034,-22.76818084716797,-4.444598197937012,-7.310438632965088,-179.24049377441406
1,211035,45.950218200683594,57.820743560791016,-4.142830848693848,17.72995948791504
1,211038,4.987398147583008,-6.1707377433776855,-15.935728073120117,68.42578125
1,211039,1.2481200695037842,-16.414907455444336,5.208099365234375,-7.217578887939453
1,211042,29.498743057250977,51.433433532714844,15.772204399108887,38.17139434814453
1,211043,-31.07621955871582,10.413145065307617,-31.798656463623047,-0.6850101351737976
1,211046,-2.746626615524292,-63.15598678588867,-6.533778667449951,-2.2767298221588135
1,211047,-11.508021354675293,-49.796268463134766,7.150473594665527,-76.40164947509766
1,211050,-17.173036575317383,32.550254821777344,38.43793487548828,-110.25281524658203
1,211051,24.185863494873047,26.05714225769043,26.4168758392334,101.8627700805664
1,211054,16.41167449951172,17.303264617919922,-23.763296127319336,133.15379333496094
1,211055,28.073802947998047,57.750450134277344,-8.209248542785645,-0.7044277787208557
1,211058,-33.194923400878906,-75.51112365722656,-7.2587456703186035,-10.33036994934082
1,211060,-65.53653717041016,-78.91112518310547,13.738273620605469,-49.52964401245117
1,211062,39.07210922241211,89.1026611328125,5.173945903778076,-34.48472213745117
1,211064,49.917938232421875,47.564430236816406,3.6751413345336914,44.40534973144531
1,211066,-33.43980026245117,-49.915321350097656,-20.00061798095703,-51.52381896972656
1,211068,-14.213376998901367,-10.99062442779541,-31.29009246826172,-32.362396240234375
1,211070,18.083139419555664,21.19481086730957,47.43830490112305,105.38471984863281
1,211072,-19.8890438079834,-29.084251403808594,10.467279434204102,-2.4115920066833496
1,211073,-35.94341278076172,-19.76681137084961,-66.81343841552734,-114.17625427246094
1,211076,25.361299514770508,32.44318771362305,-26.36383819580078,11.123568534851074
1,211077,51.181541442871094,24.880149841308594,46.828704833984375,82.39449310302734
1,211080,-26.123510360717773,-39.89937973022461,33.1701545715332,4.492635250091553
1,211081,-4.389162540435791,-31.354551315307617,-3.3963730335235596,-32.868560791015625
1,211084,26.836217880249023,45.01577377319336,14.79878044128418,-2.514726400375366
1,211085,-20.396291732788086,6.935116291046143,-33.14231872558594,26.67931365966797
1,211088,-6.933653354644775,-0.6114485263824463,-18.66465187072754,10.325079917907715
1,211089,12.187056541442871,12.566054344177246,52.10801315307617,-7.307229995727539
1,211092,15.458062171936035,-6.819747447967529,14.062603950500488,-23.976747512817383
1,211093,11.976137161254883,11.014398574829102,-33.96598815917969,-36.255985260009766
1,211096,-25.760759353637695,-34.890323638916016,-52.523468017578125,18.891061782836914
1,211097,-22.173410415649414,-17.840539932250977,-4.319102764129639,26.91629409790039
1,211100,8.469264030456543,30.429685592651367,66.2203369140625,-35.30942153930664
1,211101,-7.575870513916016,-34.63249206542969,10.867733001708984,1.0045971870422363
1,211104,-11.151409149169922,26.67694664001465,-24.40080451965332,79.09461975097656
1,211105,11.56710147857666,59.87644577026367,24.730426788330078,29.09913444519043
1,212363,-18.235416412353516,-127.88459014892578,-16.99866485595703,-81.52011108398438
1,212366,110.43909454345703,75.03166961669922,3.3647642135620117,-20.152307510375977
1,212367,45.55403137207031,141.7652130126953,0.14742913842201233,30.08092498779297
1,212370,-215.46266174316406,-174.3276824951172,-66.42816925048828,-12.481451034545898
1,212371,12.79887866973877,-6.821247577667236,48.15878677368164,-1.3686085939407349
1,212374,105.65992736816406,104.13398742675781,42.35826110839844,18.124746322631836
1,212375,-47.90872573852539,-41.79808807373047,-40.06626510620117,25.565706253051758
1,212377,0.074571892619133,-37.76875686645508,17.954492568969727,-30.1840877532959
1,212380,-12.67022705078125,-22.711530685424805,-8.844240188598633,-55.47005844116211
1,212381,5.0093159675598145,-14.556191444396973,-32.18103790283203,20.31468391418457
1,212384,58.83156967163086,36.548377990722656,30.739362716674805,51.257530212402344
1,212385,-11.207413673400879,16.176307678222656,-1.2342709302902222,-22.35486602783203
1,212388,-11.341193199157715,14.043724060058594,-25.635377883911133,-5.683737277984619
1,212389,5.929855823516846,47.45299530029297,17.436922073364258,4.921292781829834
1,212392,-31.502784729003906,-33.65641784667969,-5.632211685180664,-40.50593566894531
1,212393,-40.014686584472656,-26.508535385131836,4.788204669952393,28.794374465942383
1,212396,21.074018478393555,9.87071418762207,-1.6769524812698364,22.536264419555664
1,212397,84.9626693725586,-17.098981857299805,-7.080074787139893,10.234698295593262
1,212400,3.1872026920318604,0.8242049813270569,47.41123580932617,-7.735324382781982
1,212401,-44.782920837402344,-6.937309265136719,-3.588010311126709,-24.17981719970703
1,212404,-16.118906021118164,-5.1666364669799805,-52.89772415161133,100.20870971679688
1,212405,-9.985651016235352,5.397683620452881,4.865411281585693,-43.307151794433594
1,212408,-15.476018905639648,7.5017409324646,-8.045552253723145,-134.3348388671875
1,212410,42.856048583984375,17.262727737426758,-10.68075942993164,51.1541748046875
1,212412,50.393394470214844,-17.405427932739258,63.78939437866211,53.822566986083984
1,212414,-39.61680221557617,-9.514472961425781,13.131857872009277,9.710553169250488
1,212416,-40.070648193359375,15.785299301147461,-26.246986389160156,-48.86029815673828
1,212418,-19.95924949645996,-40.90696716308594,-14.10438060760498,-8.460711479187012
1,212420,7.159195423126221,3.218864917755127,13.117348670959473,70.58229064941406
1,212422,46.87892532348633,64.5777816772461,5.639180660247803,-35.3187141418457
1,212424,8.040871620178223,-13.518556594848633,-39.26959228515625,-27.88813018798828
1,212426,-40.8043212890625,-23.468366622924805,25.757131576538086,63.8426628112793
1,212428,5.704223155975342,19.641433715820312,48.07097625732422,4.120319366455078
1,212430,36.375526428222656,12.509066581726074,-37.3453483581543,-44.777488708496094
1,212432,-26.959392547607422,-2.8837220668792725,-57.75130081176758,7.811654090881348
1,212434,-22.632566452026367,-14.698904991149902,-10.300926208496094,-9.819740295410156
1,212436,41.54366683959961,6.029733180999756,18.896381378173828,-41.35853958129883
1,212438,5.642157077789307,-3.5714457035064697,55.04811096191406,1.4223941564559937
1,212439,-41.06523513793945,-28.345537185668945,-1.077147364616394,13.862591743469238
1,212442,4.857423305511475,7.207398891448975,-40.641597747802734,14.688572883605957
1,212443,5.408468246459961,9.623339653015137,19.59701156616211,28.322044372558594
1,212446,-16.102439880371094,-16.556386947631836,-6.07597541809082,-15.889540672302246
1,212447,21.48017120361328,15.871803283691406,-12.185884475708008,-11.144429206848145
1,212450,13.994572639465332,33.28684616088867,29.458885192871094,12.88253116607666
1,212451,10.422865867614746,2.4095282554626465,19.1485538482666,-15.977907180786133
1,212454,-0.49389511346817017,-27.89158058166504,-30.324504852294922,21.36219024658203
1,212455,-42.62985610961914,-23.217824935913086,-24.286640167236328,40.04167175292969
1,212458,2.1666996479034424,11.507174491882324,30.807600021362305,-17.68045425415039
1,212459,42.07581329345703,1.9820244312286377,21.629600524902344,-75.84465026855469
1,212462,0.5733056664466858,-16.195133209228516,-29.233062744140625,31.56686019897461
1,212463,-34.90766525268555,5.7998738288879395,-29.95742416381836,81.3504638671875
1,212466,-5.811501502990723,37.67121887207031,49.66123962402344,-81.45355224609375
1,212467,30.6435546875,-1.2772068977355957,31.138717651367188,-10.504006385803223
1,212470,-2.025834560394287,-17.511371612548828,-28.390853881835938,78.448486328125
1,212471,-24.908231735229492,-18.94887924194336,-27.42081069946289,-52.33201599121094
1,212474,7.919505596160889,-18.475603103637695,-17.99245834350586,-80.57707214355469
1,212475,17.57316780090332,74.85462188720703,9.713025093078613,50.990875244140625
1,212478,-0.13612259924411774,17.79017448425293,10.380478858947754,97.80904388427734
1,212479,-5.720912933349609,-70.17279815673828,21.933067321777344,-25.45928192138672
1,212482,4.216161251068115,-0.7030302286148071,-5.329493999481201,-64.69424438476562
1,212483,-1.4087904691696167,40.6422233581543,-19.648353576660156,-6.277174949645996
1,212486,-12.935660362243652,-8.26601505279541,7.618464946746826,17.37726593017578
1,212487,-6.262309551239014,-57.18735122680664,-38.0599365234375,37.46552658081055
1,212490,-6.964700698852539,8.326123237609863,10.830729484558105,26.53008460998535
1,212491,-14.795681953430176,30.389711380004883,31.873987197875977,-35.772762298583984
1,212494,19.972379684448242,-23.350383758544922,-40.34395980834961,-223.94874572753906
1,212495,38.67860412597656,27.527057647705078,26.031845092773438,-53.242916107177734
1,212498,-8.979886054992676,31.536725997924805,48.17267990112305,380.52325439453125
1,212500,-30.685504913330078,-52.49462890625,-29.645231246948242,99.57097625732422
1,212502,6.64107084274292,-17.94300079345703,-45.84164047241211,-247.9102783203125
1,212504,17.012529373168945,47.99220275878906,20.349843978881836,-39.02049255371094
1,212506,-6.814301490783691,0.44594594836235046,58.50492858886719,97.9277572631836
1,212508,-0.1583213061094284,-9.64820671081543,-4.342364311218262,2.144902229309082
1,212510,1.3827006816864014,15.471880912780762,-13.885431289672852,-12.476451873779297
1,212512,-7.746246814727783,-39.03136444091797,1.712241291999817,11.832738876342773
1,212513,-9.7219877243042,-6.766754150390625,-48.83480453491211,5.403323650360107
1,212516,0.3237457573413849,41.56342697143555,-0.42528703808784485,10.880816459655762
1,212517,6.897364616394043,-16.0079402923584,49.058712005615234,-43.314659118652344
1,212520,7.758913040161133,-8.252157211303711,-5.281992435455322,-28.665119171142578
1,212522,17.49151611328125,23.60443687438965,-28.910940170288086,8.513782501220703
1,212523,-6.847726345062256,-21.600683212280273,-20.915584564208984,-4.977810382843018
1,212526,-2.550468683242798,-13.167374610900879,23.773202896118164,-16.724239349365234
1,212527,17.126792907714844,38.07904815673828,29.112796783447266,12.549240112304688
1,212530,-33.08794021606445,-15.695698738098145,-25.53524398803711,44.38140869140625
1,212531,-3.632171630859375,-17.283649444580078,-0.8840345740318298,-45.4477424621582
1,212534,32.53622055053711,24.490711212158203,18.035863876342773,-3.5291850566864014
1,212535,-19.675004959106445,7.203898906707764,-6.139235019683838,84.67916870117188
1,212538,-33.108951568603516,-9.969470024108887,0.6191560626029968,-8.583455085754395
1,212539,2.2929017543792725,-24.841384887695312,-0.7249845862388611,-27.79480743408203
1,212542,30.659561157226562,3.664523124694824,5.614116191864014,-65.14407348632812
1,212543,11.940028190612793,21.054737091064453,-24.204866409301758,-89.45907592773438
1,212546,6.751377582550049,11.535658836364746,3.652902126312256,88.91535949707031
1,212547,-13.587474822998047,-3.1106927394866943,44.55877685546875,121.45577239990234
1,212550,-37.299095153808594,-27.26618003845215,-47.435943603515625,-35.70074462890625
1,212551,8.377862930297852,-6.986940383911133,-38.84804153442383,-46.80261993408203
1,212554,32.1114501953125,17.331876754760742,21.696453094482422,36.15555953979492
1,212555,1.6750656366348267,1.885687232017517,25.411968231201172,21.31475067138672
1,212558,-10.769485473632812,-12.786397933959961,40.75566864013672,-7.537203788757324
1,212559,-19.736921310424805,-10.383760452270508,-31.576683044433594,-45.67119216918945
1,212562,-8.719279289245605,14.307360649108887,-36.19655990600586,-27.76651954650879
1,212563,27.036880493164062,-0.4727286994457245,54.99310302734375,73.32880401611328
1,212566,-1.7832893133163452,5.725125312805176,-16.529464721679688,15.016450881958008
1,212567,4.619937896728516,40.3922004699707,-33.96396255493164,-60.2223014831543
1,212570,12.691751480102539,-14.447036743164062,54.64594268798828,-34.44248580932617
1,212571,-47.33021926879883,-36.553741455078125,3.072214126586914,2.3072235584259033
1,212574,26.98308753967285,22.481563568115234,-36.87708282470703,31.044189453125
1,212575,61.294376373291016,21.098154067993164,-0.3171512186527252,14.65383243560791
1,212578,-43.51118469238281,-55.10809326171875,4.801738262176514,-0.8709350228309631
1,212579,-38.64574432373047,-2.546721935272217,-23.837186813354492,-19.691265106201172
1,212582,7.4099931716918945,67.28181457519531,-3.6638529300689697,-32.459861755371094
1,212583,18.985536575317383,-39.281490325927734,26.206544876098633,15.610664367675781
1,212586,9.314972877502441,-15.598692893981934,-7.416152000427246,26.19658088684082
1,212587,-10.31360149383545,18.306915283203125,-1.7404648065567017,27.681507110595703
1,212590,1.4867948293685913,-51.90796661376953,-2.502807140350342,-0.5578262805938721
1,212591,-10.277755737304688,46.9603385925293,26.157318115234375,-42.69507598876953
1,212594,7.546593189239502,56.97999572753906,20.246572494506836,-15.36300277709961
1,212595,10.768721580505371,-50.680484771728516,-81.44788360595703,-25.836334228515625
1,212598,-20.574951171875,-18.413516998291016,17.75536346435547,53.44313430786133
1,212600,22.72163963317871,17.258209228515625,89.0670166015625,73.70106506347656
1,212602,2.20024037361145,-25.821544647216797,-32.06199264526367,-37.38372039794922
1,212604,-5.486484527587891,31.624427795410156,-37.37995147705078,-36.75682830810547
1,212606,19.11583709716797,49.43630599975586,2.9571032524108887,-12.719711303710938
1,212608,-51.835968017578125,-57.69855880737305,-7.8439741134643555,-8.987005233764648
1,212610,-16.933034896850586,-31.189754486083984,16.98036003112793,-23.498390197753906
1,212612,19.651222229003906,12.01237964630127,4.199861526489258,33.998435974121094
1,212614,-8.04415225982666,-7.726297855377197,-49.5286865234375,49.13983917236328
1,212616,48.7725830078125,14.651734352111816,8.896062850952148,-35.730003356933594
1,212618,4.354397296905518,18.222043991088867,36.576255798339844,-27.411949157714844
1,212620,-37.848541259765625,-26.389766693115234,2.224174737930298,30.71114158630371
1,212622,27.69533920288086,27.592451095581055,30.056001663208008,47.40521240234375
1,212624,-6.093344211578369,48.303245544433594,-16.553049087524414,-41.124515533447266
1,212626,-20.464427947998047,-59.29947280883789,-26.903532028198242,-13.072131156921387
1,212628,15.574419021606445,-22.376087188720703,22.123125076293945,38.21967697143555
1,212630,3.4154012203216553,3.8755104541778564,-26.915813446044922,-17.79848861694336
1,212632,19.300430297851562,75.54334259033203,37.874732971191406,36.33594512939453
1,212634,17.141271591186523,92.34693908691406,53.91929244995117,12.071267127990723
1,212636,-39.74124526977539,-147.4280242919922,-92.14798736572266,-85.79798889160156
1,212638,-31.333080291748047,-102.86474609375,-22.286169052124023,-20.14858627319336
1,212640,-14.467167854309082,48.9576530456543,34.73291015625,-36.8227653503418
1,212642,4.118450164794922,13.241183280944824,-12.879904747009277,-36.18396759033203
1,212644,55.86847686767578,16.562538146972656,29.63862419128418,138.59869384765625
1,212646,15.61832332611084,29.66173553466797,-7.604292392730713,49.56472396850586
1,212648,-33.9818229675293,7.9142279624938965,-47.170753479003906,-72.9665298461914
1,212650,-4.2538676261901855,-9.460721969604492,17.16228675842285,-6.5265679359436035
1,212652,20.21735191345215,-6.997656345367432,16.565258026123047,15.712827682495117
1,212654,8.98634147644043,20.309711456298828,-7.220536708831787,0.9212126135826111
1,212656,3.9132120609283447,37.72800827026367,41.18975067138672,-8.140531539916992
1,212658,-26.241214752197266,-16.38292121887207,26.091922760009766,13.937116622924805
1,212660,-9.795498847961426,-48.6654052734375,-38.60185623168945,26.318132400512695
1,212662,24.22307014465332,5.26110315322876,-45.55669021606445,-10.142290115356445
1,212664,-27.91017723083496,93.4285888671875,37.892704010009766,-76.098876953125
1,212666,-57.149417877197266,3.8129308223724365,21.593935012817383,-59.536338806152344
1,212668,15.94442081451416,-142.40463256835938,-50.9676399230957,29.79460906982422
1,212670,45.78404998779297,-34.91558837890625,37.4237060546875,57.26259231567383
1,212671,-6.67695951461792,42.69390106201172,29.98981285095215,61.90776443481445
1,212674,33.59833526611328,24.4429874420166,-41.310726165771484,15.762578010559082
1,212675,20.798187255859375,23.14882469177246,-12.951614379882812,-59.078670501708984
1,212678,-30.590351104736328,-1.3812246322631836,-15.030060768127441,22.68013572692871
1,212679,-9.82376480102539,-25.564119338989258,-52.807125091552734,40.59919738769531
1,212682,-14.791647911071777,-3.4203875064849854,11.952956199645996,-60.79717254638672
1,212683,16.401838302612305,40.3303108215332,96.03284454345703,-9.174613952636719
1,212686,-3.55731463432312,-39.19268798828125,-6.931192874908447,-23.454862594604492
1,212687,-29.68728256225586,-44.55879592895508,-38.42131805419922,-13.583208084106445
1,212690,57.13713836669922,74.01396942138672,17.429397583007812,90.93631744384766
1,212691,39.28615188598633,72.45442199707031,-9.837803840637207,-26.510570526123047
1,212694,-55.798606872558594,-21.787391662597656,17.286209106445312,-62.86631393432617
1,212696,-59.239784240722656,-56.414615631103516,1.1515573263168335,-11.08989143371582
1,212698,-7.582087516784668,-3.3389337062835693,-16.912673950195312,16.637847900390625
1,212699,37.744773864746094,25.091447830200195,19.729568481445312,104.95272064208984
1,212702,62.11581802368164,15.447391510009766,0.9009762406349182,4.336099147796631
1,212703,22.054176330566406,-29.112573623657227,-15.893080711364746,-89.88753509521484
1,212706,-50.073482513427734,-32.9204216003418,-20.915382385253906,2.135209560394287
1,212707,-44.07357406616211,25.58864402770996,-2.71317982673645,24.924055099487305
1,212710,-37.997039794921875,-27.162572860717773,26.127450942993164,-61.63492202758789
1,212711,7.904782295227051,-63.52684783935547,2.0565779209136963,-37.119686126708984
1,212714,98.19033813476562,59.353023529052734,-5.7816948890686035,107.69975280761719
1,212715,28.327714920043945,75.5173568725586,-3.360105514526367,53.70793533325195
1,212718,-72.84566497802734,-57.17072677612305,-3.192438840866089,-91.47700500488281
1,212719,-41.17574691772461,-27.776004791259766,16.02924346923828,15.31863784790039
1,212722,49.749568939208984,57.21513748168945,27.108104705810547,41.462093353271484
1,212723,68.1790771484375,49.64786148071289,-0.4059900939464569,-61.19646072387695
1,212726,0.35459113121032715,49.269996643066406,-21.012828826904297,40.33870315551758
1,212727,-30.912935256958008,1.05905020236969,8.990281105041504,31.422874450683594
1,212730,-56.129859924316406,-105.77476501464844,-9.852336883544922,-87.27385711669922
1,212731,-17.856971740722656,-139.5779571533203,-25.961183547973633,-17.15441131591797
1,212734,43.4112548828125,4.507491111755371,4.364439964294434,40.7430534362793
1,212735,-13.393861770629883,72.49644470214844,3.244917154312134,-70.35464477539062
1,212738,-29.818403244018555,37.37497329711914,3.47198224067688,31.745615005493164
1,212739,18.246767044067383,27.088499069213867,-2.2225916385650635,137.0657501220703
1,212742,-23.602819442749023,-10.85565185546875,-26.810762405395508,-57.21916580200195
1,212743,59.674800872802734,53.22604751586914,-72.75971984863281,-127.88652038574219
1,212746,31.947296142578125,-54.19862747192383,38.86872100830078,36.45051956176758
1,212747,-125.67475891113281,-107.61068725585938,152.00387573242188,153.8709716796875
1,212750,53.61762237548828,117.15164947509766,-117.81584167480469,-30.630367279052734
1,212751,112.07856750488281,120.22730255126953,-55.17851257324219,-19.5169734954834
1,212754,-22.19511604309082,-2.544264793395996,190.42474365234375,70.30574798583984
1,212755,-63.2623176574707,-73.2302474975586,-15.89564037322998,-9.285046577453613
1,212758,-84.46192932128906,-99.27535247802734,-92.3463363647461,-111.46817779541016
1,212759,-2.9099016189575195,-3.8929693698883057,8.52950668334961,-146.56663513183594
1,212762,83.68836212158203,68.0148696899414,25.2391300201416,111.74981689453125
1,212763,8.777117729187012,-63.20631408691406,-17.862838745117188,113.3758316040039
1,212766,-14.46733570098877,-73.16962432861328,-21.007368087768555,-30.923717498779297
1,212767,5.509039878845215,64.77274322509766,9.291933059692383,-27.087627410888672
1,212770,-27.072675704956055,37.6007080078125,11.213140487670898,-49.59967803955078
1,212771,-3.3600525856018066,45.707759857177734,-11.980780601501465,-37.430728912353516
1,212774,43.86666488647461,73.27843475341797,-44.38308334350586,67.16932678222656
1,212775,55.08251190185547,-76.84334564208984,9.330757141113281,135.73733520507812
1,212778,-44.09619903564453,-78.51007080078125,29.46088981628418,-52.28860092163086
1,212779,-44.40887451171875,77.59184265136719,21.1205997467041,-112.0929183959961
1,212782,26.162883758544922,31.855777740478516,22.362539291381836,-24.47612190246582
1,212783,-41.797847747802734,-59.198143005371094,-49.377838134765625,-28.456655502319336
1,212786,-5.226455211639404,-29.728515625,-23.951709747314453,53.89748764038086
1,212787,23.308401107788086,-8.653525352478027,40.91820526123047,23.4539794921875
1,212790,-0.8277069330215454,-33.67292404174805,-3.92012095451355,17.071340560913086
1,212791,67.19300079345703,72.6844253540039,0.15545344352722168,50.38405990600586
1,212794,-12.766559600830078,80.68971252441406,22.064912796020508,-72.34555053710938
1,212795,-78.52613067626953,-79.70596313476562,-30.614492416381836,-13.191070556640625
1,212798,11.787063598632812,-4.378058433532715,-15.808904647827148,75.09799194335938
1,212799,36.29006576538086,95.37715911865234,28.791175842285156,-18.888296127319336
1,212802,-8.16625690460205,-25.807415008544922,-5.717033386230469,-98.14540100097656
1,212803,4.750205993652344,-109.17040252685547,7.3102006912231445,4.283325672149658
1,212806,15.055225372314453,-51.911415100097656,23.718406677246094,164.8212127685547
1,212808,-13.01305866241455,45.53195571899414,-38.56645584106445,49.796634674072266
1,212809,-27.68464469909668,72.14994049072266,-37.823726654052734,-118.09762573242188
1,212812,9.703880310058594,10.782685279846191,40.32338333129883,-57.24309539794922
1,212813,12.301506042480469,-24.878572463989258,46.0846061706543,-18.525604248046875
1,212816,-22.343324661254883,-44.311790466308594,-31.805784225463867,2.764538526535034
1,212817,24.729488372802734,0.17770656943321228,-27.027908325195312,52.751251220703125
1,212820,-3.4790518283843994,80.95869445800781,22.610225677490234,-37.7868766784668
1,212821,17.353713989257812,21.827539443969727,47.24112319946289,14.947999954223633
1,212824,37.43825149536133,-98.45446014404297,-19.427642822265625,128.28285217285156
1,212825,-52.61558151245117,-34.627349853515625,-49.2126579284668,-39.93809509277344
1,212828,-78.0621337890625,58.433502197265625,0.5737286806106567,-155.06976318359375
1,212829,19.88330841064453,-16.106618881225586,-13.54464054107666,-2.0745298862457275
1,212832,125.4379653930664,5.67298698425293,25.607925415039062,95.21414947509766
1,212833,-18.82366371154785,59.05101013183594,-3.428102970123291,22.868799209594727
1,212836,-86.82829284667969,-11.661005020141602,-37.69660186767578,-14.158147811889648
1,212837,6.093292713165283,-43.62993621826172,29.96864891052246,-71.22266387939453
1,212840,-4.332184791564941,1.339705467224121,34.83647155761719,-29.51089859008789
1,212841,-22.1765193939209,-31.559188842773438,-20.515390396118164,71.37874603271484
1,212844,60.126495361328125,14.988533973693848,-2.6592726707458496,98.46388244628906
1,212845,101.6300277709961,124.04903411865234,38.032554626464844,60.120338439941406
1,212848,-52.19646072387695,-34.63325881958008,-8.399928092956543,-138.5597686767578
1,212849,-85.73734283447266,-103.24825286865234,-51.66425323486328,-112.34795379638672
1,212852,23.81520652770996,33.00857162475586,19.833723068237305,87.89646911621094
1,212853,13.564335823059082,15.964377403259277,56.608787536621094,45.78474807739258
1,212856,-46.39576721191406,-61.98842239379883,-53.6213493347168,-37.50048065185547
1,212857,-23.56744384765625,-50.11679458618164,-38.40701675415039,-33.35411834716797
1,212860,81.70594024658203,122.50162506103516,43.46247863769531,121.65962982177734
1,212861,66.42813873291016,152.65525817871094,-58.39915466308594,1.4057643413543701
1,212864,-51.19831085205078,-98.706298828125,-10.854488372802734,-228.16525268554688
1,212865,-84.00517272949219,-105.8767318725586,101.1646728515625,52.77393341064453
1,212868,-24.71866226196289,22.31661605834961,18.666187286376953,158.3734588623047
1,212869,80.70581817626953,60.08352279663086,14.368480682373047,10.256328582763672
1,212872,37.833370208740234,-18.217620849609375,-47.75999069213867,-112.1115493774414
1,212873,-47.68046951293945,-26.44632339477539,-36.80023956298828,-34.88886260986328
1,212876,13.154812812805176,29.78563117980957,46.800193786621094,122.79500579833984
1,212877,25.03842544555664,-127.54266357421875,-22.219432830810547,-2.2469773292541504
1,212880,-1.715536117553711,-70.86714172363281,5.111459732055664,-49.12982177734375
1,212881,-23.102262496948242,101.18107604980469,5.362678050994873,-8.272452354431152
1,212884,-50.00613784790039,94.81422424316406,-38.775421142578125,-22.835224151611328
1,212885,25.539106369018555,38.28431701660156,16.50852394104004,9.815906524658203
1,212888,27.283828735351562,-24.05284309387207,-2.3496594429016113,19.216976165771484
1,212889,-23.820053100585938,-15.371879577636719,-16.427541732788086,-16.66087532043457
1,212892,24.105093002319336,22.138347625732422,10.933993339538574,26.935916900634766
1,212893,-15.239362716674805,-23.979843139648438,-4.669870376586914,-22.817493438720703
1,212896,-23.000892639160156,-20.92925453186035,26.231971740722656,-41.9243278503418
1,212898,45.600990295410156,28.713945388793945,19.797327041625977,92.26898956298828
1,212900,0.5359006524085999,-58.69683074951172,-25.878862380981445,22.39556121826172
1,212902,-39.779869079589844,-23.272193908691406,-32.29071807861328,-102.25215148925781
1,212904,29.9871826171875,79.86700439453125,48.70242691040039,56.6986083984375
1,212906,41.571998596191406,-0.7497348785400391,34.02305221557617,95.14580535888672
1,212908,-60.27610778808594,-83.93287658691406,-98.67680358886719,-159.0602569580078
1,212910,-47.58086013793945,-25.19721031188965,11.946477890014648,-52.82826232910156
1,212911,59.65420913696289,66.32111358642578,70.08566284179688,140.9464569091797
1,212914,25.42828369140625,26.701133728027344,-76.22826385498047,-12.593854904174805
1,212915,-31.721580505371094,1.2184442281723022,13.243664741516113,-50.64579772949219
1,212918,27.29881477355957,6.035252571105957,81.56233215332031,25.829727172851562
1,212919,-5.408798694610596,-37.856651306152344,-51.21603012084961,12.999385833740234
1,212922,-60.28864669799805,-8.252657890319824,-54.45375442504883,-1.5151952505111694
1,212923,19.6776123046875,43.216468811035156,30.320865631103516,0.8853144645690918
1,212926,48.5775260925293,12.516457557678223,62.83966827392578,-13.651341438293457
1,212927,-24.4714412689209,-21.855802536010742,-4.407473087310791,-4.229763984680176
1,212930,-15.445694923400879,39.853153228759766,-54.14826202392578,8.753256797790527
1,212931,-14.915302276611328,27.263885498046875,-13.973045349121094,-35.926483154296875
1,212936,-9.952115058898926,-125.65875244140625,46.88393020629883,32.13416290283203
1,212936,64.26949310302734,-77.1229476928711,19.93840789794922,57.413185119628906
1,212937,-13.709434509277344,55.695247650146484,-60.1212272644043,-28.68973159790039
1,212940,-0.7310207486152649,83.17047882080078,18.900684356689453,-3.332010269165039
1,212941,38.376319885253906,85.79312133789062,30.1826229095459,-22.1922664642334
1,212944,-67.48593139648438,-24.760299682617188,-48.88370132446289,-19.17722511291504
1,212945,27.96660041809082,-49.82221221923828,22.7142391204834,38.805328369140625
1,212948,41.586509704589844,-13.77369499206543,0.513232409954071,-24.1340274810791
1,212949,-126.314697265625,-81.87319946289062,-58.000648498535156,-91.62535095214844
1,212952,21.268760681152344,-24.086936950683594,54.1011848449707,47.52569580078125
1,212953,119.68359375,94.5327377319336,46.5105094909668,117.3463134765625
1,212956,-88.88284301757812,39.7453498840332,-66.46794891357422,-78.49308776855469
1,212957,-24.461994171142578,-10.067841529846191,21.18194580078125,-42.86323547363281
1,212960,100.38867950439453,-27.99598503112793,67.49300384521484,63.17106246948242
1,212961,-31.83100128173828,-29.01061248779297,-52.41301345825195,-18.53423309326172
1,212964,-52.0458869934082,26.166006088256836,-23.161518096923828,31.610624313354492
1,212965,18.619609832763672,-5.13541841506958,18.780681610107422,24.487667083740234
1,212968,36.1127815246582,19.284893035888672,-9.639190673828125,-54.57053756713867
1,212969,-9.532746315002441,29.288862228393555,-14.457021713256836,-15.813326835632324
1,212972,-42.46448516845703,-77.2750244140625,-31.18545150756836,9.697509765625
1,212973,30.400894165039062,-32.5129508972168,33.59736251831055,38.195125579833984
1,212976,8.29086971282959,67.02168273925781,28.54856300354004,-7.9125590324401855
1,212977,-40.5267448425293,45.96745681762695,-21.217422485351562,-43.99357223510742
1,212980,15.623462677001953,-8.28698444366455,-2.915050745010376,0.11310695111751556
1,212981,9.658867835998535,-57.66922378540039,-21.370784759521484,-36.545570373535156
1,212984,0.5399807095527649,17.49017906188965,22.412439346313477,40.20185470581055
1,212985,-5.458120346069336,52.59710693359375,44.516448974609375,102.52456665039062
1,212988,16.092443466186523,-40.411277770996094,-1.475670337677002,12.593597412109375
1,212989,63.13995361328125,4.4742279052734375,10.464740753173828,-123.69425201416016
1,212992,-33.77071762084961,-5.997570037841797,-8.070762634277344,-145.47557067871094
1,212993,-56.49443435668945,-17.493186950683594,-32.581356048583984,157.87628173828125
1,212996,15.365745544433594,57.92397689819336,-12.64832592010498,198.3917236328125
1,212997,-11.30056095123291,-6.773056983947754,-13.192671775817871,-127.25287628173828
1,213000,-8.558195114135742,-63.74477767944336,1.7615245580673218,-56.82625198364258
1,213001,38.969757080078125,-13.926506042480469,35.452545166015625,84.31666564941406
1,213004,-0.8716776371002197,22.362091064453125,-26.631916046142578,-189.44944763183594
1,213005,-30.031404495239258,-25.973833084106445,-34.52596664428711,-83.05753326416016
1,213008,24.31293487548828,14.551763534545898,37.75177001953125,225.95748901367188
1,213009,15.994815826416016,-45.571754455566406,-61.83796310424805,73.86163330078125
1,213012,-75.2993392944336,-25.974035263061523,10.974559783935547,-70.24239349365234
1,213013,3.412252902984619,168.07632446289062,114.00114440917969,-74.53182220458984
1,213016,64.53536224365234,-71.5901107788086,-82.799560546875,-62.04325485229492
1,213017,-49.144691467285156,-84.73237609863281,-34.46673583984375,34.733951568603516
1,213020,34.384605407714844,171.0237579345703,114.53531646728516,54.2347412109375
1,213021,55.20922088623047,-5.35006856918335,26.773670196533203,-26.78787612915039
1,213024,-62.9431037902832,-107.15340423583984,-44.74168395996094,33.91318893432617
1,213025,8.377128601074219,29.87773323059082,-25.48491096496582,18.016008377075195
1,213028,24.9670467376709,34.87071990966797,24.279315948486328,37.1154899597168
1,213029,-30.272846221923828,-33.35635757446289,-1.3361477851867676,84.19088745117188
1,213032,8.70899772644043,12.301664352416992,-30.375926971435547,-139.80271911621094
1,213033,13.623322486877441,37.11345291137695,25.987585067749023,-58.189971923828125
1,213036,7.973329544067383,-21.73897361755371,0.3968283534049988,95.12394714355469
1,213037,2.037808656692505,-34.27743148803711,-30.715055465698242,-5.82073974609375
1,213040,-34.81428909301758,-44.85170364379883,-26.317543029785156,-46.80143737792969
1,213041,-7.4540863037109375,-13.60186767578125,-26.644376754760742,-80.52301025390625
1,213044,12.601365089416504,58.2231559753418,41.28174591064453,161.74435424804688
1,213045,-33.541744232177734,2.100738763809204,9.070523262023926,143.41531372070312
1,213048,5.247180938720703,-22.306896209716797,-29.66754913330078,-288.4299011230469
1,213049,50.46331787109375,53.930816650390625,59.403377532958984,-111.31696319580078
1,213052,-38.233116149902344,-0.035362716764211655,20.717073440551758,206.39556884765625
1,213053,-19.95621681213379,-42.62688446044922,-55.93749237060547,9.892179489135742
1,213056,66.9095687866211,57.412620544433594,13.710111618041992,22.875934600830078
1,213059,-5.758602619171143,-8.876408576965332,2.4363739490509033,54.431365966796875
1,213059,-38.28861618041992,-77.09053802490234,-30.28791618347168,-188.5053253173828
1,213062,5.911498546600342,34.77436447143555,54.61199951171875,-119.22038269042969
1,213063,25.142297744750977,31.360248565673828,24.87281608581543,63.390647888183594
1,213066,-25.062042236328125,-10.63112735748291,-81.92877197265625,200.3022918701172
1,213067,-23.155996322631836,-9.130162239074707,-29.73892593383789,101.77015686035156
1,213070,42.439208984375,-13.076619148254395,45.67239761352539,-124.54412078857422
1,213071,-19.547956466674805,2.91402530670166,14.910961151123047,-49.1535758972168
1,213074,-0.47793540358543396,5.74962854385376,-7.421366214752197,68.65164947509766
1,213075,33.62295913696289,10.32310962677002,3.741908550262451,-16.645492553710938
1,213078,-71.43372344970703,-29.15648651123047,-1.2903634309768677,-79.77615356445312
1,213079,-18.271387100219727,-45.496212005615234,-35.95900344848633,81.33272552490234
1,213082,113.35598754882812,41.349098205566406,26.88295555114746,148.27420043945312
1,213083,-1.271362543106079,28.569761276245117,17.755611419677734,-104.605224609375
1,213086,-65.71805572509766,-17.059494018554688,-41.56249237060547,-268.5406188964844
1,213087,38.29193878173828,12.628606796264648,57.7557373046875,9.533933639526367
1,213090,13.31467056274414,5.577177047729492,2.6909492015838623,216.28700256347656
1,213091,-60.75330352783203,-9.4390869140625,-32.19033432006836,10.181419372558594
1,213094,-4.989217281341553,-1.4007999897003174,31.314638137817383,-92.63812255859375
1,213095,73.23068237304688,2.896599531173706,-6.584392070770264,56.932701110839844
1,213098,-8.808515548706055,-25.603647232055664,28.327037811279297,22.50871467590332
1,213099,-66.18484497070312,28.407014846801758,4.7734150886535645,-64.79940795898438
1,213102,44.31147003173828,53.194549560546875,-74.10736846923828,59.60148620605469
1,213103,2.7795190811157227,-55.77518844604492,-37.06177520751953,18.746767044067383
1,213106,-40.283172607421875,-21.94893455505371,47.854915618896484,-53.882591247558594
1,213107,71.17430114746094,52.25687789916992,44.781558990478516,36.76413345336914
1,213110,-32.36880111694336,-31.552093505859375,-49.42579650878906,-42.148990631103516
1,213111,-59.611488342285156,-9.758418083190918,-17.46407127380371,-46.553924560546875
1,213114,79.14634704589844,71.17062377929688,65.19953155517578,34.6110725402832
1,213115,17.96782875061035,-1.8065654039382935,22.837566375732422,26.94744110107422
1,213118,-80.0516357421875,-97.70081329345703,-57.33327865600586,41.93546676635742
1,213119,-2.014500617980957,-46.10758972167969,-30.706571578979492,-34.03078079223633
1,213122,48.27409744262695,85.06407165527344,13.353514671325684,-55.05460739135742
1,213123,-24.55963706970215,27.377532958984375,13.805829048156738,52.311893463134766
1,213126,-15.938508987426758,-35.46954345703125,46.66031265258789,-31.650564193725586
1,213127,-1.8578920364379883,-12.451732635498047,-26.82432746887207,-85.3577880859375
1,213130,3.1028478145599365,-31.692489624023438,-78.35913848876953,58.91885757446289
1,213131,19.60829734802246,10.931777000427246,20.900997161865234,70.31060028076172
1,213134,19.0601749420166,76.38658142089844,72.22809600830078,57.044090270996094
1,213135,17.013877868652344,20.132421493530273,-40.91558074951172,-20.58523941040039
1,213138,-39.1317024230957,-61.376983642578125,-38.215572357177734,-215.08436584472656
1,213139,-23.665882110595703,5.047943115234375,89.57437896728516,38.49216079711914
1,213142,36.301116943359375,71.56729888916016,2.7588887214660645,259.3428955078125
1,213143,-18.217758178710938,-114.40497589111328,-117.53101348876953,-57.73606491088867
1,213146,-11.458531379699707,-71.7464599609375,21.4466552734375,-90.74571228027344
1,213147,52.5102424621582,203.37185668945312,160.3641815185547,15.596649169921875
1,213150,20.38677978515625,5.859731674194336,5.429121017456055,14.566638946533203
1,213151,-34.374732971191406,-125.49314880371094,-103.98539733886719,-13.701303482055664
1,213154,-18.267160415649414,15.462379455566406,-39.244842529296875,2.9935834407806396
1,213155,29.067420959472656,13.876337051391602,-19.651742935180664,42.873714447021484
1,213158,-4.71859073638916,-7.789712905883789,22.941640853881836,-141.70127868652344
1,213159,-34.78281021118164,4.667381286621094,66.5271224975586,-75.15303039550781
1,213162,-24.12541961669922,-12.17294979095459,-19.374698638916016,119.35932159423828
1,213163,42.00796890258789,10.993877410888672,-27.554027557373047,116.30677032470703
1,213166,28.15991973876953,32.350223541259766,37.2030143737793,54.160911560058594
1,213167,-45.37034225463867,-30.26463508605957,-8.6069974899292,-42.716331481933594
1,213170,6.499717712402344,-22.81499481201172,-43.23207092285156,-146.46185302734375
1,213171,21.335887908935547,44.38273620605469,1.455323576927185,-96.46290588378906
1,213174,-34.46355438232422,9.217057228088379,47.674705505371094,147.5654754638672
1,213175,-0.5882079601287842,-20.172260284423828,-0.5320174694061279,93.00678253173828
1,213178,38.23722457885742,10.532787322998047,-29.353361129760742,-71.05084228515625
1,213179,-9.340046882629395,-8.111730575561523,1.7382231950759888,47.06734848022461
1,213183,-6.433230876922607,-16.802772521972656,-13.107651710510254,-28.139554977416992
1,213183,16.4431209564209,24.336210250854492,10.007707595825195,-70.80036926269531
1,213186,-7.21352481842041,4.593757152557373,25.324792861938477,65.18904876708984
1,213187,-34.2237434387207,-33.504207611083984,21.568376541137695,-5.560871601104736
1,213190,-5.5310564041137695,-3.175424098968506,-27.063871383666992,-91.12097930908203
1,213191,49.46858596801758,22.831697463989258,-75.49005889892578,-41.96084976196289
1,213194,-20.522470474243164,-24.767438888549805,-6.048324108123779,108.86527252197266
1,213195,-66.72467041015625,-23.909025192260742,33.058406829833984,104.76786804199219
1,213198,31.266433715820312,48.12374496459961,38.70412826538086,-90.72428894042969
1,213199,87.99247741699219,32.168880462646484,58.41246032714844,-44.91544723510742
1,213202,-13.951333045959473,-21.120229721069336,-5.853525638580322,-12.856474876403809
1,213203,-59.333656311035156,-27.867141723632812,-69.3326187133789,47.14392852783203
1,213206,32.734764099121094,33.75005340576172,16.605579376220703,206.8525848388672
1,213207,-5.433030128479004,-15.496753692626953,24.52197265625,-17.22467803955078
1,213210,-38.98345947265625,-53.62848663330078,-42.975730895996094,-241.82350158691406
1,213211,41.185821533203125,61.12675094604492,31.367504119873047,-97.97314453125
1,213214,29.602876663208008,19.87325096130371,32.549217224121094,-52.51448440551758
1,213215,-34.45619201660156,-60.913143157958984,-63.06172180175781,46.72011947631836
1,213218,-12.22774887084961,-0.46982020139694214,-12.901562690734863,298.4869689941406
1,213219,16.9093074798584,26.982929229736328,35.61509704589844,0.38720405101776123
1,213222,-20.62436866760254,9.97278118133545,-29.96148681640625,-237.8447265625
1,213223,-28.318431854248047,-6.112245559692383,-39.84482192993164,-87.08094787597656
1,213226,20.252458572387695,-39.215065002441406,30.742626190185547,86.28022766113281
1,213227,54.47800827026367,28.32013511657715,62.291690826416016,251.89572143554688
1,213230,9.848572731018066,69.02213287353516,17.8592529296875,221.85418701171875
1,213231,-47.456119537353516,-55.07764434814453,-44.22278594970703,-145.2975616455078
1,213234,-12.9757661819458,-25.997549057006836,-4.404669284820557,-376.22821044921875
1,213235,8.242888450622559,53.86644744873047,26.139219284057617,-45.78876876831055
1,213238,-11.166328430175781,-45.06281280517578,-37.35628890991211,178.45223999023438
1,213239,6.844208717346191,-47.416526794433594,-27.159507751464844,17.87749481201172
1,213242,28.786775588989258,52.11064147949219,5.969884395599365,-97.04173278808594
1,213243,-18.721450805664062,34.55172348022461,18.46921730041504,3.137530565261841
1,213246,-17.596717834472656,-28.53818130493164,23.71590805053711,121.60408782958984
1,213247,43.705833435058594,-10.585741996765137,26.089937210083008,93.80333709716797
1,213250,-15.551411628723145,16.794429779052734,-11.6181640625,-166.6406707763672
1,213251,-19.691247940063477,-3.7182512283325195,-38.55591583251953,-179.30990600585938
1,213254,17.536453247070312,-16.368913650512695,0.44555991888046265,155.93409729003906
1,213255,1.9882235527038574,1.7343640327453613,19.08356285095215,121.5859375
1,213258,18.976106643676758,25.80564308166504,38.97856903076172,19.94820785522461
1,213259,-9.672715187072754,7.914827823638916,1.99456787109375,85.93846130371094
1,213262,-9.562637329101562,-35.190773010253906,-56.9967041015625,-100.82073974609375
1,213263,-26.571754455566406,-21.967144012451172,-44.98473358154297,-188.12831115722656
1,213266,-11.674827575683594,27.147933959960938,23.00737762451172,37.7234001159668
1,213267,32.832855224609375,0.008726032450795174,28.131338119506836,65.3856430053711
1,213270,-14.159577369689941,0.4198889434337616,1.864806056022644,-23.69384002685547
1,213271,18.71677589416504,37.822940826416016,13.875694274902344,93.50981903076172
1,213274,-38.66864776611328,-59.88263702392578,-36.5788688659668,82.25755310058594
1,213275,-5.1957597732543945,32.967552185058594,12.40966510772705,-48.31614303588867
1,213278,100.7886962890625,85.56993103027344,90.42269134521484,-96.0735855102539
1,213279,-30.94015121459961,-77.19303894042969,-9.36526107788086,-75.55707550048828
1,213282,-36.49394989013672,4.58951473236084,-79.43533325195312,69.49864196777344
1,213283,9.98637866973877,-3.5726158618927,-33.82379913330078,94.47119903564453
1,213286,-26.515037536621094,-69.57575225830078,-9.492586135864258,-97.59396362304688
1,213287,-7.6441874504089355,19.086334228515625,51.12388229370117,-73.31900024414062
1,213290,20.916282653808594,16.45716094970703,22.149751663208008,105.38465118408203
1,213292,21.529279708862305,14.055305480957031,-61.823062896728516,21.83340072631836
1,213294,-4.357340335845947,18.76085662841797,32.42484664916992,-9.190112113952637
1,213296,-31.792579650878906,-8.385873794555664,51.72965621948242,68.40902709960938
1,213298,12.067034721374512,16.465375900268555,-21.227872848510742,-77.91861724853516
1,213300,26.069744110107422,3.7456841468811035,-2.101607084274292,-132.89222717285156
1,213302,-16.110218048095703,-35.332218170166016,11.9746732711792,-138.20635986328125
1,213304,13.95344066619873,10.831989288330078,-15.81661605834961,61.298980712890625
1,213305,10.374467849731445,32.12626266479492,-2.3867435455322266,339.39501953125
1,213308,-28.788835525512695,-17.64807891845703,-10.560955047607422,86.893798828125
1,213309,-7.908049583435059,-22.070510864257812,-28.92498779296875,-159.6798553466797
1,213312,8.601016998291016,-6.340427398681641,22.597827911376953,-168.79823303222656
1,213313,5.510552406311035,9.553032875061035,-3.6325972080230713,46.91352462768555
1,213316,8.867819786071777,0.665844202041626,-48.1464729309082,139.93785095214844
1,213317,-23.90944480895996,-11.986309051513672,15.223987579345703,-75.01637268066406
1,213320,-22.011699676513672,-0.4940398931503296,71.69221496582031,20.40338134765625
1,213322,28.719881057739258,3.736121892929077,-6.463644027709961,60.11790084838867
1,213323,23.377981185913086,38.61655807495117,-52.38256072998047,-93.27906799316406
1,213326,-10.318074226379395,-19.3372745513916,44.62903594970703,-31.34629249572754
1,213327,2.724212884902954,-29.696130752563477,35.667091369628906,-9.695557594299316
1,213330,-27.988082885742188,34.50318145751953,-51.254390716552734,-41.4463005065918
1,213331,-26.678180694580078,-6.640445709228516,-8.923467636108398,48.3485107421875
1,213334,67.79339599609375,-3.174070358276367,11.902861595153809,59.430118560791016
1,213335,10.218511581420898,0.5985185503959656,-41.07044982910156,31.51068878173828
1,213338,-51.48229217529297,-32.952266693115234,-3.085937738418579,24.32464027404785
1,213339,0.8855125308036804,14.548789978027344,40.625022888183594,-69.27708435058594
1,213342,9.737987518310547,53.5701789855957,27.4644775390625,-33.09342575073242
1,213343,-4.613708019256592,-3.2080435752868652,-11.00501537322998,8.554381370544434
1,213346,-11.764505386352539,-29.274850845336914,-31.507863998413086,-22.996047973632812
1,213347,39.72817611694336,10.906922340393066,39.52111053466797,44.001434326171875
1,213350,27.174602508544922,-28.636953353881836,25.81728172302246,1.8571884632110596
1,213351,-21.750320434570312,-8.030521392822266,-59.39804458618164,-31.366748809814453
1,213354,-12.817597389221191,48.67344284057617,12.836095809936523,-36.65086364746094
1,213355,-18.63735008239746,8.164999961853027,45.197288513183594,-23.827592849731445
1,213358,13.201863288879395,-25.837331771850586,-45.17302703857422,91.9702377319336
1,213359,-1.2712832689285278,-48.237823486328125,-36.22688674926758,62.512882232666016
1,213362,-13.710566520690918,6.31475305557251,-1.6922225952148438,1.7307522296905518
1,213363,11.6751708984375,35.98994827270508,-0.9908571243286133,-65.37133026123047
1,213366,-4.9882426261901855,-11.662893295288086,45.59526824951172,-76.8976058959961
1,213367,11.543630599975586,-11.788071632385254,7.959118843078613,60.29415512084961
1,213370,-0.29425761103630066,26.827552795410156,-25.02284812927246,28.338300704956055
1,213371,-5.443632125854492,21.8818302154541,4.04495096206665,-52.4440803527832
1,213374,21.472415924072266,-8.768383026123047,6.671341419219971,27.292484283447266
1,213375,0.9325051307678223,-0.2607300579547882,42.07093811035156,57.678470611572266
1,213378,-20.556020736694336,-17.635154724121094,-12.381489753723145,-23.950117111206055
1,213379,-28.601696014404297,-17.159683227539062,-65.63341522216797,-49.06039047241211
1,213382,2.9753172397613525,36.24098587036133,-3.598170042037964,4.6680145263671875
1,213383,23.298158645629883,2.8338043689727783,25.59695053100586,22.898305892944336
1,213386,-12.890016555786133,-45.555171966552734,15.359331130981445,-7.6835832595825195
1,213387,-26.4056339263916,9.608150482177734,-8.211386680603027,-50.483577728271484
1,213390,21.063079833984375,-20.570079803466797,-28.67836570739746,12.649778366088867
1,213391,49.4284553527832,-17.192060470581055,19.768835067749023,108.50421142578125
1,213394,-16.288137435913086,73.44691467285156,43.51826477050781,-41.32729721069336
1,213395,-48.36335372924805,-3.785916328430176,-33.44270706176758,-180.6910858154297
1,213398,0.04397338628768921,-52.074981689453125,-15.623428344726562,86.08550262451172
1,213399,42.05759048461914,28.451923370361328,57.35521697998047,200.87371826171875
1,213402,47.246707916259766,33.42841720581055,-1.986636996269226,-82.81237030029297
1,213403,-16.3137149810791,-10.02110767364502,-52.17152786254883,-139.21617126464844
1,213406,-64.45970153808594,-4.174874782562256,1.063151478767395,66.85812377929688
1,213407,15.212028503417969,6.707800388336182,39.21895217895508,167.96987915039062
1,213410,26.50615882873535,-37.48251724243164,-23.12928581237793,-63.84572982788086
1,213411,-29.05394172668457,-28.277589797973633,-43.35074234008789,-130.56634521484375
1,213414,10.100295066833496,50.792198181152344,45.365028381347656,17.180797576904297
1,213415,0.24864862859249115,28.733112335205078,3.6073787212371826,-5.338291168212891
1,213418,-1.9276498556137085,-36.69704055786133,-22.43950843811035,20.621936798095703
1,213419,1.307991862297058,-45.225284576416016,24.97234344482422,28.215356826782227
1,213422,14.5481538772583,34.551063537597656,-14.98537540435791,22.18882942199707
1,213423,37.34385681152344,67.75151824951172,48.06116485595703,-20.15899085998535
1,213426,-29.251672744750977,-23.33007049560547,33.4378547668457,-25.0803165435791
1,213427,-54.39107131958008,-74.87405395507812,-106.60871887207031,-3.3809361457824707
1,213430,0.13186925649642944,-6.577718257904053,-70.80875396728516,-116.45652770996094
1,213432,29.38908576965332,57.6634407043457,54.69994354248047,-0.6422448754310608
1,213434,-5.175686359405518,-27.122726440429688,70.9339370727539,145.60049438476562
1,213436,8.899282455444336,-6.672052383422852,-19.04334259033203,34.49120330810547
1,213438,18.103809356689453,70.47118377685547,12.7301607131958,28.955842971801758
1,213440,-6.322343349456787,-24.185626983642578,25.76021957397461,-29.800636291503906
1,213442,8.954398155212402,-7.0722246170043945,-44.18617630004883,-126.18479919433594
1,213444,-18.17473793029785,6.924534797668457,7.0565409660339355,24.404666900634766
1,213445,-18.105531692504883,-53.65122985839844,20.723770141601562,132.44473266601562
1,213448,16.329011917114258,35.61405944824219,-18.255840301513672,-46.81084442138672
1,213449,-7.87193489074707,50.149478912353516,-24.229476928710938,-113.13159942626953
1,213452,5.619093894958496,-17.62148666381836,13.071797370910645,75.985595703125
1,213453,15.09945297241211,-29.833953857421875,40.41130065917969,100.1254653930664
1,213456,-14.381540298461914,-16.62556266784668,-32.783512115478516,-61.512229919433594
1,213457,-13.102195739746094,-11.971505165100098,-48.18031692504883,-61.964046478271484
1,213460,-17.396669387817383,-14.332856178283691,9.981207847595215,36.1282958984375
1,213461,-9.363851547241211,4.450002193450928,1.2164286375045776,-47.30363464355469
1,213464,33.942588806152344,33.923728942871094,16.319761276245117,-58.700443267822266
1,213465,48.027862548828125,28.899080276489258,23.971492767333984,104.8371810913086
1,213468,-17.37067413330078,-36.308868408203125,-14.023597717285156,27.039531707763672
1,213469,-31.46584129333496,-30.40485382080078,-20.392793655395508,-100.56031799316406
1,213472,12.476892471313477,29.382488250732422,32.839744567871094,65.66526794433594
1,213473,-25.905868530273438,12.270639419555664,21.721046447753906,55.348995208740234
1,213477,-4.597874164581299,-6.53256893157959,-42.7219352722168,-62.87331008911133
1,213478,42.35919189453125,9.160510063171387,27.506195068359375,5.077420234680176
1,213479,-10.353022575378418,-8.928580284118652,17.197317123413086,16.045848846435547
1,213482,-10.533791542053223,1.9468858242034912,-53.49482727050781,-19.13037109375
1,213483,15.093680381774902,16.402936935424805,5.106841087341309,15.413061141967773
1,213486,-6.153380393981934,-10.205172538757324,21.70441246032715,10.00125789642334
1,213487,-32.22394943237305,-4.045960903167725,13.311899185180664,-12.928114891052246
1,213490,5.051665782928467,-6.22955322265625,-21.227293014526367,10.41357707977295
1,213491,53.14242172241211,4.536738395690918,-28.816165924072266,-28.110366821289062
1,213494,-3.4068355560302734,-4.549717426300049,37.82427215576172,-16.156312942504883
1,213495,-38.751136779785156,-6.313841819763184,6.76941442489624,31.620132446289062
1,213498,5.017171382904053,27.88283920288086,4.213980674743652,-25.976266860961914
1,213499,25.202760696411133,-33.74512481689453,-26.062334060668945,10.474714279174805
1,213502,-0.807479202747345,-21.5261173248291,-47.26731872558594,31.78276252746582
1,213503,-17.88578224182129,38.231632232666016,68.71653747558594,-60.6638298034668
1,213506,-6.322195053100586,15.87380313873291,45.58662033081055,-6.524541854858398
1,213507,6.212679386138916,12.906580924987793,-29.36482810974121,33.346317291259766
1,213510,8.79757022857666,-1.9550416469573975,-15.151397705078125,23.705224990844727
1,213511,-6.803760051727295,-7.261844635009766,-9.163237571716309,65.64173889160156
1,213514,-1.6734322309494019,-2.138977289199829,-9.418420791625977,-20.961244583129883
1,213515,11.690614700317383,-22.3536434173584,3.6358697414398193,-78.17153930664062
1,213518,-8.0000581741333,-28.46807861328125,2.765904664993286,-61.697853088378906
1,213519,-15.473075866699219,-4.4918646812438965,-2.6642403602600098,9.381110191345215
1,213522,-1.577452540397644,26.290163040161133,-7.425891399383545,124.84194946289062
1,213523,0.7885990142822266,9.854710578918457,-4.3745341300964355,47.44525146484375
1,213526,4.836860179901123,-6.951543807983398,25.98613929748535,-20.15810203552246
1,213527,11.38054370880127,-6.98087739944458,-15.740781784057617,-56.16777038574219
1,213530,9.50085735321045,2.1132888793945312,-5.218979358673096,-97.98575592041016
1,213531,0.9196262359619141,18.489185333251953,40.99058151245117,-49.96177291870117
1,213534,-4.132185935974121,13.42503547668457,-26.72279167175293,102.27608489990234
1,213535,-20.241531372070312,11.016016006469727,-28.049123764038086,126.6149673461914
1,213538,-23.162748336791992,-21.25528907775879,1.8940683603286743,-85.7093276977539
1,213539,10.858494758605957,-24.43666648864746,8.002511024475098,-35.044471740722656
1,213542,42.28122329711914,14.178723335266113,8.548955917358398,46.84098815917969
1,213543,1.0630398988723755,-8.020285606384277,-15.531550407409668,-64.19280242919922
1,213546,-30.031278610229492,-21.992902755737305,16.986099243164062,-67.27592468261719
1,213547,-9.265655517578125,5.950863838195801,17.63808822631836,30.051307678222656
1,213550,-17.991436004638672,25.87394905090332,-13.727447509765625,97.50517272949219
1,213551,30.94944190979004,19.748769760131836,0.37957677245140076,47.06266784667969
1,213554,57.76103591918945,13.542088508605957,10.781885147094727,-48.34523010253906
1,213555,-18.899751663208008,19.049102783203125,6.409162998199463,-64.7949447631836
1,213558,-56.40119934082031,-46.77130126953125,9.330524444580078,64.3133316040039
1,213559,8.188751220703125,-4.617806434631348,90.390380859375,98.23550415039062
1,213562,36.57717514038086,36.2830696105957,-24.320964813232422,-76.4842529296875
1,213563,3.7815895080566406,-39.86825180053711,-188.26315307617188,-81.62022399902344
1,213566,-28.976186752319336,-12.838582038879395,2.943476438522339,-27.464460372924805
1,213567,-6.070778846740723,-5.134308338165283,109.63449096679688,79.45195770263672
1,213570,33.5390625,1.147768259048462,5.644197940826416,90.88442993164062
1,213571,-2.075510025024414,4.475096702575684,-43.97504425048828,-91.85001373291016
1,213574,-10.76928997039795,-13.812210083007812,-33.761966705322266,-167.24273681640625
1,213575,17.22551918029785,21.364788055419922,-19.09331703186035,-29.394798278808594
1,213578,-35.38573455810547,-4.670435428619385,35.92646408081055,243.21311950683594
1,213579,-53.916046142578125,-28.061193466186523,53.02125549316406,31.0045166015625
1,213582,45.283912658691406,24.79493522644043,-13.619789123535156,-126.72624969482422
1,213583,47.2272834777832,23.58094024658203,-4.616048336029053,46.406280517578125
1,213586,-12.311275482177734,20.956369400024414,30.16881561279297,27.20538330078125
1,213587,-20.575952529907227,-0.03996579349040985,-10.59659194946289,-25.76017951965332
1,213590,-4.32619047164917,-51.95112609863281,-5.412809371948242,20.577167510986328
1,213591,-17.122617721557617,13.342779159545898,9.5194730758667,7.412515163421631
1,213594,-7.109227180480957,23.96556854248047,-47.24321365356445,-77.13399505615234
1,213595,6.483705043792725,-46.40238952636719,-27.8851375579834,-35.4759521484375
1,213598,16.46848487854004,11.370192527770996,52.41542434692383,49.09233093261719
1,213599,38.154659271240234,45.97450256347656,35.37383270263672,76.34602355957031
1,213602,-26.849706649780273,4.376386642456055,-25.808568954467773,-44.61054611206055
1,213603,-32.816646575927734,-26.95138931274414,-12.202119827270508,-82.9508056640625
1,213606,49.7658576965332,-0.497597336769104,19.628494262695312,41.59656524658203
1,213607,16.188173294067383,40.51476287841797,14.294459342956543,47.60709762573242
1,213610,-59.003292083740234,-52.084007263183594,-6.294885158538818,7.879824638366699
1,213611,21.789072036743164,-26.746246337890625,-15.948526382446289,2.3936121463775635
1,213614,25.9749698638916,64.61820983886719,5.111160755157471,-5.5306291580200195
1,213615,-15.992867469787598,0.5226262211799622,14.190190315246582,-13.494403839111328
1,213618,8.762467384338379,-53.9278678894043,-35.01103973388672,-8.958501815795898
1,213619,-23.96739387512207,-3.6261775493621826,-17.95314598083496,19.973377227783203
