Aktueller Finger,timestamp_ms,sensor_0,sensor_1,sensor_2,sensor_3
0,31050,-11.6715669631958,-16.753028869628906,-0.5810161828994751,37.77803039550781
0,31052,10.939135551452637,10.069633483886719,24.178157806396484,3.9303195476531982
0,31054,11.932538986206055,5.37713098526001,7.43927001953125,-52.731937408447266
0,31056,-31.95941162109375,-11.290409088134766,-35.58095932006836,9.866168022155762
0,31058,-15.112934112548828,-4.114742755889893,-26.170902252197266,38.902774810791016
0,31060,54.57817077636719,15.932650566101074,26.535266876220703,-28.053001403808594
0,31062,17.955503463745117,8.567813873291016,30.72686767578125,3.613051414489746
0,31065,-51.96651077270508,-22.89053726196289,-11.234434127807617,7.308633327484131
0,31066,20.45252227783203,-16.39594841003418,-5.857926845550537,-15.19240951538086
0,31077,22.172054290771484,30.233598709106445,9.97941780090332,15.305253028869629
0,31077,-43.37137222290039,6.023580074310303,-4.439741134643555,18.880390167236328
0,31077,-19.63273811340332,-24.716251373291016,1.2126994132995605,18.860822677612305
0,31077,15.754158020019531,17.690000534057617,12.058056831359863,-24.30278778076172
0,31077,14.206025123596191,18.77019500732422,-12.672189712524414,-28.429706573486328
0,31078,-3.8267221450805664,-31.543315887451172,-15.639678955078125,11.424834251403809
0,31080,-2.845357894897461,-19.946191787719727,8.26126480102539,-10.691476821899414
0,31083,-13.035027503967285,14.01583194732666,9.144082069396973,-0.46845969557762146
0,31084,-5.108274936676025,12.216879844665527,10.198354721069336,13.65436840057373
0,31087,2.783093214035034,12.612340927124023,-16.343111038208008,-0.06556151062250137
0,31088,18.884544372558594,-6.585338592529297,-16.46596336364746,7.288806915283203
0,31091,16.17494773864746,-14.043159484863281,6.774168968200684,-20.823589324951172
0,31092,-25.20049285888672,-9.040863037109375,-0.7961178421974182,-12.656119346618652
0,31095,-5.877827167510986,12.181607246398926,17.215673446655273,30.61996841430664
0,31096,21.208393096923828,21.998327255249023,-2.1138417720794678,-0.40177711844444275
0,31099,15.00904369354248,-1.5710601806640625,-25.86573028564453,-25.10100746154785
0,31100,-19.297679901123047,-11.483684539794922,9.594706535339355,6.4390034675598145
0,31101,-1.1654560565948486,-10.106337547302246,21.10721206665039,14.797222137451172
0,31126,-5.237903594970703,-9.062565803527832,-13.613797187805176,-8.866362571716309
0,31126,-20.951345443725586,4.725281238555908,-14.823981285095215,-5.940741539001465
0,31126,29.2784366607666,23.770692825317383,1.5175299644470215,6.9495415687561035
0,31126,14.321003913879395,-15.88757038116455,-5.390931129455566,-6.0404181480407715
0,31126,-20.137662887573242,-31.281970977783203,5.6805830001831055,0.23445382714271545
0,31126,-9.38882827758789,29.280620574951172,22.636045455932617,-0.736434280872345
0,31127,10.722350120544434,25.207172393798828,13.320189476013184,10.835071563720703
0,31127,10.425233840942383,-5.859198570251465,-4.891857624053955,14.751739501953125
0,31127,8.847579956054688,-11.140433311462402,-0.9139193296432495,-24.657838821411133
0,31127,-10.281147956848145,-16.358516693115234,-1.2514533996582031,9.544211387634277
0,31127,-28.09142303466797,10.477930068969727,-8.883949279785156,30.034727096557617
0,31128,17.966583251953125,9.328003883361816,-2.426210641860962,-16.130050659179688
0,31129,17.528390884399414,-29.19404411315918,2.9008970260620117,-12.230320930480957
0,31130,-13.153990745544434,1.3301111459732056,0.8113290071487427,25.18993377685547
0,31132,3.3417744636535645,42.404544830322266,-18.90336799621582,-9.757993698120117
0,31134,-2.1347386837005615,-9.534574508666992,-11.488924026489258,-50.160606384277344
0,31136,-13.025091171264648,-26.795089721679688,5.6755805015563965,13.592416763305664
0,31138,10.053947448730469,0.2792612910270691,18.533830642700195,46.765892028808594
0,31140,19.747058868408203,18.689912796020508,21.862611770629883,-13.783970832824707
0,31142,-22.34906768798828,17.71233367919922,-18.9874210357666,-22.166202545166016
0,31144,-4.799697399139404,-29.832841873168945,-19.217920303344727,19.15256118774414
0,31146,5.148778915405273,-21.469379425048828,-1.36686110496521,-10.966302871704102
0,31148,-17.741893768310547,36.29938888549805,17.202730178833008,-20.636516571044922
0,31150,27.14026641845703,32.4373779296875,24.760805130004883,19.10437774658203
0,31152,0.5023286938667297,-29.59007453918457,-11.412471771240234,-3.904484510421753
0,31189,-25.14826011657715,-26.060758590698242,-13.755905151367188,-8.839101791381836
0,31189,0.7247289419174194,-0.025265630334615707,-1.5131607055664062,21.76047134399414
0,31189,10.243669509887695,-5.177026748657227,4.48051643371582,16.22456932067871
0,31189,12.689364433288574,23.52461814880371,17.721778869628906,-12.4490966796875
0,31190,1.9532843828201294,1.148767113685608,0.636035680770874,-8.18549633026123
0,31190,1.0508273839950562,-6.8126397132873535,-20.065279006958008,-3.6782655715942383
0,31190,-3.7930407524108887,23.80697250366211,-12.317118644714355,-10.4318208694458
0,31190,-2.355977773666382,-11.617744445800781,4.008720397949219,19.014867782592773
0,31190,0.9269658327102661,-14.665321350097656,3.411135673522949,10.104723930358887
0,31190,-4.395751476287842,10.141565322875977,-4.695102691650391,-5.091764450073242
0,31191,-8.739527702331543,-0.11769813299179077,4.137507915496826,-4.337991237640381
0,31191,6.842549800872803,-4.218537330627441,-0.5781878232955933,-4.897006988525391
0,31191,18.65662384033203,-5.146895885467529,-11.985875129699707,-11.230096817016602
0,31191,-15.93667221069336,-0.38818028569221497,9.020825386047363,-5.608333587646484
0,31191,-29.26194190979004,7.7049641609191895,18.501747131347656,17.34701919555664
0,31191,20.65276527404785,-4.577498912811279,4.471179485321045,12.168904304504395
0,31192,29.012128829956055,-3.838961362838745,-12.185121536254883,-13.528485298156738
0,31192,-10.309343338012695,6.968010902404785,-13.682146072387695,-18.456274032592773
0,31193,-11.50581169128418,-9.681910514831543,2.694218397140503,5.6812028884887695
0,31193,-10.321914672851562,-12.528667449951172,8.938216209411621,-9.255900382995605
0,31195,-3.152526617050171,20.94901466369629,-7.9827446937561035,-7.062136650085449
0,31196,15.501176834106445,23.555057525634766,-10.098345756530762,27.845680236816406
0,31199,-15.255796432495117,-19.592134475708008,9.684374809265137,10.893590927124023
0,31200,-8.266427040100098,-12.258820533752441,15.170516014099121,-8.26082992553711
0,31203,20.557281494140625,18.332365036010742,-3.8717005252838135,18.91306495666504
0,31204,6.7495527267456055,11.57981014251709,-16.78787612915039,4.787415027618408
0,31207,-3.352555990219116,-24.73641014099121,11.517292022705078,-30.3831729888916
0,31208,-0.9477335810661316,-17.70364761352539,15.452489852905273,-10.682609558105469
0,31211,4.76132869720459,10.372588157653809,-16.281192779541016,23.417539596557617
0,31212,0.21351969242095947,-13.251763343811035,-22.150909423828125,1.4362584352493286
0,31215,-0.2500406503677368,4.363265037536621,15.360701560974121,-32.24173355102539
0,31216,-7.87117338180542,16.4202938079834,13.34229564666748,8.636543273925781
0,31219,1.995985507965088,18.9242000579834,-9.114797592163086,39.35542297363281
0,31220,17.770103454589844,2.296422004699707,9.311383247375488,-5.2175703048706055
0,31269,2.9008610248565674,-19.09613609313965,-3.964416980743408,-38.503116607666016
0,31269,-10.41235637664795,2.2127223014831543,-4.287353515625,8.330272674560547
0,31270,-17.29781150817871,0.9514448642730713,15.31148910522461,30.42661476135254
0,31270,-14.381486892700195,12.32609748840332,1.9703024625778198,-0.6332468390464783
0,31270,23.684532165527344,18.938430786132812,-7.048891067504883,-7.359256744384766
0,31270,21.143192291259766,-11.005101203918457,-4.659480094909668,2.8003990650177
0,31270,-22.1428165435791,-19.32158660888672,7.121067047119141,0.45168131589889526
0,31270,-7.845894813537598,2.022862672805786,1.9646319150924683,2.255214214324951
0,31271,17.657541275024414,-8.080633163452148,-9.312100410461426,-9.766688346862793
0,31271,2.347184896469116,-19.279687881469727,-7.771729469299316,-33.35136413574219
0,31271,-15.93011474609375,9.455928802490234,-7.024724006652832,0.9995114207267761
0,31271,0.09269558638334274,23.348608016967773,2.8077569007873535,31.420534133911133
0,31271,9.393431663513184,0.9871243834495544,15.225162506103516,9.124536514282227
0,31271,-14.687090873718262,-17.054779052734375,-0.8405616879463196,-7.102342128753662
0,31272,-5.677177906036377,-3.5271337032318115,-17.036996841430664,4.376391887664795
0,31272,20.5120906829834,8.170024871826172,13.985767364501953,-0.2248421013355255
0,31272,-3.0753333568573,-1.6416904926300049,9.718649864196777,8.676850318908691
0,31272,-16.55565071105957,-1.9348727464675903,-11.940123558044434,13.169822692871094
0,31272,19.23160171508789,-2.5660040378570557,6.898608684539795,-36.528629302978516
0,31272,1.9381674528121948,-14.999139785766602,-4.364888668060303,-21.097671508789062
0,31273,-40.96876525878906,3.952824592590332,-12.392595291137695,17.50925064086914
0,31273,-6.375768661499023,31.984600067138672,9.587240219116211,0.8379706144332886
0,31273,37.46353530883789,0.40834587812423706,2.4865715503692627,-15.6041259765625
0,31273,15.130597114562988,-27.08355712890625,-19.742347717285156,-1.3051446676254272
0,31274,-9.787675857543945,6.18320894241333,-2.526482582092285,5.148399353027344
0,31275,-11.304375648498535,14.80125617980957,24.431602478027344,-17.77779197692871
0,31275,-16.84868621826172,-19.232074737548828,-3.089292049407959,5.078298091888428
0,31276,16.816713333129883,12.074139595031738,4.008376121520996,1.3693716526031494
0,31277,21.65970802307129,8.877800941467285,17.518579483032227,-30.506641387939453
0,31280,-1.3713335990905762,-21.78536605834961,-14.354711532592773,32.05970764160156
0,31282,-16.87701988220215,24.84711456298828,4.0279083251953125,47.64650344848633
0,31284,-28.427289962768555,-7.609971523284912,-2.1428298950195312,-34.8690185546875
0,31286,12.002477645874023,-12.057469367980957,-9.310415267944336,-12.956599235534668
0,31288,48.10380935668945,22.79444694519043,15.820789337158203,34.241302490234375
0,31290,1.3405234813690186,-22.161794662475586,-7.1432881355285645,-8.817005157470703
0,31292,-41.89609146118164,-22.56739044189453,-13.182173728942871,1.187780499458313
0,31294,10.018830299377441,33.20496368408203,10.538298606872559,12.127833366394043
0,31296,23.435651779174805,12.718541145324707,-3.991302013397217,-17.808767318725586
0,31298,-14.37523365020752,-25.811662673950195,-13.26319408416748,13.792110443115234
0,31300,-8.284611701965332,16.28160858154297,21.553394317626953,20.122920989990234
0,31302,12.65522575378418,12.161725997924805,4.606201648712158,-20.80729103088379
0,31363,-7.5699849128723145,-24.035932540893555,-32.42108917236328,-10.260068893432617
0,31364,-9.801570892333984,-20.10806655883789,9.462810516357422,22.755212783813477
0,31364,17.22150993347168,7.417211055755615,16.786602020263672,-15.750604629516602
0,31364,-3.443558692932129,26.420040130615234,-26.395042419433594,-26.31174087524414
0,31364,-28.023326873779297,0.79885333776474,-2.5796046257019043,22.898210525512695
0,31364,-5.8282294273376465,-15.312336921691895,30.019075393676758,28.665874481201172
0,31364,16.631879806518555,-7.09457540512085,5.368681907653809,-7.009810924530029
0,31365,7.035974502563477,1.435958743095398,-23.780906677246094,-24.964061737060547
0,31365,-3.398017168045044,0.05419701710343361,1.2445405721664429,10.226089477539062
0,31365,3.2678403854370117,5.594418048858643,21.841201782226562,2.273150682449341
0,31365,2.859809398651123,19.990192413330078,-11.59234619140625,-38.96857452392578
0,31365,-4.214027404785156,-13.429353713989258,-12.54952621459961,3.088348388671875
0,31365,17.850160598754883,-24.65397071838379,19.507049560546875,46.012569427490234
0,31366,-1.443315863609314,22.197860717773438,-2.3203206062316895,-3.176755905151367
0,31366,-20.138900756835938,20.65962791442871,-2.9788615703582764,-24.35662269592285
0,31366,21.771648406982422,-3.5604634284973145,8.775986671447754,-8.642906188964844
0,31366,-2.335999011993408,-0.4424761235713959,-22.084941864013672,7.7735490798950195
0,31366,-19.64809226989746,-4.659030437469482,-9.327445030212402,9.269122123718262
0,31366,18.294593811035156,-2.6096749305725098,5.138786315917969,-16.523406982421875
0,31367,7.273707389831543,-1.0277345180511475,3.084205150604248,3.2970657348632812
0,31367,-1.1215695142745972,-10.907890319824219,1.6596765518188477,10.827862739562988
0,31367,2.9362828731536865,-8.860381126403809,3.699225664138794,-12.704792976379395
0,31367,-20.653656005859375,-5.86016321182251,15.953924179077148,0.09855032712221146
0,31367,-8.851149559020996,5.545985221862793,-1.7719656229019165,28.323566436767578
0,31367,18.51091957092285,28.788881301879883,-1.521604061126709,-1.4219989776611328
0,31368,8.641587257385254,-5.806382179260254,8.641847610473633,-28.104082107543945
0,31368,-8.540777206420898,-18.292940139770508,-21.03716278076172,7.223875999450684
0,31368,-27.59295654296875,14.10339069366455,-21.8353271484375,8.306888580322266
0,31368,-10.125622749328613,-13.26179027557373,11.502156257629395,13.61088752746582
0,31368,36.9050407409668,-4.286491870880127,20.08009147644043,-3.713423490524292
0,31369,15.77051067352295,25.540918350219727,-4.708188533782959,-35.96184158325195
0,31370,-30.482141494750977,1.731693148612976,-11.014509201049805,18.910572052001953
0,31370,-24.100358963012695,-22.239137649536133,9.643333435058594,19.5671329498291
0,31370,16.321989059448242,-8.225615501403809,9.829253196716309,-32.51982498168945
0,31372,28.19220542907715,10.30909252166748,-2.4824514389038086,-17.66164207458496
0,31374,-11.563026428222656,1.4599493741989136,-16.135669708251953,17.905683517456055
0,31376,-11.41455364227295,6.494271755218506,3.5370185375213623,31.09926986694336
0,31378,2.1133570671081543,-20.522945404052734,22.862361907958984,16.364965438842773
0,31380,3.13026762008667,-26.049345016479492,-2.7643139362335205,-16.054109573364258
0,31382,-10.2705659866333,37.63008117675781,1.4784820079803467,7.573598861694336
0,31384,-6.46786642074585,34.222564697265625,-0.7944175601005554,-4.90413236618042
0,31386,26.903034210205078,-25.019533157348633,-22.864044189453125,-28.33052635192871
0,31388,19.5482177734375,-9.240616798400879,10.188729286193848,10.02635383605957
0,31390,-2.8863959312438965,16.924583435058594,15.26426887512207,11.611383438110352
0,31392,-31.738101959228516,-17.46758270263672,-16.37264060974121,20.327960968017578
0,31394,2.568751573562622,4.067479610443115,-5.084261894226074,-23.06174087524414
0,31396,19.033567428588867,30.285985946655273,13.316967964172363,-37.19916915893555
0,31398,-16.519689559936523,-2.9042863845825195,2.7036235332489014,29.966379165649414
0,31400,-9.319662094116211,-22.503854751586914,-23.78859519958496,30.323917388916016
0,31473,10.385133743286133,-15.543086051940918,-27.487401962280273,-24.357044219970703
0,31473,2.6752660274505615,17.217788696289062,21.545616149902344,-49.675479888916016
0,31473,-6.32576847076416,2.6605172157287598,25.9031925201416,11.689132690429688
0,31474,14.770028114318848,-25.341907501220703,-16.134302139282227,50.86309814453125
0,31474,0.3619254231452942,13.847817420959473,9.862724304199219,-4.074560642242432
0,31474,-4.355040550231934,27.1108455657959,10.768267631530762,-24.402490615844727
0,31474,0.20647118985652924,-9.817230224609375,-24.100982666015625,6.15228796005249
0,31474,-8.905753135681152,-24.975202560424805,3.2095694541931152,6.297619819641113
0,31474,12.079947471618652,1.6846280097961426,10.3525972366333,-9.261134147644043
0,31475,3.186540365219116,8.541485786437988,-4.201197147369385,-7.385301113128662
0,31475,-17.717618942260742,-6.024091720581055,16.88273811340332,6.805308818817139
0,31475,1.1918755769729614,-2.013476610183716,2.154313087463379,2.47505784034729
0,31475,8.612130165100098,-3.2923412322998047,-21.523536682128906,9.275368690490723
0,31475,-19.313655853271484,9.999164581298828,10.739625930786133,20.77577781677246
0,31475,6.109202861785889,27.593563079833984,15.489269256591797,-8.832626342773438
0,31476,35.270999908447266,-10.207149505615234,-24.771846771240234,-19.172576904296875
0,31476,-28.914880752563477,-32.5876350402832,-13.952680587768555,-1.1211131811141968
0,31476,-32.30517578125,4.272242069244385,15.39922046661377,12.907553672790527
0,31476,42.96493911743164,15.585909843444824,4.3753533363342285,6.837756633758545
0,31476,18.381189346313477,-10.317526817321777,9.0462646484375,-7.713512420654297
0,31476,-30.74198341369629,8.860236167907715,7.574913501739502,6.9328179359436035
0,31477,1.5189812183380127,16.851438522338867,-24.727312088012695,-8.629055976867676
0,31477,14.193366050720215,-33.556453704833984,-21.275074005126953,-16.708890914916992
0,31477,-13.987235069274902,1.1471195220947266,12.13669490814209,26.06014633178711
0,31477,-10.445282936096191,16.775222778320312,11.298925399780273,7.472262859344482
0,31477,14.870477676391602,-13.391312599182129,-4.247255325317383,-39.56394958496094
0,31478,10.588289260864258,10.505913734436035,5.279216766357422,-4.564094543457031
0,31478,-13.356815338134766,-19.333711624145508,-1.3151459693908691,40.33781814575195
0,31478,-7.418013095855713,-15.101489067077637,-0.007013525813817978,-3.4071128368377686
0,31478,13.60358715057373,34.51818084716797,10.998329162597656,-42.43374252319336
0,31478,5.442880153656006,34.843994140625,5.88010311126709,-1.146931767463684
0,31478,-3.025766134262085,-10.636137962341309,2.7379584312438965,29.204151153564453
0,31479,-2.4959630966186523,-40.72526550292969,-3.7331929206848145,10.807403564453125
0,31479,2.189326763153076,17.993860244750977,-2.263476848602295,-11.58195972442627
0,31479,7.411234378814697,40.403602600097656,5.252102375030518,1.4741227626800537
0,31479,8.159428596496582,-22.57981300354004,-9.58771800994873,1.2761077880859375
0,31480,-25.178829193115234,-52.650306701660156,-20.201435089111328,-8.663809776306152
0,31480,-35.8762092590332,6.22886848449707,-4.939672946929932,12.072590827941895
0,31481,38.2794189453125,41.62747573852539,10.638907432556152,13.061189651489258
0,31481,36.57504653930664,-0.5329613089561462,27.30479621887207,-8.447972297668457
0,31482,-19.173072814941406,-13.412177085876465,-25.510740280151367,-31.274335861206055
0,31483,-11.594181060791016,-10.214037895202637,-46.462039947509766,-16.95511245727539
0,31486,-13.54590129852295,-4.879632472991943,30.54804229736328,18.230545043945312
0,31488,-6.883780002593994,6.959104537963867,28.39756202697754,31.376535415649414
0,31490,20.885190963745117,11.392909049987793,-4.866441249847412,-5.4040679931640625
0,31492,10.385714530944824,10.53120231628418,14.869573593139648,-25.133487701416016
0,31494,-13.038183212280273,-3.85720157623291,2.837919235229492,11.96401309967041
0,31496,1.740573525428772,-6.4716572761535645,-11.33548355102539,-6.209777355194092
0,31498,3.3986446857452393,-4.693962574005127,-2.0346930027008057,-7.8829498291015625
0,31500,-6.668370246887207,0.43498143553733826,-8.977948188781738,35.06925582885742
0,31502,2.4119043350219727,8.456048965454102,5.8925604820251465,12.940258026123047
0,31504,-12.502021789550781,-12.591890335083008,2.390967845916748,-19.264177322387695
0,31506,-15.598130226135254,-18.04416275024414,-9.001269340515137,-18.991764068603516
0,31508,4.429508209228516,21.30742073059082,8.480862617492676,3.799766778945923
0,31510,25.92927360534668,25.58530044555664,-9.78421688079834,10.749004364013672
0,31512,-7.818609714508057,-22.432546615600586,-21.157621383666992,-5.130856990814209
0,31515,-11.672801971435547,-24.08852195739746,14.3386869430542,-5.177023410797119
0,31599,34.156890869140625,55.54193115234375,36.37797927856445,4.291810035705566
0,31599,-2.4645371437072754,15.766300201416016,1.9189646244049072,19.328657150268555
0,31600,-18.748197555541992,-57.95357894897461,-27.036191940307617,-7.410107135772705
0,31600,2.0053927898406982,5.509143352508545,-3.0160794258117676,-5.713257789611816
0,31600,6.155734062194824,13.768380165100098,1.8792908191680908,13.39523696899414
0,31600,6.925931453704834,-17.25455665588379,-9.234847068786621,-9.399091720581055
0,31600,-9.967419624328613,-0.9157358407974243,2.8310253620147705,-8.706548690795898
0,31600,0.7498114109039307,10.963603973388672,19.457717895507812,5.586445331573486
0,31601,9.905754089355469,0.794553816318512,-3.8973119258880615,-8.768134117126465
0,31601,-7.701052188873291,-6.21708869934082,-13.042718887329102,-8.553629875183105
0,31601,-12.188420295715332,-1.7565652132034302,3.4844400882720947,25.93815803527832
0,31601,0.25569918751716614,7.790889263153076,2.3290488719940186,-27.94268798828125
0,31601,-2.0736172199249268,3.316929817199707,20.137252807617188,-19.762805938720703
0,31602,-2.7387001514434814,-0.9712510108947754,8.139532089233398,43.07551956176758
0,31602,6.296683311462402,-5.11267614364624,-25.855138778686523,-6.052032947540283
0,31602,-5.542076587677002,-25.617029190063477,-0.6084345579147339,2.296307325363159
0,31602,-2.5875308513641357,7.078754425048828,26.734169006347656,8.144597053527832
0,31602,3.804307222366333,31.048593521118164,-2.5636610984802246,-15.951362609863281
0,31602,9.763116836547852,5.738440036773682,-20.19301414489746,10.253485679626465
0,31602,10.421488761901855,-17.399782180786133,-6.461999416351318,4.982263088226318
0,31603,-7.021227836608887,-19.350231170654297,-12.835679054260254,-9.839987754821777
0,31603,-8.374415397644043,5.087334156036377,-4.867672920227051,-5.101412296295166
0,31603,1.329181432723999,12.309242248535156,18.12917137145996,-4.88074254989624
0,31603,0.5152716636657715,6.882821559906006,0.2149500846862793,1.6576355695724487
0,31603,13.798163414001465,-5.284600257873535,-9.733092308044434,-7.981220245361328
0,31604,-13.906543731689453,-11.604151725769043,-3.756993055343628,-19.377422332763672
0,31604,-12.703462600708008,-2.929417371749878,-5.687645435333252,8.69452953338623
0,31604,20.83482551574707,14.465559005737305,1.4447156190872192,12.921969413757324
0,31604,-26.170215606689453,6.032088279724121,25.067916870117188,2.9943630695343018
0,31604,9.591668128967285,-15.735052108764648,4.680369853973389,-7.648207187652588
0,31604,16.893667221069336,-0.0499223917722702,-26.119766235351562,-6.127559661865234
0,31605,-19.979276657104492,14.872021675109863,14.511309623718262,11.06391716003418
0,31605,25.26871109008789,-2.7353920936584473,19.6646671295166,-6.380411624908447
0,31605,-11.467086791992188,-6.854172706604004,-1.0958424806594849,1.3824365139007568
0,31605,-25.2636661529541,30.515548706054688,4.113646030426025,28.455278396606445
0,31605,40.459442138671875,5.0578813552856445,-12.276853561401367,-14.562334060668945
0,31605,13.970236778259277,-25.89561653137207,-21.365474700927734,-30.115638732910156
0,31606,-34.6821403503418,-16.247417449951172,-11.641332626342773,44.2878303527832
0,31606,-14.213879585266113,-0.04939381778240204,26.511085510253906,32.02242660522461
0,31606,4.576992511749268,5.613277435302734,15.758090019226074,-18.337810516357422
0,31606,8.446483612060547,-2.3676674365997314,-26.345340728759766,-1.8234782218933105
0,31606,20.63164520263672,21.176977157592773,7.596093654632568,-32.67421340942383
0,31608,1.559893012046814,-20.52552604675293,0.8374322056770325,-3.772733449935913
0,31608,-27.20125961303711,-30.176198959350586,-9.423992156982422,49.55252456665039
0,31608,9.681487083435059,5.300991535186768,21.53921890258789,-19.58434295654297
0,31608,11.457294464111328,6.708151817321777,-5.256285667419434,-17.696157455444336
0,31608,-19.658401489257812,30.971519470214844,-10.67313003540039,15.246001243591309
0,31610,11.161410331726074,13.770280838012695,0.797021746635437,-12.10045337677002
0,31612,7.78842830657959,-13.952239036560059,-16.588468551635742,4.165971279144287
0,31614,-10.651847839355469,-21.848634719848633,8.884765625,15.314631462097168
0,31616,17.50687599182129,17.634082794189453,13.902499198913574,-32.89051818847656
0,31618,0.4866463243961334,29.410579681396484,-17.877029418945312,-38.63759231567383
0,31620,-8.888407707214355,-11.602723121643066,-3.0749573707580566,39.47450256347656
0,31622,3.1186046600341797,1.0229871273040771,9.540063858032227,42.131980895996094
0,31624,-19.959794998168945,5.171037197113037,4.735814094543457,-31.245155334472656
0,31626,2.9997565746307373,-3.8066823482513428,15.246135711669922,-23.865001678466797
0,31628,14.132676124572754,-32.90013122558594,3.5643866062164307,22.571826934814453
0,31630,-4.384482383728027,-24.199020385742188,-8.30299186706543,27.74453353881836
0,31632,7.5017876625061035,28.679893493652344,-20.526235580444336,3.0158793926239014
0,31634,6.305826663970947,27.33826446533203,6.094831466674805,-39.79951858520508
0,31636,-17.375102996826172,2.0504868030548096,27.537437438964844,-10.11794376373291
0,31638,-4.1004133224487305,-16.370946884155273,-25.292827606201172,-6.759981155395508
0,31640,0.27837905287742615,-27.24213981628418,-20.037433624267578,4.296432018280029
0,31642,-10.462682723999023,-2.205876111984253,12.031400680541992,69.64582824707031
0,31739,34.13685607910156,23.358356475830078,1.4185978174209595,-25.2971134185791
0,31739,9.561710357666016,9.097887992858887,3.763094902038574,-49.677978515625
0,31739,-19.651342391967773,4.98239803314209,2.9958064556121826,7.172545909881592
0,31739,4.155024528503418,-11.767772674560547,-12.88182544708252,-4.8838958740234375
0,31739,-30.95662498474121,-16.913330078125,0.8371951580047607,24.603330612182617
0,31739,-8.922307014465332,0.8813292980194092,7.529985427856445,16.654193878173828
0,31740,34.00331497192383,11.121851921081543,6.115381240844727,-3.707674980163574
0,31740,1.5826258659362793,14.11455249786377,5.361448764801025,-15.696263313293457
0,31740,-16.0908203125,-21.13306999206543,-1.8997998237609863,-3.4977540969848633
0,31740,6.0177531242370605,-14.285605430603027,6.961389541625977,10.90259075164795
0,31740,17.169965744018555,29.306941986083984,-8.46478271484375,-10.681709289550781
0,31740,-16.023469924926758,8.282144546508789,1.5033270120620728,10.493331909179688
0,31741,-21.972986221313477,-18.73887062072754,21.89330291748047,1.5202171802520752
0,31741,6.6741814613342285,7.8356451988220215,-8.422357559204102,-13.235108375549316
0,31741,-4.399438858032227,10.173826217651367,2.0178897380828857,-6.9105095863342285
0,31741,2.2254250049591064,-22.004005432128906,8.724111557006836,2.1468541622161865
0,31741,16.606040954589844,-9.621572494506836,-17.720911026000977,4.6172966957092285
0,31742,-3.839918375015259,14.62669563293457,-7.1595540046691895,-9.862553596496582
0,31742,-12.11106014251709,-5.2801432609558105,8.35315227508545,22.86163902282715
0,31742,-0.06436432898044586,-13.139723777770996,0.1915573626756668,1.5673378705978394
0,31742,11.3480806350708,3.467660427093506,-14.076983451843262,-28.703035354614258
0,31742,-12.09670639038086,-2.1053354740142822,-17.212827682495117,15.8912353515625
0,31742,-13.603226661682129,14.353874206542969,3.477635622024536,21.924551010131836
0,31743,27.8861083984375,25.79221534729004,25.286283493041992,-7.091562271118164
0,31743,22.570898056030273,-15.995223999023438,-9.176529884338379,-24.393943786621094
0,31743,-14.620135307312012,-10.733498573303223,-12.208346366882324,3.3730051517486572
0,31743,-15.103655815124512,6.690629005432129,21.748498916625977,25.697668075561523
0,31743,-0.6492213606834412,-1.0943477153778076,-8.409001350402832,4.11091423034668
0,31743,8.173441886901855,6.768126010894775,-12.84754753112793,-2.6281068325042725
0,31744,18.86069679260254,-5.356743812561035,3.086711883544922,-9.2978515625
0,31744,-4.79711389541626,-5.690413951873779,-0.19081038236618042,3.4204864501953125
0,31744,-15.296004295349121,3.8543176651000977,11.806791305541992,8.299627304077148
0,31744,19.042078018188477,17.47598648071289,14.262516975402832,-17.001480102539062
0,31744,2.8266286849975586,16.931726455688477,14.545620918273926,-11.405051231384277
0,31744,-8.690678596496582,-9.593465805053711,-24.665687561035156,-23.88218879699707
0,31745,5.655153274536133,-19.08625602722168,-29.594261169433594,7.510416507720947
0,31745,-18.391639709472656,-4.015932083129883,24.01363182067871,58.475250244140625
0,31745,-24.335678100585938,-6.01569938659668,15.502684593200684,5.900310039520264
0,31745,19.48322296142578,6.386061668395996,2.8263559341430664,-19.235563278198242
0,31745,38.333892822265625,13.31022834777832,-17.126569747924805,-25.446449279785156
0,31745,-18.046131134033203,-16.948942184448242,-19.92924690246582,-10.79092788696289
0,31746,-30.883874893188477,-15.492463111877441,22.609952926635742,24.152114868164062
0,31746,13.063712120056152,7.242732524871826,0.4266663193702698,-12.57351303100586
0,31746,27.527435302734375,19.296241760253906,-3.8557286262512207,-6.293164253234863
0,31746,-9.636749267578125,-22.442367553710938,12.11168384552002,29.805118560791016
0,31746,-16.89875602722168,-0.9525501132011414,-11.995549201965332,-8.20889949798584
0,31747,19.331844329833984,35.99325180053711,6.737364768981934,-31.31226921081543
0,31747,-21.50350570678711,-28.359010696411133,4.624960422515869,18.12978744506836
0,31748,-14.861248970031738,-11.500653266906738,-7.15504264831543,4.779577255249023
0,31748,34.457027435302734,62.6910285949707,2.379870891571045,-32.69168472290039
0,31748,-7.526919364929199,13.70841121673584,-14.538474082946777,-12.503255844116211
0,31748,-7.924839496612549,-59.43075942993164,-12.956198692321777,19.040185928344727
0,31749,0.6412500739097595,-12.708282470703125,4.760855674743652,42.05764389038086
0,31750,-4.267121315002441,36.32539367675781,36.02947235107422,8.837376594543457
0,31753,10.245027542114258,-24.895381927490234,-9.180000305175781,-20.080036163330078
0,31754,-6.635889530181885,-34.764068603515625,-38.1539421081543,-5.926428318023682
0,31757,2.332350969314575,37.50474166870117,37.55313491821289,9.341584205627441
0,31758,22.749404907226562,8.255465507507324,22.92153549194336,39.240478515625
0,31761,8.875025749206543,-3.7270615100860596,-19.258365631103516,-3.701075792312622
0,31762,-28.979999542236328,9.029863357543945,-18.561695098876953,-67.56029510498047
0,31765,-17.35662078857422,-33.20784378051758,-8.17010498046875,11.132524490356445
0,31766,9.921998023986816,-17.155893325805664,11.845161437988281,29.122089385986328
0,31769,-10.149133682250977,30.55571174621582,15.977795600891113,-23.000356674194336
0,31770,6.522125244140625,28.375341415405273,-10.026540756225586,2.558694362640381
0,31773,5.935965538024902,-36.78326416015625,-46.93912124633789,1.3003891706466675
0,31774,-10.820398330688477,-15.438374519348145,-1.2021608352661133,-16.189241409301758
0,31775,14.505606651306152,33.393672943115234,26.725770950317383,-19.00537109375
0,31778,14.769410133361816,3.23095703125,16.795913696289062,17.119813919067383
0,31779,4.230971336364746,-1.9758374691009521,21.673002243041992,50.41127014160156
0,31782,-6.926241874694824,-9.956014633178711,-19.666650772094727,-16.541196823120117
0,31783,-9.01998519897461,9.818427085876465,-8.544037818908691,-25.109277725219727
0,31891,-2.3634843826293945,25.48052406311035,31.85401153564453,20.41927719116211
0,31891,-3.778820276260376,-13.122605323791504,3.2933733463287354,-14.571396827697754
0,31891,-2.9134604930877686,-22.482013702392578,-27.07722282409668,3.885277271270752
0,31891,2.197100877761841,8.719158172607422,7.9161224365234375,21.23114013671875
0,31891,-5.213100910186768,6.847319602966309,21.872100830078125,-35.735755920410156
0,31892,-8.028294563293457,-21.355236053466797,-35.46735382080078,0.5748521089553833
0,31892,-5.278082847595215,8.330599784851074,-13.08242130279541,40.501678466796875
0,31892,-5.543492317199707,26.90537452697754,34.85369873046875,-15.905983924865723
0,31892,31.668804168701172,-9.59011459350586,-16.02946662902832,-19.469938278198242
0,31892,17.11136245727539,-19.693540573120117,-22.43548583984375,9.885583877563477
0,31892,-24.302934646606445,-1.6700340509414673,16.760194778442383,3.3825011253356934
0,31893,4.936421871185303,15.270719528198242,18.098407745361328,-4.503344535827637
0,31893,17.292980194091797,7.6460113525390625,2.3517212867736816,-6.323838233947754
0,31893,3.4684596061706543,-4.787421226501465,-26.283092498779297,1.1508371829986572
0,31893,-7.457610607147217,5.703202247619629,-10.91448974609375,4.743706703186035
0,31893,-6.030027389526367,-13.262125968933105,19.201412200927734,-9.907917976379395
0,31893,-0.6332429647445679,-17.302213668823242,3.9247756004333496,-12.914496421813965
0,31894,-0.22810865938663483,15.543991088867188,-6.12857723236084,9.455241203308105
0,31894,-2.3214380741119385,9.164551734924316,-3.173062801361084,6.2090911865234375
0,31894,-31.569442749023438,-11.131591796875,-2.71647572517395,-7.4007568359375
0,31894,0.6257148385047913,-12.406357765197754,5.502198696136475,31.805421829223633
0,31894,26.72699546813965,-0.4406845271587372,3.0161044597625732,20.953723907470703
0,31894,-1.0284523963928223,32.15308380126953,-0.7671744227409363,-45.16354751586914
0,31895,1.1568320989608765,-3.048261880874634,7.1712870597839355,-8.014822006225586
0,31895,-14.996820449829102,-28.44525718688965,-5.375638961791992,34.58595275878906
0,31895,-5.020764350891113,20.128894805908203,-8.418618202209473,-8.621135711669922
0,31895,-0.5998224020004272,-3.60528564453125,-4.781526565551758,-14.933507919311523
0,31895,3.624373197555542,-28.214550018310547,-2.5132031440734863,-2.1495749950408936
0,31896,22.325027465820312,5.918910980224609,9.886921882629395,-10.8794527053833
0,31896,-14.549644470214844,18.74507713317871,-8.479635238647461,11.2962007522583
0,31896,-0.8368881344795227,-2.1714894771575928,10.890843391418457,15.283093452453613
0,31896,18.747407913208008,-2.641897678375244,19.528825759887695,-8.995591163635254
0,31896,-4.099804401397705,8.312986373901367,-19.62858009338379,1.167542576789856
0,31896,-18.799346923828125,-24.594770431518555,-2.0011773109436035,4.766761302947998
0,31897,-15.549405097961426,-24.77452850341797,10.294417381286621,4.707828998565674
0,31897,20.01453399658203,35.25666046142578,4.074330806732178,16.543556213378906
0,31897,23.07035255432129,25.72406005859375,13.870615005493164,-14.975347518920898
0,31897,-16.11417579650879,-31.186845779418945,-10.25112533569336,-1.1903156042099
0,31897,-17.645421981811523,-7.606673240661621,-26.290918350219727,10.809403419494629
0,31897,20.011072158813477,21.87923240661621,5.459098815917969,-6.337184906005859
0,31898,13.280383110046387,-6.264797210693359,13.13589859008789,12.710537910461426
0,31898,1.917401909828186,-18.96337127685547,-11.971171379089355,-17.790761947631836
0,31898,-4.169196605682373,6.589166164398193,-12.501876831054688,1.148433804512024
0,31898,-11.236263275146484,20.613338470458984,-0.9656806588172913,33.03769302368164
0,31898,14.441740036010742,9.859216690063477,26.46722412109375,-0.5875704288482666
0,31898,8.98828411102295,1.5419244766235352,10.428983688354492,-1.2095173597335815
0,31899,-20.91500473022461,-7.445032119750977,-18.347585678100586,4.605998516082764
0,31899,-11.525246620178223,2.9623186588287354,4.011473655700684,-21.808046340942383
0,31899,32.93380355834961,2.5412445068359375,-6.536569118499756,-12.138050079345703
0,31899,-6.554515361785889,-11.955206871032715,19.118988037109375,27.32265281677246
0,31899,-32.938758850097656,2.451216220855713,23.073909759521484,-0.6887403130531311
0,31899,14.068727493286133,7.139292240142822,-27.921428680419922,-52.627479553222656
0,31900,-22.700101852416992,16.41473388671875,-7.955687046051025,-11.052392959594727
0,31901,5.620737075805664,19.94137954711914,19.803035736083984,7.970948696136475
0,31901,38.40404510498047,-13.787866592407227,19.023189544677734,-27.089454650878906
0,31901,-10.239343643188477,-22.971817016601562,-7.711004734039307,8.111274719238281
0,31901,1.4673138856887817,9.867151260375977,-39.78879928588867,-17.892900466918945
0,31902,-16.8284854888916,12.109101295471191,-10.39136028289795,-8.904356002807617
0,31903,-18.914718627929688,2.2139759063720703,22.264699935913086,29.65308952331543
0,31904,2.2957141399383545,-12.66344928741455,-2.3265202045440674,-13.189397811889648
0,31906,22.33835220336914,-18.871240615844727,-10.468430519104004,12.710110664367676
0,31908,2.6514034271240234,3.4448764324188232,13.047643661499023,11.340150833129883
0,31910,-36.90980529785156,-16.08449363708496,-9.764471054077148,-18.982866287231445
0,31912,35.29367446899414,-3.8407182693481445,-39.511043548583984,31.84865951538086
0,31914,39.965999603271484,23.24409294128418,25.4617977142334,37.82019805908203
0,31916,-53.95710372924805,-23.725486755371094,14.203625679016113,-20.05828094482422
0,31918,-45.658382415771484,-18.526020050048828,-36.0770149230957,-17.28594970703125
0,31920,30.89542579650879,26.67247772216797,45.9085693359375,21.432430267333984
0,31922,46.84827423095703,18.11362648010254,18.7069091796875,0.07905062288045883
0,31924,3.4764363765716553,-5.43832540512085,-35.87297058105469,-5.350255012512207
0,31926,-34.33320236206055,-7.2338080406188965,9.567028999328613,18.004653930664062
0,31928,9.033280372619629,29.47032928466797,11.792396545410156,-19.079713821411133
0,31930,18.797027587890625,13.830071449279785,7.420833587646484,1.9268642663955688
0,31932,-23.409812927246094,-31.699390411376953,-2.8031039237976074,4.874613285064697
0,31934,-14.540867805480957,-49.87527847290039,-21.57193374633789,-51.92189407348633
0,31936,13.779375076293945,-6.110143661499023,1.9959049224853516,28.232566833496094
0,31938,22.482261657714844,50.66054916381836,2.193239212036133,58.77986526489258
0,31940,14.879798889160156,26.056903839111328,6.0665483474731445,-29.98638916015625
0,31942,-10.336836814880371,-8.772401809692383,-7.642073631286621,-33.83174133300781
0,32059,-11.65986156463623,-26.758222579956055,-2.603667974472046,17.223466873168945
0,32059,9.122774124145508,-16.435531616210938,58.871055603027344,38.17103576660156
0,32060,-17.9211483001709,-3.3636178970336914,-13.12899112701416,2.462873935699463
0,32060,3.7626638412475586,20.58812141418457,-39.1663818359375,-21.223106384277344
0,32060,21.712350845336914,13.250146865844727,7.491708278656006,1.034449815750122
0,32060,-15.56306266784668,3.3003833293914795,-5.002996444702148,-14.443458557128906
0,32060,-19.245994567871094,-0.7798577547073364,13.414429664611816,-16.93510627746582
0,32060,2.4592132568359375,-23.620317459106445,-4.038153648376465,16.101680755615234
0,32061,-7.371244430541992,0.4173896312713623,-16.738967895507812,9.059826850891113
0,32061,-0.689827024936676,14.645522117614746,12.633352279663086,-26.488670349121094
0,32061,28.47974395751953,0.5591233968734741,-1.7644681930541992,-21.639141082763672
0,32061,-16.970985412597656,-24.64301300048828,-19.94398307800293,7.918674945831299
0,32061,-25.78705596923828,7.992168426513672,-11.402112007141113,-6.4101057052612305
0,32061,19.532583236694336,36.97268295288086,12.358933448791504,-5.460737228393555
0,32062,13.227070808410645,-4.772071838378906,13.949047088623047,29.5502872467041
0,32062,-8.474775314331055,-15.126666069030762,-9.907015800476074,15.864055633544922
0,32062,6.234942436218262,14.511913299560547,5.705122470855713,-27.16642189025879
0,32062,12.713981628417969,2.961333751678467,4.216855049133301,-13.390491485595703
0,32062,-15.474241256713867,-11.261743545532227,-15.352348327636719,12.680682182312012
0,32062,-20.10103416442871,4.7700395584106445,9.364348411560059,-0.8163681626319885
0,32063,4.9035563468933105,-13.795886039733887,17.218996047973633,17.853349685668945
0,32063,12.710756301879883,2.1523284912109375,-1.1127406358718872,30.725934982299805
0,32063,0.5608521103858948,23.26470184326172,-4.141082763671875,-7.3984503746032715
0,32063,8.230669021606445,-17.121864318847656,-7.538034439086914,-16.654436111450195
0,32063,-1.428052544593811,-10.387308120727539,6.504712104797363,-9.643421173095703
0,32064,0.7051427364349365,15.9928560256958,16.858104705810547,-1.332176923751831
0,32064,6.133991718292236,-5.175020217895508,-12.712681770324707,2.211226463317871
0,32064,-21.361238479614258,-7.13388729095459,-28.409759521484375,-15.915912628173828
0,32064,4.329004287719727,-9.038890838623047,-1.3798646926879883,20.494245529174805
0,32064,12.80919075012207,7.244219779968262,34.74403762817383,14.637153625488281
0,32064,4.613053321838379,2.933760643005371,-7.449468612670898,-20.146759033203125
0,32065,-8.782770156860352,-29.39179229736328,-37.14451217651367,7.264909267425537
0,32065,-14.416796684265137,23.316200256347656,15.010549545288086,-15.403003692626953
0,32065,27.839176177978516,22.62273406982422,17.84596824645996,4.07375431060791
0,32065,7.957679748535156,-15.484204292297363,8.177475929260254,36.293052673339844
0,32065,-28.870492935180664,1.5417375564575195,-7.572335243225098,-16.010162353515625
0,32065,-11.465919494628906,-14.890828132629395,-3.4896152019500732,-13.905281066894531
0,32066,20.69269371032715,-6.523813724517822,20.3848819732666,-3.102088451385498
0,32066,15.41103744506836,27.82486343383789,-24.002906799316406,-23.556936264038086
0,32066,-17.611173629760742,9.933091163635254,-27.95522117614746,15.624156951904297
0,32066,-20.252195358276367,-13.650540351867676,34.349369049072266,20.648963928222656
0,32066,19.961780548095703,1.2097762823104858,25.45232582092285,-21.606019973754883
0,32066,-1.613455891609192,0.9256625771522522,-35.660274505615234,3.7865986824035645
0,32067,-30.100502014160156,-22.89174461364746,-15.744449615478516,32.93047332763672
0,32067,29.660234451293945,3.553968906402588,22.753429412841797,0.4282964766025543
0,32067,15.210488319396973,15.678247451782227,10.103155136108398,-7.215577125549316
0,32067,-22.76302719116211,-14.904947280883789,-9.863679885864258,7.961328029632568
0,32067,13.772331237792969,-3.0155792236328125,-16.837783813476562,-22.89813804626465
0,32067,9.3683443069458,1.4598782062530518,5.630056381225586,-2.0638997554779053
0,32068,-16.048545837402344,12.426486015319824,21.11197280883789,18.315093994140625
0,32068,-6.629016876220703,3.362720489501953,-4.97550106048584,-24.835872650146484
0,32068,-2.1497080326080322,-22.762645721435547,-29.055055618286133,3.245645046234131
0,32068,9.392216682434082,14.006510734558105,0.954655110836029,9.342691421508789
0,32068,18.852527618408203,10.168038368225098,30.17982292175293,-23.765060424804688
0,32068,7.6630377769470215,-2.253567695617676,2.888129234313965,-9.599162101745605
0,32069,-16.05734634399414,6.779757976531982,-18.128934860229492,12.284998893737793
0,32069,-24.718841552734375,-9.107542991638184,13.50973892211914,12.319485664367676
0,32069,12.909708976745605,-9.07305908203125,11.894965171813965,-8.206791877746582
0,32070,18.85248565673828,3.079620122909546,-16.0293025970459,17.35573387145996
0,32070,-15.237306594848633,1.848376750946045,-0.05743664503097534,25.719226837158203
0,32071,0.7806761264801025,9.409314155578613,0.279962956905365,-24.32795524597168
0,32071,3.7720787525177,-8.795682907104492,-0.9095876216888428,-10.208457946777344
0,32071,0.5637063980102539,-14.967455863952637,11.497663497924805,25.016254425048828
0,32071,2.552311897277832,30.653547286987305,-6.583224773406982,-5.561639308929443
0,32073,-19.901857376098633,1.8924213647842407,-3.2795310020446777,-7.084749698638916
0,32074,-4.722478866577148,-9.408181190490723,11.80036735534668,-10.53554916381836
0,32077,-1.7138762474060059,11.032317161560059,-0.09786781668663025,-11.796220779418945
0,32078,-1.8280903100967407,-10.372091293334961,2.3970017433166504,23.24823760986328
0,32081,12.340668678283691,-1.5953454971313477,7.868650436401367,1.5714905261993408
0,32082,13.060606956481934,4.987101078033447,-13.896477699279785,-11.781892776489258
0,32085,-1.0456035137176514,-7.584927082061768,-20.802303314208984,-8.660917282104492
0,32086,-25.58377456665039,-20.728918075561523,14.13688850402832,33.07583236694336
0,32089,-4.270698070526123,-14.824838638305664,-7.696071624755859,-3.3468334674835205
0,32090,16.93913459777832,2.419881582260132,-15.857185363769531,-65.5018539428711
0,32093,-1.926077961921692,40.25853729248047,14.48141098022461,39.37788009643555
0,32094,-5.932355880737305,16.51091957092285,-10.344120025634766,29.135234832763672
0,32097,28.336872100830078,-44.86886215209961,14.764005661010742,-19.383670806884766
0,32098,27.063451766967773,-1.4586938619613647,28.832578659057617,1.6237118244171143
0,32101,-27.142196655273438,80.17730712890625,-17.544292449951172,-10.855701446533203
0,32102,-34.728355407714844,22.199493408203125,-6.691325664520264,4.8352766036987305
0,32105,9.90124225616455,-96.91397094726562,-1.050117015838623,-3.6290321350097656
0,32106,37.67485809326172,-20.92070770263672,-10.15857982635498,-7.630990982055664
0,32109,16.349960327148438,45.59138488769531,18.335655212402344,5.191379070281982
0,32110,-20.843181610107422,-3.621354579925537,-0.9423792362213135,8.913819313049316
0,32111,-31.78046417236328,-24.357624053955078,-22.197643280029297,6.3917131423950195
0,32114,-17.679054260253906,19.705408096313477,13.722540855407715,-8.652449607849121
0,32243,15.580622673034668,18.505678176879883,-6.4078369140625,0.63960200548172
0,32244,22.37533187866211,-46.389076232910156,-19.323801040649414,17.775693893432617
0,32244,4.033923625946045,7.337368011474609,19.018999099731445,-4.923713684082031
0,32244,-0.42327797412872314,17.558034896850586,12.05690860748291,-22.406736373901367
0,32244,-13.395041465759277,-9.148080825805664,-1.4167721271514893,10.109248161315918
0,32244,3.9043941497802734,32.33466720581055,3.8659451007843018,3.5852792263031006
0,32244,12.881996154785156,2.1229329109191895,9.536656379699707,-19.268360137939453
0,32245,-15.946734428405762,-29.34695053100586,-18.80876350402832,-1.7769255638122559
0,32245,-13.369194030761719,-2.7555201053619385,-4.2815165519714355,15.013877868652344
0,32245,14.059765815734863,-2.054608106613159,25.785612106323242,13.594542503356934
0,32245,10.536959648132324,9.22163200378418,-7.771836280822754,-17.453523635864258
0,32245,-23.47564697265625,-10.212706565856934,-22.949907302856445,-9.503568649291992
0,32245,-5.06682014465332,-20.421958923339844,-20.99335479736328,11.335792541503906
0,32246,15.817590713500977,30.897214889526367,4.886137008666992,7.31370210647583
0,32246,1.9842077493667603,2.976551055908203,14.473243713378906,-5.604966163635254
0,32246,-2.089203119277954,-6.857167720794678,-0.755876898765564,-12.330730438232422
0,32246,-0.7362056970596313,6.50528621673584,6.232635498046875,23.959794998168945
0,32246,-8.055537223815918,-2.6219394207000732,-2.6951775550842285,7.673348426818848
0,32246,-10.657157897949219,9.45865249633789,0.8526447415351868,-37.02286148071289
0,32247,21.69373893737793,-14.310931205749512,3.2667572498321533,-0.6264353394508362
0,32247,4.911876678466797,-6.791370868682861,-7.691107749938965,29.410043716430664
0,32247,-15.657951354980469,15.787334442138672,3.5680341720581055,-7.164861679077148
0,32247,-1.2175654172897339,-15.82402515411377,3.964285373687744,-13.375327110290527
0,32247,-11.619452476501465,-27.55249786376953,3.621380567550659,19.664846420288086
0,32247,7.320184230804443,20.815139770507812,10.511970520019531,0.3733495771884918
0,32248,18.07585906982422,33.18982696533203,12.026110649108887,-21.593656539916992
0,32248,6.783091068267822,-14.036815643310547,-2.1774187088012695,2.0071027278900146
0,32248,0.13106338679790497,-12.179217338562012,-30.387060165405273,7.943643093109131
0,32248,-17.868053436279297,6.214824676513672,-5.102752685546875,6.12717342376709
0,32248,1.3741397857666016,25.540393829345703,28.684635162353516,11.499938011169434
0,32248,25.694290161132812,14.797405242919922,8.273606300354004,0.04854559153318405
0,32249,0.07823945581912994,-25.11223030090332,-5.805388450622559,-17.618350982666016
0,32249,-23.15592384338379,5.333942890167236,-6.891754150390625,4.644819736480713
0,32249,-9.01832103729248,16.891565322875977,9.514802932739258,14.5590238571167
0,32249,22.286888122558594,-22.809526443481445,5.999885559082031,-8.455249786376953
0,32249,6.322835445404053,-8.338744163513184,-15.41752815246582,-5.131716728210449
0,32250,-14.792722702026367,28.933048248291016,2.1188082695007324,-16.290069580078125
0,32250,10.83712387084961,-10.22396183013916,-8.196290016174316,-6.206541538238525
0,32250,-7.820138931274414,-28.716598510742188,-19.775291442871094,13.888811111450195
0,32250,-8.984469413757324,2.1934890747070312,20.77288818359375,-10.565081596374512
0,32250,5.571377754211426,-2.0718624591827393,17.442859649658203,6.9802117347717285
0,32250,-9.529417991638184,22.098432540893555,-12.061277389526367,14.44085693359375
0,32251,9.705564498901367,1.4423491954803467,-2.4255690574645996,-28.247915267944336
0,32251,0.9486032724380493,-43.386268615722656,-2.565652370452881,6.741091251373291
0,32251,-6.65678071975708,12.686293601989746,-10.286632537841797,22.1334285736084
0,32251,7.557524681091309,23.765291213989258,-0.6389550566673279,-4.502823829650879
0,32251,4.932628154754639,-15.518060684204102,0.8815452456474304,3.8005318641662598
0,32251,3.2483105659484863,12.039576530456543,10.329023361206055,18.152963638305664
0,32252,7.519449234008789,-1.7073098421096802,14.157586097717285,5.26386833190918
0,32252,-1.816054105758667,-18.778602600097656,-13.532483100891113,-24.780029296875
0,32252,-15.77072525024414,9.432464599609375,-10.544098854064941,1.5109577178955078
0,32252,-20.841644287109375,-5.663133144378662,16.87835121154785,1.192239761352539
0,32252,0.6782510876655579,-1.6147273778915405,2.597916603088379,-4.954641819000244
0,32252,19.05374526977539,14.841144561767578,-8.736455917358398,19.3118839263916
0,32253,-5.976075649261475,8.55179214477539,-3.2843990325927734,-13.858919143676758
0,32253,-6.499594688415527,-15.163780212402344,-6.061102390289307,-12.250767707824707
0,32253,2.5152523517608643,10.556260108947754,3.946075439453125,28.548282623291016
0,32253,-3.3944926261901855,13.462462425231934,-3.669070243835449,-17.945579528808594
0,32253,6.11658239364624,-15.961109161376953,3.9565253257751465,-30.818147659301758
0,32253,20.064851760864258,14.781529426574707,-5.534814834594727,20.594263076782227
0,32254,-6.218805313110352,-0.41077134013175964,-10.214898109436035,1.5476919412612915
0,32254,-2.522204637527466,-28.446229934692383,23.81888198852539,-13.73303508758545
0,32254,28.411216735839844,7.990906715393066,5.937070846557617,21.1986083984375
0,32254,-14.019742012023926,32.120845794677734,-0.5185481905937195,16.68532371520996
0,32254,-12.302680015563965,-19.599321365356445,-9.690126419067383,-18.243154525756836
0,32256,-0.00759400799870491,-19.64142608642578,1.5459527969360352,-15.929717063903809
0,32256,-18.078907012939453,13.617920875549316,9.898259162902832,29.8402042388916
0,32256,3.7441091537475586,4.640779972076416,-19.60982894897461,11.024290084838867
0,32256,0.1910102665424347,7.546854019165039,3.356149196624756,-49.01640319824219
0,32256,7.729628086090088,-22.404281616210938,2.9702179431915283,-24.201658248901367
0,32256,-7.027450084686279,-22.762540817260742,-14.071992874145508,36.726837158203125
0,32258,-11.21720027923584,25.46670150756836,-18.003671646118164,28.204641342163086
0,32260,18.148176193237305,18.516206741333008,17.776878356933594,-3.6970529556274414
0,32262,11.212103843688965,-5.329782009124756,36.939640045166016,-9.848296165466309
0,32264,-17.977930068969727,-15.77311897277832,-25.80117416381836,-25.394428253173828
0,32266,-15.279458999633789,6.693805694580078,-25.8428897857666,-7.4080491065979
0,32268,35.221412658691406,16.401275634765625,18.481884002685547,21.567747116088867
0,32270,9.025923728942871,-37.36194610595703,-5.417052745819092,3.109008550643921
0,32273,-27.47185707092285,-4.314718246459961,-0.20369023084640503,-15.97077751159668
0,32274,6.56788444519043,49.12901306152344,24.767192840576172,17.89718246459961
0,32277,9.46772575378418,-3.8913350105285645,-7.295713901519775,31.582111358642578
0,32278,-2.10076904296875,-32.620628356933594,7.550187587738037,-7.566647529602051
0,32281,-6.569209098815918,9.442622184753418,4.959609508514404,-28.216848373413086
0,32282,-9.209704399108887,22.602087020874023,-23.56232261657715,1.9336987733840942
0,32285,8.606236457824707,-10.593740463256836,2.2134482860565186,28.355234146118164
0,32286,-21.45927619934082,-23.8050537109375,0.4736953377723694,-6.949069023132324
0,32289,4.343526840209961,6.079195022583008,-2.534583330154419,-31.427858352661133
0,32290,26.295045852661133,26.30099105834961,31.801393508911133,11.136137962341309
0,32293,-16.733243942260742,-1.835928201675415,10.168452262878418,8.57955551147461
0,32294,-2.195629119873047,-31.517749786376953,-47.15570831298828,-2.620764970779419
0,32297,7.470463752746582,-7.385402679443359,-3.481311559677124,-5.983973979949951
0,32298,-1.832633376121521,28.708635330200195,39.44785690307617,-16.667402267456055
0,32438,-8.300041198730469,14.394118309020996,-27.24736213684082,21.829273223876953
0,32438,20.44272804260254,-1.395871639251709,-29.08701515197754,-13.389829635620117
0,32438,4.728710174560547,-24.101394653320312,27.729209899902344,-21.27193832397461
0,32438,-24.696552276611328,-12.714893341064453,19.890300750732422,42.22694778442383
0,32438,20.23832893371582,19.871429443359375,8.731344223022461,13.20499038696289
0,32438,7.163965225219727,1.705551028251648,-14.141169548034668,-23.161300659179688
0,32439,-20.3642578125,0.30763211846351624,-21.528108596801758,-7.461501121520996
0,32439,11.496848106384277,15.925524711608887,3.1689422130584717,0.9260742664337158
0,32439,7.77510404586792,-0.8925338983535767,3.6218245029449463,5.8904314041137695
0,32439,-26.194551467895508,-19.132911682128906,11.637633323669434,18.441150665283203
0,32439,5.364756107330322,11.135231971740723,5.845034599304199,-2.7452950477600098
0,32440,25.710481643676758,-1.795027494430542,-4.82440185546875,-47.75566482543945
0,32440,-8.556205749511719,-29.110074996948242,1.9331790208816528,3.3832385540008545
0,32440,-2.4049668312072754,10.44863510131836,4.410752773284912,44.21074295043945
0,32440,-5.456461429595947,26.950576782226562,-8.547632217407227,-23.509841918945312
0,32440,-8.603412628173828,-9.823873519897461,-10.428717613220215,0.3625493049621582
0,32440,-4.301615238189697,-18.75586700439453,15.427777290344238,34.59009552001953
0,32441,-17.519655227661133,14.27363395690918,5.759970664978027,-21.79612159729004
0,32441,13.563420295715332,-6.8125128746032715,-20.474485397338867,-35.54443359375
0,32441,20.228792190551758,-19.217405319213867,2.404542922973633,16.560026168823242
0,32441,-5.636607646942139,22.611692428588867,3.9671571254730225,23.83527946472168
0,32441,-1.2752463817596436,14.95213508605957,-10.2562894821167,-19.068206787109375
0,32441,1.0563502311706543,-25.68770980834961,16.00979995727539,8.502099990844727
0,32442,-5.430291652679443,-1.4179859161376953,-0.3435036838054657,19.349241256713867
0,32442,-1.749101996421814,32.18064880371094,-13.297619819641113,-2.97580885887146
0,32442,8.002700805664062,-17.957563400268555,10.020315170288086,-5.9987874031066895
0,32442,6.129117012023926,-24.9381160736084,4.252049446105957,-8.416498184204102
0,32442,-2.780075788497925,23.1268253326416,1.7673146724700928,5.153445720672607
0,32443,9.031338691711426,21.126752853393555,-18.394573211669922,-8.287456512451172
0,32443,8.991372108459473,-11.709845542907715,-16.59278106689453,-7.798595905303955
0,32443,-32.340972900390625,-15.256391525268555,26.69492530822754,22.849756240844727
0,32443,-18.85356330871582,22.00618553161621,15.586359977722168,-17.683788299560547
0,32443,9.291866302490234,-0.3501817286014557,-4.094799041748047,-4.9724273681640625
0,32443,-5.378013610839844,-23.434188842773438,-12.576593399047852,42.11851501464844
0,32444,32.14120864868164,20.106689453125,-27.06541633605957,-32.0739860534668
0,32444,12.097660064697266,10.05367660522461,8.632495880126953,-28.25501823425293
0,32444,-34.00407028198242,-11.666024208068848,48.637332916259766,18.66604232788086
0,32444,20.214908599853516,0.16960294544696808,-19.618947982788086,-0.1979079693555832
0,32444,-4.425339221954346,-1.8955678939819336,-22.75208282470703,10.929686546325684
0,32444,-26.30764389038086,-10.524101257324219,47.59274673461914,9.324953079223633
0,32445,53.06698989868164,-13.216341018676758,-28.983482360839844,-18.169401168823242
0,32445,9.546550750732422,5.71186637878418,-44.13185501098633,-21.848522186279297
0,32445,-46.169837951660156,-0.44820424914360046,36.791664123535156,-9.275248527526855
0,32445,-11.01140308380127,-4.476616859436035,20.35189437866211,9.252615928649902
0,32445,9.996240615844727,7.13292932510376,-14.016892433166504,38.734840393066406
0,32445,17.161523818969727,11.779623985290527,11.589203834533691,16.019929885864258
0,32446,-4.898399829864502,9.47387409210205,3.396711826324463,-23.607921600341797
0,32446,-9.413984298706055,-18.738344192504883,-18.443504333496094,-7.341585159301758
0,32446,1.1312302350997925,1.430443525314331,2.239703893661499,0.1339567005634308
0,32446,5.82906436920166,0.4488346576690674,-14.701586723327637,-9.710150718688965
0,32446,6.994388103485107,-16.01542854309082,-8.817203521728516,32.59152603149414
0,32446,-22.482196807861328,35.4876594543457,42.26420974731445,12.068913459777832
0,32447,2.644299030303955,7.474670886993408,-5.685751914978027,-26.521726608276367
0,32447,49.05895233154297,-26.89735221862793,-38.481502532958984,9.469769477844238
0,32447,-28.30144691467285,13.068129539489746,30.546932220458984,-9.692248344421387
0,32447,-36.34718704223633,1.9054234027862549,14.027862548828125,-33.00094223022461
0,32447,36.946022033691406,17.247642517089844,-27.79125213623047,10.20307445526123
0,32447,10.814447402954102,16.592906951904297,-5.903690814971924,22.09387969970703
0,32448,-19.11410140991211,-53.17009353637695,3.9748711585998535,-1.7726191282272339
0,32448,-13.031593322753906,-21.36722183227539,-1.3336142301559448,-10.983549118041992
0,32448,15.830141067504883,24.51395034790039,4.41940450668335,-21.158023834228516
0,32448,-0.9946964383125305,15.201643943786621,5.603102684020996,31.294841766357422
0,32448,-21.64186668395996,1.7382465600967407,2.6522302627563477,37.987300872802734
0,32448,9.267847061157227,-7.750823020935059,-0.43000563979148865,-35.76991271972656
0,32449,4.863048553466797,1.8877192735671997,-10.396626472473145,-14.358963012695312
0,32449,9.584425926208496,-7.713528633117676,-2.1037895679473877,23.24504280090332
0,32449,16.0921630859375,-9.381156921386719,8.198421478271484,-4.116440773010254
0,32449,-6.894741535186768,-1.4726507663726807,5.144484996795654,-3.2426321506500244
0,32449,-25.029617309570312,-3.7160587310791016,-3.027346134185791,-2.978001832962036
0,32449,-7.263225555419922,-1.2139757871627808,13.16886043548584,-1.4916322231292725
0,32451,31.861560821533203,30.668519973754883,6.2607879638671875,13.499895095825195
0,32451,18.128625869750977,19.529281616210938,-31.068334579467773,-5.375479221343994
0,32451,-18.801599502563477,-29.64741325378418,-5.1586761474609375,3.6894493103027344
0,32451,-22.208688735961914,-13.868717193603516,4.8328680992126465,-15.231066703796387
0,32451,3.1389713287353516,-2.7286384105682373,-12.716702461242676,-11.75151538848877
0,32452,-5.365097999572754,-7.707116603851318,19.35866355895996,38.974117279052734
0,32453,2.765392780303955,16.114952087402344,2.7106266021728516,-38.59742736816406
0,32454,23.25455093383789,5.901530742645264,-31.655961990356445,2.429091215133667
0,32455,-21.862825393676758,-12.140256881713867,-4.83604097366333,59.20576477050781
0,32458,-14.009034156799316,17.211692810058594,40.51136016845703,-46.94136428833008
0,32459,17.513465881347656,5.64866828918457,24.60441780090332,-1.630676507949829
0,32462,5.575631141662598,-21.730466842651367,-29.551227569580078,8.78243350982666
0,32464,6.5541605949401855,5.409306049346924,-4.143517971038818,-36.46494674682617
0,32466,3.143381118774414,5.772913932800293,21.734573364257812,18.009321212768555
0,32468,-11.480257987976074,-17.623973846435547,13.739362716674805,21.882335662841797
0,32470,-3.671304941177368,8.871328353881836,9.325186729431152,-13.73083209991455
0,32472,7.386444568634033,31.282766342163086,-24.267562866210938,-1.6364866495132446
0,32474,-11.066794395446777,-0.733485996723175,-19.048986434936523,29.437259674072266
0,32476,-24.75421714782715,-7.4681878089904785,17.383312225341797,-14.418560981750488
0,32478,3.991312026977539,-9.838672637939453,9.139565467834473,-22.269683837890625
0,32480,42.9254150390625,-20.68840217590332,-5.925535202026367,23.530784606933594
0,32482,11.977409362792969,-0.49158337712287903,-47.83850860595703,-15.04124927520752
0,32484,-20.166446685791016,22.011396408081055,-19.110992431640625,-7.128005027770996
0,32486,1.652932047843933,11.650023460388184,51.449440002441406,20.26117706298828
0,32488,11.79807186126709,-12.742020606994629,2.4349470138549805,-18.78291893005371
0,32491,-15.199422836303711,-10.858173370361328,-24.68821144104004,-5.427247524261475
0,32492,-26.349075317382812,2.6499745845794678,8.456095695495605,1.6811485290527344
0,32495,12.090920448303223,10.648003578186035,20.936904907226562,-2.4474377632141113
0,32642,21.61465835571289,-16.970457077026367,2.857290744781494,20.67112159729004
0,32642,-0.6496520042419434,-5.6404523849487305,-25.25962257385254,14.684759140014648
0,32642,-30.006811141967773,13.156157493591309,7.726652145385742,4.918694972991943
0,32643,-1.5742536783218384,8.997697830200195,27.40492820739746,-23.33402442932129
0,32643,23.290498733520508,7.58561372756958,-15.117864608764648,-13.576984405517578
0,32643,-21.69038200378418,-19.62061309814453,-1.1229764223098755,31.336944580078125
0,32643,-0.7082311511039734,-0.7237029671669006,21.928071975708008,-12.88557243347168
0,32643,24.450077056884766,4.649538516998291,-9.078507423400879,-19.310989379882812
0,32644,-3.554469108581543,0.10106725990772247,-17.576095581054688,14.110886573791504
0,32644,10.428435325622559,25.275985717773438,-4.269808769226074,-9.729909896850586
0,32644,13.442872047424316,-6.563939571380615,6.242873191833496,4.496696472167969
0,32644,-30.869476318359375,-28.878503799438477,14.358901977539062,17.163572311401367
0,32644,-0.8192511200904846,2.3804190158843994,-5.813380241394043,-7.641341686248779
0,32644,13.464949607849121,17.434694290161133,-13.263336181640625,-18.7630615234375
0,32645,-15.303204536437988,8.84310531616211,-4.8807291984558105,-0.6976490616798401
0,32645,14.959110260009766,-15.89399528503418,3.1288819313049316,27.553194046020508
0,32645,2.7591686248779297,-2.271967649459839,11.373369216918945,2.694617509841919
0,32645,-0.9823548197746277,18.91461181640625,-4.262435436248779,-19.524023056030273
0,32645,-4.200074195861816,-33.218597412109375,9.747986793518066,-2.4243857860565186
0,32645,-11.571144104003906,-10.035415649414062,-4.472684860229492,-3.8476576805114746
0,32646,19.674135208129883,33.866943359375,-38.44685363769531,-4.125582695007324
0,32646,-9.050139427185059,-10.929329872131348,-0.8669337034225464,10.808023452758789
0,32646,-20.882179260253906,3.096055507659912,37.70762634277344,14.907638549804688
0,32646,13.561626434326172,10.067703247070312,8.287729263305664,-15.851011276245117
0,32646,2.4384806156158447,-16.86273765563965,-25.436124801635742,-9.60443115234375
0,32646,-16.189727783203125,-5.98599100112915,-2.1036458015441895,12.877799034118652
0,32647,3.014163017272949,-6.915431976318359,-2.992229700088501,8.416583061218262
0,32647,14.363131523132324,5.921488285064697,4.537293434143066,9.043097496032715
0,32647,11.187247276306152,11.095293998718262,21.033981323242188,-14.850290298461914
0,32647,-2.946793794631958,-3.7877464294433594,-9.199074745178223,-3.0260636806488037
0,32647,-13.992904663085938,-0.1794569492340088,-5.090740203857422,12.549216270446777
0,32647,3.8756120204925537,10.17773723602295,19.4708309173584,-11.135375022888184
0,32648,18.20737075805664,14.225202560424805,10.751678466796875,-8.292466163635254
0,32648,-7.9999165534973145,-2.017632007598877,-5.650201797485352,0.08057969808578491
0,32648,-9.37316608428955,-9.55990219116211,-12.235149383544922,-9.710148811340332
0,32648,8.97165298461914,-8.656983375549316,-18.884584426879883,7.408176898956299
0,32648,-11.598592758178711,-3.2803192138671875,-7.159874439239502,24.99436378479004
0,32648,-7.574602127075195,17.258562088012695,6.19014310836792,6.212032318115234
0,32649,-5.09726619720459,-2.1834592819213867,27.091604232788086,-7.715640068054199
0,32649,11.223583221435547,-15.586400032043457,-2.1862733364105225,-5.1218671798706055
0,32649,19.498380661010742,15.443220138549805,-31.130659103393555,-3.0532045364379883
0,32649,-3.9439027309417725,-3.9784772396087646,13.814367294311523,-24.101173400878906
0,32649,-4.7035698890686035,-38.713985443115234,-14.813465118408203,5.8208441734313965
0,32649,-26.480981826782227,7.575733184814453,-13.638412475585938,42.479793548583984
0,32650,-4.46185827255249,31.376638412475586,29.434171676635742,-11.58392333984375
0,32650,42.07400894165039,7.911179542541504,5.144121170043945,-34.25043487548828
0,32650,10.716584205627441,12.381827354431152,6.476589679718018,-9.194001197814941
0,32650,-4.949406623840332,-14.489696502685547,4.777841091156006,9.04979133605957
0,32650,-10.854941368103027,-17.92122459411621,-11.257645606994629,-6.104722023010254
0,32651,-29.2894229888916,3.953143358230591,16.033052444458008,-14.299568176269531
0,32651,12.35046100616455,6.357059001922607,5.187319755554199,14.461845397949219
0,32651,17.99103355407715,1.0286041498184204,-22.136886596679688,5.164283752441406
0,32651,-25.21500587463379,5.083244800567627,3.1563262939453125,30.174314498901367
0,32651,1.6004997491836548,-0.9128254055976868,20.279939651489258,34.269107818603516
0,32651,26.506641387939453,-31.54537010192871,0.2423049956560135,-37.45442199707031
0,32652,-20.715923309326172,7.041455268859863,-25.934219360351562,-6.598782539367676
0,32652,-9.864139556884766,16.702800750732422,-15.843220710754395,15.593369483947754
0,32652,10.804414749145508,-23.39681053161621,11.580629348754883,-6.0934553146362305
0,32652,-13.081997871398926,4.765750885009766,15.367761611938477,13.470229148864746
0,32652,4.011351108551025,27.29292106628418,-1.2101494073867798,-12.832207679748535
0,32652,17.385841369628906,-8.582942008972168,-10.232744216918945,-15.947402954101562
0,32653,12.363665580749512,-2.383357048034668,-16.615760803222656,3.674746036529541
0,32653,0.20958669483661652,2.978775978088379,5.816014289855957,-16.524538040161133
0,32653,-28.559432983398438,-10.508684158325195,16.775075912475586,-0.8754187822341919
0,32653,-2.215697765350342,27.01595687866211,1.5563695430755615,25.465946197509766
0,32653,31.022798538208008,-2.7247893810272217,1.1063451766967773,-15.018564224243164
0,32653,5.1839375495910645,-20.032447814941406,-14.270594596862793,-30.219858169555664
0,32654,-18.494342803955078,8.940112113952637,-10.199846267700195,32.497596740722656
0,32654,-15.28487777709961,-13.458712577819824,3.6471800804138184,29.53903579711914
0,32654,-3.5513787269592285,-19.259366989135742,15.133369445800781,-15.710308074951172
0,32654,6.920626163482666,18.486997604370117,2.2681326866149902,-11.855382919311523
0,32654,19.57505226135254,23.54953384399414,-19.93183708190918,-15.757990837097168
0,32654,-9.188437461853027,-21.21310806274414,-2.0869319438934326,7.9510955810546875
0,32655,-16.337160110473633,7.8769636154174805,14.614250183105469,27.693603515625
0,32656,37.29243469238281,24.13118553161621,22.996959686279297,8.145397186279297
0,32656,4.74124813079834,-36.17078399658203,-15.076545715332031,-27.9442138671875
0,32656,-56.5081901550293,-14.915765762329102,-31.25132179260254,-17.20404052734375
0,32656,2.827672243118286,26.759990692138672,33.245975494384766,25.359619140625
0,32657,27.790935516357422,17.595191955566406,20.649850845336914,5.558106899261475
0,32657,-15.686532020568848,7.649919509887695,-14.426560401916504,3.33229660987854
0,32657,6.52371072769165,-20.573108673095703,9.538187026977539,0.3186737895011902
0,32658,20.724395751953125,-12.289548873901367,1.5379526615142822,-19.56032371520996
0,32659,-5.331697463989258,20.9631290435791,-26.469818115234375,-10.814021110534668
0,32662,-16.491809844970703,0.8877198696136475,-6.020144462585449,12.424182891845703
0,32663,5.436712265014648,-10.03671932220459,34.27998352050781,4.182738780975342
0,32666,16.1567440032959,-18.543920516967773,3.6021740436553955,-14.842962265014648
0,32667,-16.394670486450195,-23.200448989868164,-17.66275405883789,4.1006760597229
0,32670,7.284980297088623,38.42448806762695,-20.73992347717285,-14.192392349243164
0,32671,31.80361557006836,31.388391494750977,-13.374927520751953,-9.587445259094238
0,32674,-19.236928939819336,-51.34785079956055,23.756608963012695,35.5252571105957
0,32675,-16.190692901611328,-15.791975975036621,3.2740869522094727,-1.9416362047195435
0,32678,-1.1146456003189087,27.99541664123535,-11.02991771697998,-11.130351066589355
0,32679,-4.391727447509766,2.436033248901367,2.94805908203125,28.820472717285156
0,32682,0.6380228400230408,13.992362976074219,5.7129950523376465,-2.9067115783691406
0,32683,-7.779078483581543,-13.307047843933105,-8.436538696289062,-18.124326705932617
0,32686,-4.326940059661865,-7.018918514251709,0.26710566878318787,7.693480014801025
0,32688,2.468441963195801,18.49823570251465,13.794934272766113,7.853405952453613
0,32690,21.064828872680664,-10.384196281433105,-4.5798420906066895,0.29453128576278687
0,32692,1.473100185394287,4.616903305053711,-3.5549840927124023,-1.9567067623138428
0,32694,-10.894293785095215,5.790029048919678,7.988980770111084,-1.5837327241897583
0,32696,13.825011253356934,-8.04471492767334,3.1894781589508057,-0.5939065217971802
0,32698,-7.943997383117676,5.448023796081543,-14.842467308044434,-8.539102554321289
0,32700,-19.5446834564209,-10.646214485168457,2.7706332206726074,-6.504388332366943
0,32702,17.95055389404297,-6.242958068847656,5.462615489959717,0.8979926705360413
0,32704,-6.768136978149414,14.601323127746582,-15.382737159729004,-1.4339700937271118
1,33718,-10.256975173950195,3.1330108642578125,6.211853981018066,1.8111889362335205
1,33720,27.03329849243164,3.5313427448272705,6.767664432525635,-5.0552473068237305
1,33723,-18.483001708984375,-2.7775840759277344,-7.96237850189209,-16.841590881347656
1,33724,-18.16591453552246,-7.650698184967041,20.480613708496094,26.714065551757812
1,33725,22.5264949798584,-8.879895210266113,-1.2417784929275513,25.304784774780273
1,33730,8.814730644226074,3.558467388153076,-18.961212158203125,-20.935131072998047
1,33730,-6.590925693511963,18.13395881652832,26.552051544189453,-11.898260116577148
1,33732,7.932726860046387,-1.3678003549575806,-16.838369369506836,5.3354291915893555
1,33734,10.657185554504395,-5.557495594024658,-19.301362991333008,5.090453624725342
1,33736,-3.67462420463562,-2.0386641025543213,40.4139404296875,-9.743631362915039
1,33739,-8.387683868408203,-8.921632766723633,0.1263778805732727,-8.183554649353027
1,33740,0.4201517105102539,-6.58363151550293,-33.37517166137695,11.060388565063477
1,33743,-1.3680280447006226,12.058950424194336,-10.175789833068848,20.799245834350586
1,33744,-14.53957462310791,-4.451633453369141,3.2352280616760254,-7.284358978271484
1,33747,5.576007843017578,-10.22126293182373,0.16556134819984436,-4.539509296417236
1,33748,5.035830020904541,22.668596267700195,22.528589248657227,17.307331085205078
1,33751,-1.9605392217636108,2.607027292251587,21.427841186523438,-28.505414962768555
1,33752,-8.598645210266113,-19.874834060668945,-20.258060455322266,-17.52706527709961
1,33771,-4.845188617706299,-14.522209167480469,-8.270227432250977,27.222925186157227
1,33771,7.569932460784912,10.417901039123535,4.861146450042725,15.754566192626953
1,33771,-0.41874659061431885,13.956564903259277,11.061755180358887,2.6565871238708496
1,33771,14.108892440795898,0.5116740465164185,12.359431266784668,-11.458551406860352
1,33771,4.439160346984863,-7.656060218811035,-19.623361587524414,0.4325723946094513
1,33772,-12.321710586547852,6.966269016265869,-2.3317859172821045,-9.32422161102295
1,33772,0.5926640629768372,21.547470092773438,-8.851329803466797,-31.961387634277344
1,33772,-1.1808956861495972,-9.80335807800293,-14.899435043334961,4.1425347328186035
1,33772,-15.16533374786377,-8.561954498291016,26.92230224609375,13.123472213745117
1,33773,6.688499450683594,4.921963214874268,-8.45110034942627,-5.039709091186523
1,33774,14.859016418457031,-0.8351207375526428,-28.51765251159668,16.639692306518555
1,33776,-4.183050632476807,0.19410301744937897,27.315269470214844,12.304398536682129
1,33778,1.6176245212554932,-10.622062683105469,23.269872665405273,-23.580533981323242
1,33780,-1.9597424268722534,-18.205583572387695,-41.5411262512207,4.347064018249512
1,33782,-2.147512912750244,19.059417724609375,-29.212583541870117,33.916114807128906
1,33784,7.097952842712402,18.602527618408203,33.06037902832031,-9.72524642944336
1,33786,3.282153367996216,-27.22351837158203,27.583568572998047,-9.96871566772461
1,33788,0.31274282932281494,5.806930065155029,-5.05160665512085,-3.202716827392578
1,33790,-4.3995561599731445,10.943880081176758,-19.65315818786621,-39.86015319824219
1,33792,-0.036881908774375916,-23.411752700805664,2.9715800285339355,13.552800178527832
1,33794,-28.304039001464844,8.633256912231445,35.15909194946289,75.4263687133789
1,33825,-16.384349822998047,19.6318359375,-9.015841484069824,-8.180243492126465
1,33825,34.3064079284668,8.728671073913574,-37.46746063232422,-67.15156555175781
1,33825,3.8311562538146973,-6.344457626342773,15.244772911071777,10.325494766235352
1,33825,9.67221450805664,-9.178605079650879,27.79981231689453,8.171942710876465
1,33825,10.258208274841309,-4.696085453033447,-16.32573699951172,-2.730390787124634
1,33825,-30.65395164489746,-2.645008087158203,-9.852239608764648,29.26700782775879
1,33826,13.60015869140625,7.674328804016113,3.1088318824768066,-13.99250316619873
1,33826,16.244327545166016,-2.656902313232422,-17.43065071105957,-11.613484382629395
1,33826,-32.48341751098633,-18.328115463256836,9.90241813659668,16.754165649414062
1,33826,11.450145721435547,5.0460076332092285,14.623684883117676,3.242903232574463
1,33826,28.717844009399414,21.44280433654785,-1.0821666717529297,-17.533626556396484
1,33826,-15.175993919372559,-19.382488250732422,6.56342887878418,-24.221508026123047
1,33827,-16.542015075683594,-17.053194046020508,-3.542264699935913,5.323729515075684
1,33827,-2.045337677001953,26.63469123840332,-3.8832356929779053,29.179088592529297
1,33827,6.143019676208496,10.393136978149414,17.837007522583008,13.493464469909668
1,33828,0.5070618987083435,0.18012896180152893,-3.6976943016052246,-28.44676399230957
1,33828,-0.20591482520103455,6.668503284454346,-26.514110565185547,-30.59206199645996
1,33830,18.016815185546875,-29.80129051208496,5.933762073516846,22.708532333374023
1,33832,-4.838209629058838,1.236130714416504,-12.375691413879395,30.948623657226562
1,33834,-25.67678451538086,18.198862075805664,-5.546792507171631,-18.860309600830078
1,33836,23.54538917541504,-6.46581506729126,28.790058135986328,-11.854195594787598
1,33838,26.923828125,15.936422348022461,-16.657001495361328,20.63053321838379
1,33840,-22.154457092285156,-6.29183292388916,5.059990406036377,-8.088630676269531
1,33842,-37.062767028808594,-16.552873611450195,36.59281539916992,-12.032668113708496
1,33844,0.9945012927055359,-6.75075101852417,-20.61396026611328,13.965415954589844
1,33846,48.66493606567383,-1.5232762098312378,-30.788244247436523,7.342137336730957
1,33848,-3.456702709197998,9.898756980895996,-6.110296249389648,-4.476437091827393
1,33850,-30.24837303161621,-8.29771900177002,12.506422996520996,12.909744262695312
1,33852,0.7684593200683594,2.076550245285034,26.87462043762207,11.214910507202148
1,33854,-0.035229600965976715,20.58909797668457,-15.28097915649414,-7.206333160400391
1,33896,-5.5244293212890625,-0.8629676699638367,-13.061748504638672,-17.097129821777344
1,33897,2.744347095489502,-6.26682710647583,30.80487060546875,-27.545581817626953
1,33897,21.88816261291504,8.444411277770996,-8.202713966369629,11.1181640625
1,33897,1.0773613452911377,-16.763500213623047,-32.82494354248047,24.161550521850586
1,33897,-32.24953842163086,-4.221992015838623,4.453902721405029,-0.9118624329566956
1,33897,-8.301414489746094,13.451769828796387,19.73365020751953,-5.789801597595215
1,33897,30.47261619567871,-0.2453523874282837,11.88206958770752,-21.353803634643555
1,33898,6.077127933502197,-1.1247808933258057,3.141580104827881,1.2664294242858887
1,33898,-2.3799777030944824,-6.288356781005859,-11.483430862426758,2.9201323986053467
1,33898,-4.108407020568848,8.970906257629395,8.363212585449219,-1.938525676727295
1,33898,-26.35894203186035,1.5223468542099,10.26772403717041,31.80352020263672
1,33898,7.1464433670043945,2.05360746383667,-19.95322036743164,-3.621195077896118
1,33899,28.83611488342285,-11.208572387695312,-15.155632972717285,-26.76999282836914
1,33899,1.9555631875991821,-25.898527145385742,8.14576244354248,20.248674392700195
1,33899,-8.724605560302734,26.65323829650879,5.806694030761719,20.09300994873047
1,33899,5.897477626800537,22.00562286376953,-4.340123176574707,-14.856790542602539
1,33899,-9.549975395202637,-16.441165924072266,-6.278192043304443,-13.766630172729492
1,33899,-20.766141891479492,-4.882038116455078,4.799203872680664,-0.8242183327674866
1,33900,8.958440780639648,5.093343734741211,13.814329147338867,-2.680562734603882
1,33900,18.041881561279297,1.2578622102737427,-6.926782131195068,-17.085695266723633
1,33900,-3.1120381355285645,1.8569217920303345,-9.460711479187012,5.029664516448975
1,33901,-1.6418135166168213,-13.586538314819336,-5.556736946105957,13.457144737243652
1,33901,7.206496715545654,2.5579452514648438,0.7156376242637634,-10.063117027282715
1,33903,-30.58816909790039,10.16196060180664,5.6396050453186035,16.53105354309082
1,33904,8.02931022644043,-20.495464324951172,-0.4996114671230316,10.72024154663086
1,33905,33.75084686279297,14.352802276611328,10.646636962890625,-38.89069366455078
1,33908,-23.378049850463867,12.436643600463867,-2.9105379581451416,-2.6501705646514893
1,33909,-2.526951551437378,-3.5410730838775635,-2.1520605087280273,23.990392684936523
1,33912,0.46275845170021057,-3.717224359512329,11.663142204284668,0.2559138834476471
1,33913,5.495131015777588,-16.902633666992188,-9.048104286193848,15.479650497436523
1,33916,6.024536609649658,19.655811309814453,-0.2771798372268677,19.05870819091797
1,33917,-2.6088390350341797,34.71046447753906,3.5866544246673584,5.63401985168457
1,33920,0.7017210721969604,-26.772079467773438,3.939805507659912,-27.096343994140625
1,33921,-30.19395637512207,-69.31865692138672,7.861824035644531,-11.869551658630371
1,33924,25.126731872558594,-10.844911575317383,0.8850728273391724,3.018846035003662
1,33925,34.520538330078125,30.060575485229492,-1.5481690168380737,-22.857263565063477
1,33928,-14.173439025878906,28.072538375854492,-22.77006721496582,35.993431091308594
1,33983,-32.255714416503906,19.4974308013916,-8.12214469909668,22.79205894470215
1,33983,-24.58536720275879,-0.7610940933227539,17.05743408203125,-41.22635269165039
1,33983,39.520240783691406,-3.2261531352996826,-3.1551647186279297,-18.38829803466797
1,33983,16.292076110839844,-3.219705820083618,-9.22720718383789,12.006442070007324
1,33983,-21.35299301147461,11.20174789428711,-1.4586306810379028,9.987226486206055
1,33983,3.608778715133667,4.268220901489258,-6.158984661102295,-8.378191947937012
1,33984,-13.309066772460938,-23.04930877685547,-8.538268089294434,-7.787701606750488
1,33984,-17.797924041748047,10.351264953613281,17.01436996459961,-0.7036568522453308
1,33984,8.593274116516113,24.609224319458008,16.81635284423828,24.187795639038086
1,33984,12.924884796142578,-13.097465515136719,-9.830334663391113,10.634026527404785
1,33984,6.978916168212891,-18.622299194335938,1.6927255392074585,-20.685413360595703
1,33984,-0.19389387965202332,-19.538908004760742,-4.5947265625,7.405957221984863
1,33985,3.698382616043091,-7.338306903839111,4.143831253051758,6.003209114074707
1,33985,6.2204766273498535,22.70048713684082,11.892800331115723,-18.972816467285156
1,33985,-10.666409492492676,3.2290427684783936,-6.225005626678467,11.421103477478027
1,33985,1.0516775846481323,-23.07221794128418,6.423759460449219,28.17203712463379
1,33985,-1.9151158332824707,-2.6932592391967773,2.4323713779449463,-11.947340965270996
1,33985,-23.462465286254883,5.81430196762085,-1.8375625610351562,-21.36248207092285
1,33986,11.038037300109863,-4.745917320251465,-2.12080454826355,26.52685546875
1,33986,19.669940948486328,5.170870304107666,-4.342169284820557,12.122149467468262
1,33986,10.49685287475586,-5.872500896453857,-1.6655241250991821,-40.95176315307617
1,33986,13.989255905151367,-18.521835327148438,-3.968372106552124,7.744047164916992
1,33986,-15.411380767822266,6.876791477203369,10.35865306854248,25.391490936279297
1,33986,-22.160205841064453,14.029152870178223,4.343763828277588,-31.951446533203125
1,33987,6.980768203735352,0.9232351779937744,-21.189943313598633,-15.685827255249023
1,33987,7.053595542907715,6.594306468963623,-1.9261144399642944,17.783842086791992
1,33987,-3.148811101913452,26.777997970581055,6.376158237457275,-4.127618789672852
1,33988,-4.408348083496094,-8.149750709533691,-11.413409233093262,-11.842680931091309
1,33988,-9.031503677368164,-37.5191764831543,0.08336789160966873,1.8673731088638306
1,33989,3.671041965484619,10.2160005569458,5.127579212188721,-4.372176647186279
1,33990,8.602965354919434,47.62350082397461,24.296030044555664,21.845243453979492
1,33993,-21.8802433013916,140.15736389160156,-14.141680717468262,11.584332466125488
1,33994,-24.651731491088867,35.58879089355469,-39.08383560180664,-47.68065643310547
1,33997,63.81523895263672,-200.01513671875,24.868709564208984,3.0946061611175537
1,33998,35.965389251708984,-60.68938446044922,17.028366088867188,57.22286605834961
1,34001,-61.877098083496094,54.78013610839844,-2.61918306350708,14.671530723571777
1,34002,-0.5924217700958252,-40.998844146728516,-2.6741607189178467,-6.965580463409424
1,34005,52.63631057739258,9.512282371520996,2.1202447414398193,-23.28113555908203
1,34006,10.936431884765625,34.19797897338867,1.2807105779647827,-30.123308181762695
1,34009,-54.28376388549805,75.38009643554688,5.683950424194336,6.445873737335205
1,34010,-65.787109375,212.17295837402344,16.62810707092285,12.408320426940918
1,34013,-7.118222713470459,-171.134765625,-19.26820945739746,-10.48238754272461
1,34014,20.850996017456055,-414.236328125,-18.870956420898438,-25.457881927490234
1,34017,35.2702751159668,77.73550415039062,-8.678082466125488,27.68043327331543
1,34018,57.63786697387695,197.56979370117188,12.461453437805176,24.333425521850586
1,34084,-36.59040069580078,109.17816925048828,22.61191177368164,-68.81529998779297
1,34084,-68.99861145019531,97.0476303100586,-1.2770941257476807,-23.428085327148438
1,34084,26.351707458496094,-92.20314025878906,-0.3514639735221863,65.38385009765625
1,34084,41.55820846557617,-57.487762451171875,-3.2601964473724365,16.19209861755371
1,34085,17.461898803710938,2.798083782196045,11.460840225219727,-22.53584861755371
1,34085,-4.137520790100098,-24.37234115600586,16.37000846862793,9.430810928344727
1,34085,-12.199225425720215,4.58245849609375,-24.017560958862305,11.852060317993164
1,34085,-2.843193769454956,17.178726196289062,-12.983325004577637,13.853996276855469
1,34085,1.000100016593933,27.333375930786133,26.22278594970703,10.509363174438477
1,34085,-1.4215192794799805,20.442108154296875,4.7368483543396,-14.974751472473145
1,34086,-0.6955808401107788,-18.469554901123047,-21.28587532043457,-8.823200225830078
1,34086,-6.519170761108398,-53.700042724609375,-21.17563247680664,11.491278648376465
1,34086,-2.424837112426758,-30.148731231689453,3.9695239067077637,3.959911584854126
1,34086,6.5691938400268555,-11.374044418334961,12.420928955078125,5.179633617401123
1,34086,-5.625911235809326,-6.724601745605469,-10.548605918884277,8.676614761352539
1,34086,14.321817398071289,6.752565860748291,-5.353201389312744,-27.024778366088867
1,34087,19.806730270385742,-8.760644912719727,2.4410548210144043,-18.5826358795166
1,34087,-18.095741271972656,-7.7382636070251465,-4.175168514251709,19.950469970703125
1,34087,-29.65616226196289,19.081771850585938,3.9951491355895996,7.968649864196777
1,34087,-2.959632396697998,13.788379669189453,9.325714111328125,-7.977596759796143
1,34087,4.107024669647217,-6.079474449157715,-0.4719003736972809,-3.7722673416137695
1,34088,10.967491149902344,8.17396354675293,-9.206392288208008,1.653352975845337
1,34088,35.78751754760742,0.7052208185195923,4.715359210968018,4.53938102722168
1,34088,-9.002942085266113,-37.088558197021484,10.951971054077148,6.933663845062256
1,34088,-32.035858154296875,-16.74114418029785,-18.763341903686523,-0.5487579703330994
1,34088,24.070234298706055,22.69491195678711,-2.336437940597534,-2.0916101932525635
1,34088,36.27696228027344,11.515604972839355,18.938322067260742,-6.9331512451171875
1,34089,-15.213991165161133,-8.943419456481934,-10.446517944335938,11.793373107910156
1,34089,-28.22140121459961,27.8594970703125,1.2976423501968384,3.0398101806640625
1,34089,9.804449081420898,37.004493713378906,-2.4653279781341553,-23.961793899536133
1,34089,8.159200668334961,-11.340542793273926,-18.519006729125977,-2.7788166999816895
1,34089,-16.11055564880371,-14.58971118927002,26.97823715209961,7.043575763702393
1,34089,3.7966978549957275,-13.97275447845459,18.710023880004883,10.265087127685547
1,34091,32.40554428100586,-102.77349853515625,-34.91645431518555,1.4888352155685425
1,34091,-10.314066886901855,-77.28099060058594,-10.752358436584473,7.274401664733887
1,34091,-28.94304847717285,77.3197021484375,4.3664445877075195,-8.630109786987305
1,34092,29.340700149536133,45.204647064208984,-8.636055946350098,-23.45013427734375
1,34094,5.544015407562256,30.603527069091797,26.577058792114258,6.281999111175537
1,34096,-21.606653213500977,137.5677947998047,46.1611442565918,6.091230869293213
1,34098,-49.5362548828125,67.12467956542969,1.8604241609573364,-17.50860595703125
1,34100,-60.3479118347168,-43.550167083740234,-37.000328063964844,-41.9854850769043
1,34102,23.696144104003906,10.899782180786133,8.233721733093262,5.631372928619385
1,34104,-30.128196716308594,-31.26322364807129,13.27751636505127,25.853097915649414
1,34106,-37.78927230834961,-65.93871307373047,-44.90303421020508,-28.603126525878906
1,34108,83.68914794921875,63.587738037109375,-6.410398006439209,8.04624080657959
1,34110,82.05464935302734,12.898865699768066,63.10056686401367,52.3857536315918
1,34113,3.257498264312744,-114.9491958618164,12.303388595581055,-3.859295129776001
1,34114,-41.33953857421875,-46.74100875854492,-58.63465881347656,-18.18941879272461
1,34117,0.0977669432759285,22.576730728149414,-39.820404052734375,51.25753402709961
1,34118,47.68157196044922,-29.603609085083008,-10.842903137207031,19.07706642150879
1,34121,38.86949157714844,-1.1501296758651733,46.05844497680664,-11.39440631866455
1,34122,24.408679962158203,28.60047721862793,43.493526458740234,19.578691482543945
1,34201,-36.703575134277344,-7.6946187019348145,-26.54985809326172,-26.588348388671875
1,34201,-57.624298095703125,36.51675033569336,3.1734278202056885,-40.20911407470703
1,34201,11.217721939086914,24.683563232421875,-1.3449828624725342,-13.439919471740723
1,34201,-13.549652099609375,-9.053667068481445,-28.72606658935547,-1.3304922580718994
1,34201,-42.62674331665039,-1.6469533443450928,5.539144992828369,22.418657302856445
1,34201,1.2680692672729492,-6.470753192901611,5.5185227394104,9.902379989624023
1,34202,10.647826194763184,9.215291023254395,-4.107383728027344,-29.044265747070312
1,34202,4.464757442474365,-1.1097203493118286,3.4417710304260254,-18.876035690307617
1,34202,5.944180011749268,-8.624706268310547,12.062773704528809,7.015505313873291
1,34202,9.630051612854004,-0.9109641313552856,14.947793960571289,25.99935531616211
1,34202,20.32736587524414,8.382619857788086,-2.173938274383545,10.161749839782715
1,34202,4.600230693817139,18.14931869506836,-15.131402015686035,-33.35948181152344
1,34203,-12.549433708190918,-13.38138198852539,0.35187041759490967,10.03545093536377
1,34203,-9.307802200317383,-2.557145118713379,10.79928207397461,42.75212097167969
1,34203,-9.260663032531738,34.38396072387695,-0.07350572198629379,-9.085820198059082
1,34203,5.522747993469238,-28.016035079956055,-11.74519157409668,-31.34124755859375
1,34203,7.423011302947998,-40.204017639160156,-12.456270217895508,-1.0903571844100952
1,34204,-6.650579452514648,10.039393424987793,11.879899978637695,17.45570945739746
1,34204,2.0227718353271484,3.6906001567840576,12.119654655456543,-11.452025413513184
1,34204,16.941743850708008,-4.407618999481201,-13.112845420837402,-6.415159225463867
1,34204,-10.97393798828125,-1.6597990989685059,-7.918579578399658,38.93036651611328
1,34204,-10.855382919311523,13.198720932006836,5.1235785484313965,-1.2355597019195557
1,34204,24.283771514892578,20.935022354125977,8.53179931640625,-17.71849822998047
1,34205,-9.837667465209961,21.705644607543945,12.04543399810791,15.792682647705078
1,34205,-16.719636917114258,-14.999190330505371,13.503063201904297,-20.286277770996094
1,34205,14.005329132080078,-43.06175994873047,-2.2417800426483154,-8.092682838439941
1,34205,-18.233457565307617,-10.826745986938477,-14.352461814880371,17.25931167602539
1,34205,-8.329310417175293,16.656394958496094,-12.868578910827637,-15.806130409240723
1,34205,15.51671314239502,15.795245170593262,-2.6445858478546143,-7.101363658905029
1,34206,-8.083440780639648,-3.1742281913757324,6.465511322021484,0.7230404019355774
1,34206,11.815423965454102,-10.545767784118652,-5.362068176269531,-4.707488536834717
1,34206,11.127294540405273,-7.547639846801758,-15.220288276672363,18.815921783447266
1,34206,-22.271839141845703,10.084836959838867,-2.138446807861328,7.354935646057129
1,34206,-5.640924453735352,18.999435424804688,9.582100868225098,-1.800026297569275
1,34206,30.08492088317871,1.2611685991287231,2.9600179195404053,-14.426288604736328
1,34207,13.309142112731934,-20.905609130859375,-1.4133838415145874,2.351300001144409
1,34207,-27.16785430908203,17.66359519958496,-4.081730842590332,12.808279037475586
1,34207,11.005690574645996,27.727602005004883,-9.429944038391113,-20.716835021972656
1,34207,26.124366760253906,-35.25895690917969,18.910511016845703,33.31047439575195
1,34208,-19.120037078857422,-26.987123489379883,39.68672180175781,18.969987869262695
1,34209,-5.149238109588623,15.873775482177734,-4.006012916564941,-50.39785385131836
1,34209,5.160811901092529,3.4247660636901855,-27.87693977355957,-16.856767654418945
1,34209,-14.140361785888672,-21.466814041137695,-11.929143905639648,32.282737731933594
1,34210,-13.410345077514648,9.679314613342285,-17.365245819091797,10.30603313446045
1,34211,4.303892612457275,49.007659912109375,16.436153411865234,-14.624855041503906
1,34214,-0.97450852394104,-0.9090139865875244,29.57950210571289,-12.46672248840332
1,34215,-8.877266883850098,-52.63495635986328,-20.742094039916992,-7.426640033721924
1,34218,5.3734660148620605,9.23674201965332,10.88630199432373,20.83811378479004
1,34220,26.282651901245117,44.471527099609375,26.02943992614746,18.840776443481445
1,34222,11.841825485229492,2.456540107727051,-40.06587219238281,-3.0758180618286133
1,34224,-23.90766716003418,-1.4156345129013062,-22.49132537841797,4.468994617462158
1,34226,23.094043731689453,-15.359441757202148,14.96885871887207,14.496881484985352
1,34228,52.54823303222656,-53.44779968261719,16.712116241455078,-7.669153213500977
1,34230,-65.4190673828125,2.125845432281494,12.735939979553223,-47.39462661743164
1,34232,-71.24105834960938,55.14144515991211,-28.493484497070312,-35.12857437133789
1,34234,40.27717971801758,19.611438751220703,7.011484146118164,50.99323272705078
1,34236,21.963783264160156,-16.252643585205078,10.279029846191406,33.4351692199707
1,34238,-13.621017456054688,-47.52083206176758,-18.314125061035156,-45.02869415283203
1,34240,-11.964091300964355,-38.57666778564453,-0.6994085311889648,-13.439443588256836
1,34329,26.262561798095703,36.50294494628906,-6.295192718505859,13.113377571105957
1,34329,12.45035457611084,42.30057907104492,6.9784369468688965,9.576109886169434
1,34329,-26.03779411315918,-21.200590133666992,2.8715291023254395,14.531929969787598
1,34329,-0.15156646072864532,0.22946883738040924,7.228145599365234,-4.28198766708374
1,34330,10.120100021362305,18.9345760345459,4.641958713531494,-5.5353922843933105
1,34330,12.921514511108398,-15.511466026306152,2.009679079055786,2.6186935901641846
1,34330,0.46458983421325684,8.20858097076416,2.5434682369232178,-5.465506553649902
1,34330,-7.995065689086914,14.780056953430176,2.927126407623291,11.501142501831055
1,34330,9.906251907348633,-12.008663177490234,8.51802921295166,-1.5576136112213135
1,34330,11.92604923248291,-7.323000431060791,-12.55433177947998,-23.227859497070312
1,34331,-25.518701553344727,-5.80319356918335,-12.550769805908203,17.10709571838379
1,34331,-32.07320022583008,0.47158873081207275,2.1360485553741455,11.78447151184082
1,34331,21.02016258239746,10.140342712402344,-2.6173999309539795,-16.841053009033203
1,34331,19.9215145111084,-6.674454212188721,6.413665294647217,6.0936102867126465
1,34331,-20.277376174926758,-8.435001373291016,7.815280437469482,4.9814629554748535
1,34331,4.647224426269531,5.97624397277832,-0.772473156452179,-0.14980685710906982
1,34332,31.376251220703125,10.788662910461426,0.8210979104042053,-5.411655902862549
1,34332,-1.9745646715164185,-4.421341896057129,-23.541603088378906,-20.789081573486328
1,34332,-23.265911102294922,-28.819936752319336,-5.4935503005981445,25.090715408325195
1,34332,1.2509156465530396,3.933116912841797,29.93929672241211,37.51710510253906
1,34332,3.938110828399658,27.639991760253906,-6.608628273010254,-35.517337799072266
1,34333,-14.832932472229004,-6.1009345054626465,-23.099143981933594,-23.978822708129883
1,34333,-6.801756381988525,-13.951210975646973,16.35569953918457,19.98109245300293
1,34333,17.756746292114258,29.5712890625,13.8223237991333,-5.02463436126709
1,34333,14.844051361083984,-8.459872245788574,-15.088141441345215,-8.3014554977417
1,34333,-6.772931098937988,-34.34332275390625,2.9970221519470215,3.3240859508514404
1,34333,-7.998908519744873,33.77226638793945,9.623831748962402,16.887371063232422
1,34334,-5.238763809204102,11.91089153289795,-11.86591625213623,11.102657318115234
1,34334,21.82929229736328,-13.372247695922852,2.597795009613037,-21.432397842407227
1,34334,14.69441032409668,-1.1979793310165405,6.6861701011657715,-14.216156959533691
1,34334,-37.48711013793945,-6.77398681640625,-9.975317001342773,2.2361679077148438
1,34334,-18.610977172851562,-15.303144454956055,1.5661290884017944,5.431650161743164
1,34334,28.134716033935547,-1.8980966806411743,12.849474906921387,7.030592441558838
1,34335,10.114534378051758,27.162858963012695,-3.8936593532562256,-1.671705961227417
1,34335,-21.06389045715332,2.0852324962615967,-18.77314567565918,10.088626861572266
1,34335,-5.901065349578857,-12.85536003112793,7.460702419281006,19.72408676147461
1,34335,18.945127487182617,13.59900951385498,22.59282684326172,-3.0960299968719482
1,34335,8.79422664642334,-0.5951284766197205,-5.951439380645752,-36.897056579589844
1,34335,-16.05089569091797,-15.604700088500977,-17.300617218017578,-15.391695976257324
1,34336,-9.534995079040527,-1.8589704036712646,1.1676597595214844,30.117231369018555
1,34336,-1.692237377166748,1.8289079666137695,10.021143913269043,-1.308491587638855
1,34336,-10.56589412689209,14.892210960388184,-13.811683654785156,-30.931209564208984
1,34336,-13.296773910522461,-0.1827384978532791,-4.692354202270508,14.934000968933105
1,34336,23.74641227722168,-2.504476547241211,27.699626922607422,39.9793701171875
1,34338,22.39105796813965,17.264266967773438,-4.046860694885254,-11.391134262084961
1,34338,-12.320342063903809,-22.01878547668457,-9.484463691711426,-17.747758865356445
1,34338,9.706862449645996,-26.975942611694336,8.693513870239258,15.206832885742188
1,34338,8.20792293548584,12.211966514587402,-13.448854446411133,-1.8048276901245117
1,34338,-16.279407501220703,-2.2412025928497314,-5.655947208404541,-11.949559211730957
1,34340,-10.640287399291992,-2.4389028549194336,15.248316764831543,-8.270380973815918
1,34342,7.510859489440918,7.135219097137451,-5.199854850769043,-0.6439909338951111
1,34344,6.518909931182861,-0.8099395632743835,-13.894521713256836,26.920774459838867
1,34346,6.898641109466553,15.091626167297363,21.188358306884766,20.402889251708984
1,34348,19.216064453125,4.573534965515137,12.905658721923828,-11.37048625946045
1,34350,-28.381927490234375,-17.85988426208496,-31.2042293548584,-55.55677032470703
1,34352,-31.542543411254883,-3.1801204681396484,-22.837263107299805,-53.67296600341797
1,34354,42.64649963378906,27.33530044555664,33.82939910888672,76.97240447998047
1,34356,20.414308547973633,11.091780662536621,18.843660354614258,62.4307975769043
1,34358,-41.5991325378418,-20.481048583984375,-18.413848876953125,-63.748023986816406
1,34360,-8.090712547302246,14.863052368164062,-1.7835088968276978,-16.56941795349121
1,34362,29.405649185180664,11.744392395019531,-2.7194206714630127,20.67764663696289
1,34364,0.05000855773687363,-20.515562057495117,15.013073921203613,-1.0959718227386475
1,34366,-17.33527183532715,-3.0180771350860596,11.654716491699219,7.904440402984619
1,34368,-3.1560356616973877,-14.257603645324707,-24.250999450683594,-3.495417356491089
1,34370,14.348999977111816,-20.92819595336914,-1.301700234413147,10.728670120239258
1,34372,13.9412260055542,9.043766975402832,2.1833319664001465,2.252950668334961
1,34374,-25.924772262573242,13.635103225708008,-15.484627723693848,-9.66146469116211
1,34474,-19.33172035217285,-6.4112548828125,28.995588302612305,18.238618850708008
1,34474,40.071266174316406,-11.838640213012695,2.0527708530426025,-18.414859771728516
1,34474,-3.565373420715332,-1.9617040157318115,-34.139949798583984,-4.583597660064697
1,34474,-24.618877410888672,27.616518020629883,26.999164581298828,22.473724365234375
1,34474,24.069543838500977,20.212438583374023,-0.719934344291687,-23.70620346069336
1,34474,-9.424592971801758,-21.518056869506836,-23.998857498168945,11.978824615478516
1,34475,-17.64539337158203,2.751579999923706,22.273502349853516,14.1929292678833
1,34475,23.0949764251709,10.182046890258789,4.669158935546875,-37.147789001464844
1,34475,5.5594892501831055,-13.599555015563965,5.578123092651367,-6.414548397064209
1,34475,-14.529793739318848,-0.2043197602033615,4.555949687957764,-6.988596439361572
1,34475,-1.0102474689483643,-5.336583614349365,-27.838748931884766,11.822232246398926
1,34475,-5.108171463012695,-5.312707424163818,7.715925216674805,39.0418815612793
1,34476,-6.859896659851074,15.696922302246094,13.51235580444336,-6.789932727813721
1,34476,12.881823539733887,13.633821487426758,-28.280838012695312,-19.519306182861328
1,34476,10.653054237365723,-6.124438285827637,12.705840110778809,7.2150726318359375
1,34476,7.145169258117676,-18.819229125976562,28.213539123535156,9.482069969177246
1,34476,5.739090919494629,-8.395421028137207,-35.344146728515625,-18.088584899902344
1,34476,-23.735097885131836,14.133974075317383,-26.540828704833984,-3.8102548122406006
1,34477,-14.376664161682129,5.898703575134277,30.783138275146484,19.343393325805664
1,34477,21.198528289794922,-2.113302707672119,19.93217658996582,-8.070073127746582
1,34477,4.365603446960449,3.520700693130493,-19.614412307739258,-4.064302444458008
1,34477,-22.514034271240234,-17.787425994873047,-20.648298263549805,22.986377716064453
1,34477,-2.069342613220215,-4.8148980140686035,16.359439849853516,-7.584416389465332
1,34477,39.55170822143555,26.42362403869629,12.506523132324219,-16.568864822387695
1,34478,5.146842956542969,-5.749494552612305,-14.78010082244873,4.609988212585449
1,34478,-44.77781295776367,-9.928060531616211,10.119754791259766,3.1791322231292725
1,34478,2.096078395843506,12.77668571472168,13.030420303344727,-9.890156745910645
1,34478,21.773845672607422,-19.61370086669922,-18.49498748779297,-16.98534393310547
1,34478,-0.850485622882843,-18.73370361328125,3.474112033843994,8.78806209564209
1,34479,-0.993057370185852,21.096778869628906,19.084592819213867,24.73503875732422
1,34479,4.496931076049805,17.82587242126465,-11.721419334411621,3.3869211673736572
1,34479,1.2555588483810425,-9.45394229888916,-7.305653095245361,-13.904740333557129
1,34479,-12.437094688415527,1.0463240146636963,-0.3179537355899811,-7.68766975402832
1,34479,7.431882381439209,3.068173408508301,3.142401933670044,-3.187624454498291
1,34479,5.291764259338379,-12.056961059570312,-1.0355550050735474,-12.299811363220215
1,34480,-13.810192108154297,-7.315423011779785,-12.88084602355957,-3.8260765075683594
1,34480,-3.9884448051452637,1.9550334215164185,12.832840919494629,34.988311767578125
1,34480,-4.847329616546631,12.166692733764648,14.283493995666504,-5.747875213623047
1,34480,15.189406394958496,2.4861087799072266,-18.287378311157227,-37.840782165527344
1,34480,-4.155539035797119,-3.322017192840576,-19.471874237060547,32.170982360839844
1,34480,-28.101736068725586,7.0208539962768555,17.719676971435547,31.233837127685547
1,34481,15.003029823303223,11.770000457763672,26.776573181152344,-31.770462036132812
1,34481,12.861712455749512,-16.906461715698242,-10.073774337768555,-13.49277400970459
1,34481,5.281548976898193,-13.571626663208008,-33.59954071044922,40.209503173828125
1,34481,-8.143905639648438,1.153608798980713,9.221782684326172,19.613603591918945
1,34481,-4.8773040771484375,13.97402572631836,36.85887908935547,-24.697847366333008
1,34481,39.9351692199707,45.33869171142578,-7.964328765869141,-32.37986373901367
1,34482,4.325790882110596,-14.34915828704834,-21.006441116333008,-3.2001898288726807
1,34482,-46.812713623046875,-44.25129699707031,3.42130446434021,15.424776077270508
1,34482,-15.840773582458496,2.80771803855896,6.79358434677124,-10.414365768432617
1,34483,25.78803062438965,1.3736670017242432,-12.663138389587402,-7.189796447753906
1,34483,5.003432750701904,-8.449763298034668,0.09999973326921463,7.647255897521973
1,34484,-17.210222244262695,-3.9299404621124268,12.47298526763916,11.008435249328613
1,34484,-4.257809162139893,5.178489685058594,3.2943363189697266,8.944878578186035
1,34485,7.05075216293335,22.708852767944336,18.355566024780273,-16.688770294189453
1,34486,11.289692878723145,-3.039074659347534,-4.018250942230225,-12.220320701599121
1,34488,16.19365882873535,-10.13680648803711,-20.88581085205078,-0.36569952964782715
1,34490,-11.096046447753906,-0.6490889191627502,-7.526170253753662,39.496761322021484
1,34492,-9.112203598022461,20.456911087036133,-15.396088600158691,22.919591903686523
1,34495,15.057543754577637,30.433364868164062,14.678153038024902,-28.08108901977539
1,34496,-16.776607513427734,-34.68644332885742,22.619796752929688,0.8293004035949707
1,34499,-2.6834657192230225,-23.429729461669922,-14.79503345489502,-22.237407684326172
1,34500,19.517446517944336,6.667812824249268,8.191887855529785,-12.901949882507324
1,34503,-18.045347213745117,1.099060297012329,9.24569320678711,15.366167068481445
1,34504,-1.5302475690841675,10.232834815979004,-37.085838317871094,-11.553167343139648
1,34507,13.860027313232422,-23.075712203979492,1.410368800163269,6.105592727661133
1,34508,-16.57396697998047,-28.91455078125,30.258255004882812,26.11585807800293
1,34511,18.679887771606445,30.201202392578125,-20.59389877319336,6.4867658615112305
1,34512,15.071398735046387,28.440757751464844,1.4498666524887085,-5.616278648376465
1,34515,-25.64070701599121,-21.224157333374023,38.556732177734375,6.1062517166137695
1,34516,4.185057640075684,-6.272168159484863,-24.532520294189453,-6.822465419769287
1,34519,19.901294708251953,3.0934300422668457,-43.70804214477539,-19.586008071899414
1,34520,-9.099150657653809,11.200013160705566,33.2576789855957,-0.7542764544487
1,34521,-11.773728370666504,28.916383743286133,11.378447532653809,-9.85816764831543
1,34634,-4.049635887145996,-6.509558200836182,-36.51877212524414,-12.346795082092285
1,34634,-32.22162628173828,-18.997119903564453,17.73986053466797,25.822362899780273
1,34634,0.2823311984539032,17.207870483398438,18.334339141845703,2.44671368598938
1,34634,37.53045654296875,-12.723400115966797,-24.991037368774414,-31.892494201660156
1,34634,-1.9030959606170654,-24.05787467956543,-5.335474491119385,4.322278022766113
1,34635,-21.354629516601562,21.081649780273438,29.694284439086914,20.8642520904541
1,34635,16.375864028930664,11.46220874786377,16.778974533081055,-6.983010292053223
1,34635,26.701509475708008,-8.111201286315918,-4.122021675109863,-1.0233348608016968
1,34635,-11.841875076293945,-20.16412353515625,-9.737394332885742,33.48142623901367
1,34635,-18.91225242614746,-8.927695274353027,-5.299699306488037,13.005666732788086
1,34635,19.218477249145508,37.22190475463867,2.5407934188842773,-9.068620681762695
1,34636,3.7971484661102295,1.8922051191329956,0.5423383116722107,4.202073574066162
1,34636,-21.969350814819336,-27.79718780517578,6.614068508148193,-2.183274030685425
1,34636,5.764791488647461,25.72799301147461,9.593840599060059,-4.650135040283203
1,34636,-0.2099541574716568,9.16178035736084,2.5667529106140137,-7.6484599113464355
1,34636,1.2717381715774536,-10.268641471862793,-24.42481803894043,-6.668525695800781
1,34637,8.700882911682129,-6.067992210388184,-15.161023139953613,-4.896667957305908
1,34637,-0.45621269941329956,-22.088682174682617,19.158557891845703,-1.6377254724502563
1,34637,3.00315260887146,11.441612243652344,-2.4385552406311035,11.591696739196777
1,34637,-6.8116774559021,15.114211082458496,-7.943601131439209,-9.91769790649414
1,34637,-2.863159418106079,-9.121342658996582,2.0200350284576416,-18.506277084350586
1,34637,0.9384918212890625,1.1842584609985352,9.741226196289062,9.700360298156738
1,34638,-5.4172773361206055,-19.604402542114258,-1.5439558029174805,-6.3209638595581055
1,34638,11.935111999511719,-6.827676296234131,-18.90737533569336,-8.966442108154297
1,34638,5.048767566680908,10.413728713989258,12.421152114868164,16.872825622558594
1,34638,-20.588726043701172,13.189681053161621,1.618700385093689,-6.67102575302124
1,34638,-19.40679168701172,25.575965881347656,-9.98772144317627,-4.678993225097656
1,34638,9.343624114990234,-26.297895431518555,10.571184158325195,7.342593669891357
1,34639,27.244827270507812,-26.5550479888916,4.582383632659912,5.182969093322754
1,34639,-0.4289526641368866,16.583471298217773,3.6536812782287598,-1.9349855184555054
1,34639,-11.670083045959473,12.930784225463867,-4.653980255126953,-6.017734527587891
1,34639,0.3755872845649719,-7.543766975402832,-21.442110061645508,17.808290481567383
1,34639,5.680593967437744,-2.523934841156006,-0.41915497183799744,3.2535605430603027
1,34639,-7.0688629150390625,-1.8464819192886353,20.814449310302734,-3.790208578109741
1,34640,-8.9302978515625,-5.478565216064453,-3.3898696899414062,-0.8557959794998169
1,34640,19.734556198120117,28.32781982421875,-14.224812507629395,-3.8713791370391846
1,34640,4.163909435272217,2.1494314670562744,10.379096031188965,14.474908828735352
1,34640,-12.644438743591309,-44.594200134277344,4.114471435546875,25.651599884033203
1,34640,-9.198378562927246,13.223274230957031,-12.1669282913208,-11.69771957397461
1,34640,-1.8111705780029297,39.93351745605469,5.908238410949707,-47.93144989013672
1,34641,23.68665885925293,-13.540881156921387,-12.851943016052246,8.846315383911133
1,34641,15.954166412353516,-1.6378378868103027,-5.116461753845215,-0.7535419464111328
1,34641,-29.573116302490234,-28.659330368041992,27.14436149597168,-26.815217971801758
1,34641,-43.43925857543945,-24.638547897338867,0.18994273245334625,33.34774398803711
1,34641,27.500490188598633,61.26808166503906,1.1239447593688965,18.982662200927734
1,34642,48.032527923583984,14.409716606140137,9.925177574157715,-29.29502296447754
1,34642,-20.169605255126953,-47.75645446777344,-22.351543426513672,-12.97557544708252
1,34642,-11.463717460632324,-0.7275777459144592,-6.99717903137207,19.587385177612305
1,34642,4.890989780426025,10.268536567687988,30.835712432861328,22.620607376098633
1,34642,-12.008527755737305,-2.4453279972076416,9.64151382446289,3.8371834754943848
1,34642,4.666851043701172,20.943164825439453,-15.083690643310547,-1.478240728378296
1,34642,-3.7640552520751953,-7.604639053344727,-10.670458793640137,2.1274139881134033
1,34643,10.66946029663086,-14.873472213745117,6.4214768409729,-19.019350051879883
1,34643,18.551366806030273,16.986730575561523,-10.945405006408691,-0.130168616771698
1,34643,-31.920408248901367,-0.5017329454421997,0.6801518201828003,25.768808364868164
1,34643,-3.0751538276672363,-6.692246437072754,30.73366928100586,-26.050243377685547
1,34644,27.39697265625,21.998119354248047,-14.194621086120605,-19.226810455322266
1,34645,-6.529186248779297,-2.0071563720703125,-15.122312545776367,5.555736541748047
1,34645,-2.679079294204712,-34.568878173828125,5.920144081115723,-7.3608551025390625
1,34645,1.9084124565124512,-11.773099899291992,-12.1863374710083,23.298500061035156
1,34645,-24.979536056518555,29.36810302734375,-3.0259461402893066,15.373626708984375
1,34646,20.35106086730957,22.803176879882812,11.9816255569458,-21.531530380249023
1,34648,40.79695129394531,-30.802783966064453,14.859369277954102,-13.095377922058105
1,34650,-42.510154724121094,-15.625475883483887,-6.5486531257629395,17.613685607910156
1,34652,-26.608945846557617,28.02147102355957,-12.735028266906738,11.89338493347168
1,34654,26.596412658691406,2.844851493835449,-7.426135540008545,1.5365195274353027
1,34656,7.1332106590271,-17.707632064819336,1.0863637924194336,9.095479965209961
1,34659,-29.40677261352539,2.77725887298584,2.5206856727600098,-26.998149871826172
1,34660,4.838263511657715,10.770524978637695,-8.553128242492676,-17.094148635864258
1,34663,26.7652587890625,-7.065672874450684,28.59615707397461,21.255102157592773
1,34664,-17.23942756652832,7.4786272048950195,10.879802703857422,-20.965726852416992
1,34667,-9.2190580368042,-0.714431881904602,-39.607452392578125,12.870353698730469
1,34668,10.812439918518066,-19.439762115478516,-5.589862823486328,30.886837005615234
1,34671,8.772830963134766,28.065582275390625,31.51431655883789,-30.58580207824707
1,34672,15.223112106323242,-0.7435994148254395,6.748132705688477,9.036115646362305
1,34675,4.238085746765137,-29.795793533325195,-4.761991024017334,33.768287658691406
1,34676,-17.101783752441406,-3.719825506210327,-14.872446060180664,-11.73263931274414
1,34679,-13.58469295501709,16.10553550720215,-7.202891826629639,-26.658443450927734
1,34680,-11.313508033752441,24.952571868896484,15.722328186035156,-15.622390747070312
1,34683,5.9852495193481445,-32.18782424926758,-21.593517303466797,0.4909738600254059
1,34684,9.638046264648438,-24.19103240966797,4.215742588043213,29.426782608032227
1,34804,16.422420501708984,44.171173095703125,29.757427215576172,3.12814998626709
1,34805,8.131999015808105,9.733283042907715,-21.228464126586914,-35.79164505004883
1,34805,-24.429100036621094,-16.7075138092041,-5.127171039581299,-2.0761098861694336
1,34805,-12.89793872833252,14.669256210327148,16.05340576171875,-7.506155490875244
1,34805,34.32211685180664,-1.539411187171936,-9.847514152526855,-13.240139961242676
1,34805,12.691815376281738,-27.237571716308594,-15.261977195739746,37.29777145385742
1,34805,-35.807655334472656,7.240614891052246,2.4439640045166016,17.020732879638672
1,34806,-3.161639928817749,16.225467681884766,11.787775993347168,-11.074311256408691
1,34806,-3.47477126121521,-16.256444931030273,5.7916741371154785,19.65121078491211
1,34806,4.204379558563232,18.657075881958008,-1.7495256662368774,4.451737880706787
1,34806,20.649789810180664,10.760469436645508,-5.952818393707275,-25.8365535736084
1,34806,-19.250959396362305,-48.55397415161133,-4.302821159362793,11.118167877197266
1,34806,-25.464881896972656,-13.868825912475586,20.734127044677734,15.710709571838379
1,34807,24.417184829711914,26.931015014648438,3.594650983810425,-32.74811935424805
1,34807,27.866302490234375,6.339020252227783,-26.70478057861328,-5.450708389282227
1,34807,-11.162444114685059,-3.046505928039551,5.517007827758789,31.091440200805664
1,34807,-16.85421371459961,0.8160504698753357,10.595843315124512,-4.553861141204834
1,34807,8.362770080566406,16.602401733398438,11.94494342803955,-16.729019165039062
1,34807,32.090492248535156,-0.40396028757095337,-4.702707290649414,-1.0063718557357788
1,34808,-25.65180778503418,-15.337407112121582,-12.895407676696777,-2.3456530570983887
1,34808,-32.98945999145508,7.616485595703125,15.8397855758667,12.491045951843262
1,34808,33.99691390991211,7.638241291046143,-3.147106885910034,-1.2293611764907837
1,34808,22.422733306884766,6.070249557495117,-15.89687728881836,-9.49105167388916
1,34808,-29.19785499572754,-8.67854118347168,3.2576515674591064,17.072294235229492
1,34809,-22.60638999938965,-11.736444473266602,24.01350212097168,-7.281247615814209
1,34809,31.621267318725586,5.309504985809326,-11.395023345947266,-12.354837417602539
1,34809,-10.197951316833496,-10.334237098693848,-31.817243576049805,14.248282432556152
1,34809,-49.39311981201172,3.5149903297424316,31.334585189819336,6.379471778869629
1,34809,46.07431411743164,16.712247848510742,-0.8338326215744019,-15.617606163024902
1,34809,46.00438690185547,-19.201147079467773,-27.858654022216797,3.9416911602020264
1,34810,-37.137691497802734,19.2757625579834,31.16632652282715,8.025443077087402
1,34810,-8.644214630126953,-6.547758102416992,-12.72034740447998,-27.41016960144043
1,34810,8.68100643157959,-40.55781936645508,-3.4941279888153076,13.961649894714355
1,34810,-11.543742179870605,39.99819564819336,32.2679557800293,25.99561309814453
1,34810,6.369682788848877,21.369760513305664,-35.03403091430664,-33.60633087158203
1,34810,11.392786979675293,-21.246660232543945,-13.650453567504883,-8.91958236694336
1,34811,-16.7139835357666,-5.714844703674316,45.41890335083008,27.077373504638672
1,34811,13.032593727111816,15.079442977905273,14.345786094665527,1.0765166282653809
1,34811,14.99301528930664,6.4420857429504395,-33.15756607055664,-16.05119514465332
1,34811,-42.70862579345703,-29.16696548461914,-14.482105255126953,3.3000595569610596
1,34811,-1.972041130065918,-2.240521192550659,13.407759666442871,16.127269744873047
1,34811,17.22113037109375,9.508135795593262,1.1165789365768433,-14.721097946166992
1,34812,-20.748390197753906,-12.692747116088867,-5.943861484527588,1.8009543418884277
1,34812,14.561726570129395,16.58991241455078,-3.402113199234009,39.63079833984375
1,34812,32.296382904052734,12.981310844421387,-5.77496862411499,-16.667003631591797
1,34812,-19.708463668823242,-16.373279571533203,0.25955140590667725,-30.594249725341797
1,34812,-5.8321452140808105,1.6277438402175903,11.180521965026855,22.705265045166016
1,34812,21.092529296875,10.422283172607422,-14.270384788513184,-6.45384407043457
1,34813,-23.99227523803711,-11.701312065124512,1.962478756904602,-18.982786178588867
1,34813,-8.465734481811523,-3.5446102619171143,28.58360481262207,-13.097573280334473
1,34813,13.939004898071289,-7.989555358886719,-9.431130409240723,-13.954181671142578
1,34813,-2.6738407611846924,-18.16577911376953,-14.940126419067383,27.548568725585938
1,34813,20.403308868408203,44.45505142211914,-22.722192764282227,26.052980422973633
1,34814,-17.224611282348633,35.77799606323242,3.8730099201202393,-16.51167869567871
1,34814,-25.134422302246094,-48.86259460449219,43.573490142822266,-9.818473815917969
1,34814,31.349933624267578,-14.72452163696289,-5.156358242034912,13.535134315490723
1,34814,9.450353622436523,20.918296813964844,-29.857784271240234,0.921546995639801
1,34814,-18.55360984802246,-25.421974182128906,-0.6437691450119019,16.256071090698242
1,34814,-2.9881997108459473,9.13282585144043,21.081727981567383,10.875992774963379
1,34815,6.070866584777832,28.98339080810547,-5.227733135223389,-15.92849063873291
1,34816,-1.5433459281921387,-10.949167251586914,-4.229604244232178,17.96180534362793
1,34816,16.03707504272461,19.6303653717041,26.56319808959961,22.738922119140625
1,34816,6.852571964263916,4.2265448570251465,-7.948997974395752,-25.913881301879883
1,34816,-28.240570068359375,-42.019775390625,-17.498409271240234,-33.87370300292969
1,34816,-3.726706027984619,0.47770118713378906,-3.1436455249786377,-12.317154884338379
1,34817,20.206790924072266,5.946254253387451,0.6035736799240112,1.1699844598770142
1,34818,-14.498714447021484,-5.609736919403076,2.2048099040985107,4.319318771362305
1,34821,-2.444685220718384,13.977731704711914,-9.460929870605469,13.124796867370605
1,34822,23.600744247436523,-2.92016863822937,-10.534229278564453,-5.135742664337158
1,34825,-6.497969150543213,1.6024129390716553,0.15930917859077454,-19.385231018066406
1,34826,-15.730237007141113,13.203977584838867,8.204694747924805,4.945687294006348
1,34829,-5.881237983703613,-11.408601760864258,2.624173641204834,13.997159957885742
1,34830,20.01612091064453,-21.42091178894043,10.038902282714844,15.948173522949219
1,34831,0.4265592694282532,-3.2150259017944336,11.550241470336914,-0.01602202281355858
1,34834,-12.703634262084961,3.3223717212677,-2.3048744201660156,-13.870857238769531
1,34835,4.594192028045654,11.629969596862793,-12.108990669250488,-6.947438716888428
1,34838,4.558806419372559,16.880903244018555,5.8167548179626465,9.549306869506836
1,34839,7.872862339019775,0.27580225467681885,22.286640167236328,6.325665473937988
1,34842,-10.068286895751953,-6.470627784729004,3.896801233291626,-15.36281681060791
1,34843,3.6716532707214355,-3.4523088932037354,-8.12094783782959,2.9451041221618652
1,34846,-0.9532118439674377,8.764596939086914,-2.733795404434204,21.497535705566406
1,34847,-15.087276458740234,-16.81153678894043,-5.744020462036133,11.887928009033203
1,34850,9.026647567749023,-19.27499008178711,-25.117624282836914,-20.160259246826172
1,34851,8.481204986572266,12.067418098449707,-30.122541427612305,-12.892911911010742
1,34854,-13.739767074584961,-3.841132879257202,7.173263072967529,17.900094985961914
1,34855,-8.830623626708984,12.988702774047852,36.46682357788086,-15.019535064697266
1,34858,13.439212799072266,19.83380126953125,20.265804290771484,9.96202278137207
1,34989,4.557493686676025,-13.506956100463867,-4.764942169189453,1.2996692657470703
1,34989,0.11726661026477814,-22.630212783813477,-15.645740509033203,-39.8129768371582
1,34989,-14.187222480773926,9.684453964233398,9.071489334106445,24.72475814819336
1,34989,-11.646136283874512,30.673336029052734,13.294326782226562,24.632017135620117
1,34989,26.4227352142334,5.2865214347839355,-17.113243103027344,-36.37208938598633
1,34990,17.4846134185791,-23.2586612701416,-17.063859939575195,-22.57672119140625
1,34990,-14.046370506286621,-11.79161262512207,27.06070327758789,33.41273498535156
1,34990,-23.352529525756836,27.103004455566406,24.829187393188477,21.52505111694336
1,34990,8.718531608581543,-8.5209379196167,-16.69462776184082,-4.036667346954346
1,34990,15.205182075500488,-30.04326820373535,-11.888291358947754,-4.584207534790039
1,34990,-14.086649894714355,22.649154663085938,-12.246108055114746,-2.619638204574585
1,34991,-1.0304478406906128,10.75327205657959,0.5133151412010193,7.407802104949951
1,34991,13.78951644897461,-22.163259506225586,-0.2154659926891327,-23.741580963134766
1,34991,-2.0772945880889893,-7.905755519866943,-10.350631713867188,4.5375494956970215
