Aktueller Finger,timestamp_ms,sensor_0,sensor_1,sensor_2,sensor_3
0,194648,-16.284170150756836,2.504941940307617,-1.779915690422058,4.728870868682861
0,194651,-5.541426181793213,1.5513092279434204,-28.336950302124023,-0.6451704502105713
0,194652,8.358511924743652,1.0388011932373047,-6.999812602996826,-0.6418091058731079
0,194655,-9.102426528930664,-1.3244725465774536,18.388853073120117,-27.59789276123047
0,194656,-6.951380252838135,-11.794236183166504,-0.582917332649231,19.474224090576172
0,194659,21.389989852905273,-9.944764137268066,13.040749549865723,17.11405372619629
0,194660,29.910524368286133,20.84415626525879,1.6655365228652954,-55.2720947265625
0,194663,-23.400108337402344,18.79893684387207,-13.91270923614502,9.895004272460938
0,194664,-33.39240264892578,-2.2595856189727783,-1.501369833946228,34.535728454589844
0,194675,-2.5388216972351074,-11.339639663696289,8.656290054321289,-24.08126449584961
0,194675,-7.177952766418457,-19.49350357055664,3.7057924270629883,7.363231182098389
0,194676,14.274681091308594,-3.462226152420044,2.2210073471069336,3.806464910507202
0,194676,26.821638107299805,11.262752532958984,-15.313838958740234,-8.32866096496582
0,194676,-18.57889747619629,-0.15007969737052917,-0.31134364008903503,26.434040069580078
0,194677,0.36585721373558044,15.751274108886719,12.338227272033691,3.3602771759033203
0,194679,34.68778610229492,25.696548461914062,8.080793380737305,-11.860489845275879
0,194680,-11.716506004333496,-43.350128173828125,-3.1452064514160156,-15.851295471191406
0,194683,-24.82198143005371,-23.441173553466797,-15.920135498046875,-16.72261619567871
0,194684,8.022748947143555,27.75139617919922,7.790947437286377,19.19753646850586
0,194685,27.19132423400879,6.221621990203857,3.7708919048309326,5.216436862945557
0,194688,-11.64452838897705,-6.958668231964111,2.4935736656188965,-10.264215469360352
0,194689,-38.709110260009766,-20.826135635375977,-17.411962509155273,20.688112258911133
0,194692,12.19848918914795,9.982929229736328,-7.870080471038818,13.763850212097168
0,194693,17.559993743896484,14.61999797821045,24.27704429626465,-22.682552337646484
0,194696,-1.4197760820388794,12.029200553894043,-3.8949339389801025,-19.72359275817871
0,194697,6.410093307495117,-2.730837821960449,-9.502266883850098,18.00749397277832
0,194700,-21.853670120239258,-38.13759231567383,-12.767749786376953,16.783784866333008
0,194724,6.3052849769592285,19.94710922241211,-6.050273418426514,-19.738128662109375
0,194725,16.53045654296875,34.868343353271484,25.712133407592773,-32.51866149902344
0,194725,-9.145857810974121,-5.301985263824463,-2.382115125656128,2.3857507705688477
0,194725,35.504974365234375,-19.290023803710938,-6.934071063995361,40.82597732543945
0,194725,-17.152114868164062,-8.334147453308105,19.518394470214844,3.81078839302063
0,194725,-25.2308292388916,20.69671630859375,9.63269329071045,-15.721696853637695
0,194725,18.6503849029541,-13.097683906555176,-7.4067182540893555,5.681093692779541
0,194726,-28.24095344543457,-26.688278198242188,-11.753528594970703,0.6705349683761597
0,194726,-11.870802879333496,11.283771514892578,-1.4665138721466064,9.297520637512207
0,194726,29.284374237060547,20.72167205810547,-1.4088196754455566,-5.510629653930664
0,194726,27.42079734802246,9.086811065673828,-2.5597140789031982,-11.609782218933105
0,194726,-7.724422454833984,-18.68120574951172,-4.94920539855957,4.394686222076416
0,194728,-36.444828033447266,-21.74362564086914,16.58028793334961,-0.43660658597946167
0,194728,-1.8277662992477417,10.038119316101074,12.85134220123291,-0.14851519465446472
0,194731,33.11716079711914,39.99155807495117,-28.664810180664062,-2.7841038703918457
0,194732,-2.3427906036376953,3.290616512298584,-1.1250910758972168,9.078668594360352
0,194735,-31.08894920349121,-35.52968978881836,20.91666603088379,7.787802696228027
0,194736,-12.104605674743652,-7.3547186851501465,-22.37346076965332,-14.883109092712402
0,194739,29.729589462280273,3.6678686141967773,-15.328904151916504,-9.715102195739746
0,194740,25.44306755065918,-15.187853813171387,19.410388946533203,15.236845970153809
0,194743,-19.721561431884766,19.280550003051758,12.55270767211914,-1.0183314085006714
0,194744,-24.720932006835938,23.885202407836914,-11.800965309143066,-19.11672592163086
0,194747,-0.867638885974884,-23.52853775024414,-7.5721116065979,24.108911514282227
0,194748,17.711490631103516,0.7688812613487244,28.479618072509766,17.399250030517578
0,194751,15.238862991333008,19.997695922851562,-2.780233383178711,-39.79096221923828
0,194752,-1.4734054803848267,-8.832365036010742,-14.695464134216309,-17.576377868652344
0,194789,-4.126547813415527,-13.357918739318848,3.94108510017395,44.19890594482422
0,194789,11.444793701171875,18.689083099365234,-7.240441799163818,12.706954002380371
0,194790,-18.08968162536621,-2.8647103309631348,21.47613525390625,-29.478858947753906
0,194790,8.123625755310059,-3.465752124786377,-1.771503210067749,-6.367912769317627
0,194790,16.849443435668945,10.572819709777832,-27.61928367614746,6.126016139984131
0,194790,-34.71256637573242,-33.407779693603516,4.275126934051514,14.83348560333252
0,194790,4.859987735748291,8.320977210998535,18.25994300842285,2.0577781200408936
0,194790,13.505024909973145,21.570308685302734,-0.44157135486602783,-18.07939910888672
0,194791,-17.281692504882812,-36.59164810180664,-10.326384544372559,24.512895584106445
0,194791,2.4305105209350586,15.373077392578125,15.399121284484863,7.251219749450684
0,194791,9.162116050720215,37.3043327331543,-2.7585861682891846,-43.08163070678711
0,194791,1.538116455078125,-15.560792922973633,-29.838703155517578,-5.630383491516113
0,194791,-1.3120741844177246,-23.061445236206055,4.742105484008789,20.725969314575195
0,194791,-5.545164585113525,3.707239866256714,29.987964630126953,-1.9314552545547485
0,194792,6.395199775695801,29.981365203857422,-4.486044883728027,-12.952482223510742
0,194792,-2.1018247604370117,-8.638797760009766,-12.415777206420898,6.192440032958984
0,194792,-9.566003799438477,-28.35419464111328,5.056829929351807,12.495394706726074
0,194792,-2.549576997756958,-9.866928100585938,-11.498761177062988,13.865605354309082
0,194793,2.115696430206299,11.893957138061523,-18.87323570251465,1.0316262245178223
0,194794,-3.1395273208618164,18.49797248840332,11.574897766113281,-5.827849864959717
0,194794,-15.514303207397461,2.6779699325561523,25.909465789794922,0.8930040001869202
0,194797,-4.10308313369751,-20.006389617919922,-10.521103858947754,-16.81275177001953
0,194798,20.7952880859375,-20.541818618774414,-26.820608139038086,-21.50765609741211
0,194801,24.382057189941406,29.793663024902344,8.667509078979492,19.239858627319336
0,194802,-20.135358810424805,-0.9896543025970459,8.467560768127441,35.879695892333984
0,194805,-3.5915720462799072,-1.7302125692367554,-8.820501327514648,-24.579116821289062
0,194806,33.282012939453125,19.314651489257812,7.07276725769043,-15.183121681213379
0,194809,-25.68836212158203,-35.928707122802734,3.693113327026367,12.527082443237305
0,194810,-16.1370792388916,0.26461321115493774,12.799227714538574,-17.70359230041504
0,194813,30.107532501220703,31.206584930419922,13.909424781799316,0.9910833239555359
0,194814,3.468327760696411,7.867361545562744,-8.597918510437012,11.584122657775879
0,194817,0.7045075297355652,-5.937235355377197,-7.760444164276123,8.525053024291992
0,194818,-8.101007461547852,-34.73654556274414,3.3576772212982178,19.542686462402344
0,194821,-7.454785346984863,16.45142936706543,4.1462788581848145,-20.24816131591797
0,194822,15.638376235961914,35.00181198120117,-0.2879638969898224,-25.728740692138672
0,194873,-13.471931457519531,-41.59170913696289,1.9181948900222778,37.199729919433594
0,194873,3.5143284797668457,-0.8355144262313843,-1.8722246885299683,6.4289350509643555
0,194874,14.241401672363281,39.47555160522461,-16.0887451171875,-24.90249252319336
0,194874,-22.92213249206543,-24.864276885986328,-15.41459846496582,13.910565376281738
0,194874,-3.1695339679718018,-2.1057426929473877,5.378880023956299,7.180906772613525
0,194874,2.7120108604431152,12.679746627807617,18.985485076904297,-21.80385971069336
0,194874,-5.581357479095459,-31.418912887573242,-14.378337860107422,-19.909635543823242
0,194874,0.4149821698665619,9.889904975891113,-23.977855682373047,24.38859748840332
0,194875,-19.072620391845703,5.695853233337402,21.43638038635254,27.8757266998291
0,194875,0.539787769317627,-13.215900421142578,6.456104278564453,-25.597064971923828
0,194875,23.477994918823242,14.033393859863281,-17.688783645629883,-28.034591674804688
0,194875,-14.338863372802734,-17.58683967590332,13.732163429260254,17.852807998657227
0,194875,-3.3406097888946533,-1.8511204719543457,2.5025532245635986,7.6838860511779785
0,194876,20.368183135986328,32.264278411865234,-5.49615478515625,-11.28848648071289
0,194876,9.469490051269531,-1.4214500188827515,24.674278259277344,-16.231815338134766
0,194876,8.011566162109375,-14.803638458251953,0.5823473334312439,4.7208356857299805
0,194876,-15.124942779541016,1.6513642072677612,-3.2211527824401855,50.097686767578125
0,194876,-11.915021896362305,-2.2042236328125,13.017035484313965,-11.356589317321777
0,194876,7.754993915557861,7.447944164276123,-12.656736373901367,-37.60578536987305
0,194876,9.236136436462402,16.98602867126465,-6.614866733551025,32.635257720947266
0,194877,-0.45192983746528625,-12.239736557006836,20.54534339904785,21.225482940673828
0,194877,-31.783824920654297,-12.152084350585938,1.4969103336334229,-25.048675537109375
0,194877,13.32608699798584,2.161252021789551,-31.91594123840332,-24.63715171813965
0,194877,37.47478103637695,7.335595607757568,-0.43257269263267517,16.8460693359375
0,194877,-5.341632843017578,12.054986953735352,25.975542068481445,16.402841567993164
0,194879,2.471510410308838,-2.472399950027466,-14.271445274353027,-27.681053161621094
0,194879,-8.708948135375977,1.6182571649551392,-16.74318504333496,12.419049263000488
0,194879,-7.993200778961182,-0.6897456049919128,9.010570526123047,2.105862617492676
0,194880,-1.2474726438522339,-25.00609016418457,14.79787540435791,-30.949451446533203
0,194882,-21.56147575378418,-10.664891242980957,-8.552011489868164,16.868642807006836
0,194884,25.74536895751953,27.222314834594727,-11.344099998474121,2.268014430999756
0,194886,19.350858688354492,19.996267318725586,19.701637268066406,3.397266387939453
0,194888,-28.8513126373291,-9.544788360595703,-2.5605103969573975,15.757100105285645
0,194890,-15.323837280273438,-15.74066162109375,-14.155557632446289,1.4224259853363037
0,194892,-3.58683705329895,-3.509916305541992,1.5716990232467651,-0.8615248203277588
0,194894,6.711416244506836,9.313249588012695,19.77936553955078,-21.577550888061523
0,194896,15.921906471252441,-4.03318452835083,0.24654601514339447,3.870187520980835
0,194898,7.6302032470703125,-23.811180114746094,-24.96143341064453,31.13490104675293
0,194900,-21.94712257385254,21.51409339904785,2.9418821334838867,1.456749439239502
0,194902,-2.479702949523926,5.819787502288818,11.365036010742188,-24.634851455688477
0,194904,15.664023399353027,-19.37049102783203,3.7869420051574707,-23.704111099243164
0,194906,5.442747116088867,23.066333770751953,-25.09075927734375,-19.793231964111328
0,194969,-2.441615343093872,-14.547707557678223,-4.336187839508057,37.04304885864258
0,194970,5.080833911895752,0.3701019883155823,26.159326553344727,39.335357666015625
0,194970,11.665375709533691,6.996864318847656,-5.646736145019531,-12.840743064880371
0,194970,-11.619318962097168,-21.274608612060547,-4.131473064422607,-9.507647514343262
0,194970,1.2928417921066284,20.035694122314453,-2.4352400302886963,-35.89671325683594
0,194970,-3.516068458557129,14.635201454162598,-0.5774256587028503,-1.3397923707962036
0,194970,-9.424142837524414,-12.85157299041748,13.114486694335938,47.27077865600586
0,194971,-6.884335041046143,-9.927602767944336,11.562423706054688,0.18879996240139008
0,194971,-16.48671531677246,5.06760835647583,1.8185608386993408,-28.983856201171875
0,194971,12.74190616607666,6.688229084014893,-31.741764068603516,-22.78505516052246
0,194971,12.963072776794434,-1.2126144170761108,-18.090299606323242,23.785282135009766
0,194971,-0.6563835144042969,-2.786978244781494,23.457727432250977,35.91732406616211
0,194971,-2.0523085594177246,-4.3576860427856445,21.156940460205078,-28.50815200805664
0,194972,-10.481305122375488,3.4321165084838867,-4.753785610198975,-10.823606491088867
0,194972,-1.3427191972732544,1.7029571533203125,-3.2766716480255127,21.362707138061523
0,194972,19.98323631286621,2.733546733856201,5.541520118713379,-19.552900314331055
0,194972,11.372322082519531,-22.211763381958008,-27.69034767150879,1.9212369918823242
0,194972,-21.98543357849121,-10.759195327758789,7.869646072387695,37.46006393432617
0,194972,3.893040418624878,49.666996002197266,33.95869064331055,-9.093045234680176
0,194973,20.11463737487793,12.295265197753906,-18.823753356933594,-35.08241271972656
0,194973,-19.325292587280273,-51.016883850097656,-17.873641967773438,3.947690963745117
0,194973,-24.02806854248047,-8.508893966674805,3.7066078186035156,10.472607612609863
0,194973,20.23036766052246,33.57048034667969,-3.683375358581543,-18.87322235107422
0,194973,11.700016975402832,-6.283127784729004,8.947550773620605,4.22830057144165
0,194973,-32.36674880981445,-3.2330739498138428,19.69862174987793,20.75059700012207
0,194974,1.5761597156524658,20.64726448059082,-11.851848602294922,-12.637929916381836
0,194974,26.736862182617188,-12.344202995300293,-14.30521297454834,-3.885723829269409
0,194974,4.206091403961182,-21.909427642822266,0.4922886788845062,16.462291717529297
0,194974,-5.6212077140808105,8.686273574829102,-6.656902313232422,-15.889632225036621
0,194974,-6.640848159790039,18.792442321777344,10.935212135314941,-0.43570181727409363
0,194974,19.988204956054688,-3.1615912914276123,25.918275833129883,13.447379112243652
0,194975,19.59616470336914,-11.148738861083984,-15.215799331665039,-20.52143096923828
0,194976,-40.214569091796875,-10.729700088500977,-26.609390258789062,10.103477478027344
0,194976,-13.537714004516602,-5.200671672821045,15.138677597045898,20.011043548583984
0,194976,27.264005661010742,18.009899139404297,9.518965721130371,-25.126745223999023
0,194978,-16.890378952026367,19.0499324798584,-3.1149868965148926,2.429029703140259
0,194980,-7.6663947105407715,2.3928472995758057,-5.412813186645508,23.52962303161621
0,194982,16.346494674682617,-10.538708686828613,4.9258952140808105,-15.22245979309082
0,194984,-6.414210796356201,-0.010933900251984596,21.051443099975586,1.346832036972046
0,194986,-0.6008781790733337,-2.5632922649383545,-12.777730941772461,12.882137298583984
0,194988,1.9627240896224976,-17.80385398864746,-9.959602355957031,-4.140782356262207
0,194990,-3.5909645557403564,-4.176551818847656,14.143146514892578,1.4759687185287476
0,194993,3.1112453937530518,13.364615440368652,-6.224370002746582,2.089876174926758
0,194994,-7.2267961502075195,1.7811923027038574,-6.858654022216797,-8.937192916870117
0,194997,11.151144981384277,-4.51439094543457,6.322645664215088,-13.634865760803223
0,194998,2.8271307945251465,8.972451210021973,-9.438541412353516,-8.09524917602539
0,195001,-12.43922233581543,-12.29995059967041,-11.327689170837402,2.9754676818847656
0,195002,2.0198681354522705,-9.938554763793945,1.6210603713989258,12.034659385681152
0,195005,5.205533027648926,35.90428161621094,7.5632710456848145,-4.1631011962890625
0,195006,0.1869010031223297,-15.261307716369629,6.344160556793213,5.514089584350586
0,195009,-2.168665885925293,-15.094440460205078,-10.682555198669434,-0.7369555830955505
0,195085,11.778523445129395,34.518890380859375,-12.038633346557617,-22.397106170654297
0,195085,-16.404661178588867,-30.8901309967041,-2.029536008834839,13.648577690124512
0,195085,10.59568977355957,0.7284079194068909,16.568296432495117,2.6296193599700928
0,195085,36.86661911010742,12.405054092407227,4.161716461181641,-13.304160118103027
0,195085,-22.21695899963379,-28.327777862548828,-8.826719284057617,14.375292778015137
0,195085,-17.545949935913086,11.71590805053711,21.489376068115234,16.251068115234375
0,195086,6.2386298179626465,-0.49043259024620056,18.361127853393555,2.8954739570617676
0,195086,0.5834121108055115,5.934396743774414,-6.618011474609375,1.6030752658843994
0,195086,-4.218059539794922,15.892016410827637,-13.937711715698242,-4.120138645172119
0,195086,5.822121620178223,-22.529590606689453,-8.625892639160156,-30.145545959472656
0,195086,-4.184838771820068,2.7988619804382324,-2.3946945667266846,13.805782318115234
0,195086,-33.17048645019531,26.945209503173828,4.135254383087158,25.007049560546875
0,195087,14.344075202941895,-4.426774024963379,3.005995035171509,-31.829980850219727
0,195087,36.920310974121094,-9.555930137634277,2.706864595413208,6.4292402267456055
0,195087,-18.844194412231445,10.172435760498047,4.350133419036865,24.42251968383789
0,195087,-7.7933197021484375,-11.0785551071167,-17.109649658203125,-12.706476211547852
0,195087,26.772369384765625,-13.722408294677734,-5.2334489822387695,-7.984690189361572
0,195087,-10.748767852783203,1.4704411029815674,19.14909553527832,-5.529549598693848
0,195088,-17.217805862426758,2.021958827972412,7.296994209289551,16.888683319091797
0,195088,14.419734954833984,7.5151448249816895,-7.477733135223389,1.5418084859848022
0,195088,5.488096714019775,-9.315084457397461,-9.113015174865723,-16.408924102783203
0,195088,-13.884353637695312,16.506662368774414,4.585890769958496,22.82745933532715
0,195088,-14.579286575317383,29.007200241088867,-0.6792202591896057,-8.238179206848145
0,195089,1.99809992313385,-12.069519996643066,-11.52509880065918,-14.226810455322266
0,195089,-0.6564621925354004,-27.090911865234375,2.527979850769043,-0.11123792827129364
0,195089,12.221237182617188,-2.5204522609710693,10.706609725952148,1.4767818450927734
0,195089,16.4698429107666,21.306360244750977,1.8014016151428223,12.306004524230957
0,195089,-6.230798244476318,-1.4955192804336548,-17.079063415527344,-14.262744903564453
0,195089,-1.45287024974823,-8.166526794433594,-7.393154144287109,6.231851577758789
0,195090,-9.446475982666016,6.560030937194824,10.275635719299316,10.677733421325684
0,195090,-1.4023517370224,-6.913085460662842,-7.1842193603515625,-17.974149703979492
0,195090,7.867978572845459,-7.392327308654785,10.242165565490723,-2.813497543334961
0,195090,-0.5555028319358826,0.7677329778671265,14.524571418762207,18.019855499267578
0,195090,-2.7432291507720947,-9.759604454040527,-4.411588191986084,4.697483539581299
0,195090,1.2846425771713257,-1.0505785942077637,3.766930103302002,-8.288917541503906
0,195091,0.7793285846710205,10.991321563720703,-15.171571731567383,-13.695581436157227
0,195091,-18.537267684936523,4.57064962387085,-10.700386047363281,-7.423884391784668
0,195091,-3.092223882675171,3.897839307785034,14.449605941772461,1.9544799327850342
0,195092,19.145709991455078,-6.972833156585693,1.6819807291030884,12.845827102661133
0,195092,11.955337524414062,-8.757282257080078,0.7656674385070801,35.042198181152344
0,195093,0.41555845737457275,-0.6458585262298584,20.714345932006836,-6.178399562835693
0,195093,0.601122260093689,-1.468043565750122,-0.557005763053894,-34.29160690307617
0,195094,4.469544410705566,-4.286783218383789,-27.525510787963867,6.606940746307373
0,195095,-21.448881149291992,4.510425567626953,-10.524353981018066,21.01541519165039
0,195098,-36.138057708740234,24.783302307128906,14.533449172973633,-35.653804779052734
0,195099,8.328207969665527,-9.6525297164917,15.449979782104492,-23.446884155273438
0,195102,38.57912063598633,-29.112422943115234,-16.616106033325195,39.583003997802734
0,195103,-4.467291831970215,13.110651016235352,-0.020713012665510178,-1.73479163646698
0,195106,-3.2024242877960205,8.952239036560059,19.289466857910156,-31.988895416259766
0,195107,12.5314359664917,-4.50655460357666,-13.523170471191406,-0.9212114214897156
0,195110,-18.318294525146484,3.3268837928771973,-5.610832214355469,36.18400955200195
0,195111,1.7695448398590088,0.08698707818984985,8.683858871459961,38.925392150878906
0,195114,12.943737030029297,1.255449652671814,5.192558288574219,-21.798503875732422
0,195115,7.259184837341309,25.833648681640625,-16.44359016418457,-25.471431732177734
0,195118,1.4857348203659058,-1.832503080368042,2.8199303150177,38.71263885498047
0,195119,-8.060396194458008,-16.096435546875,18.916038513183594,6.648308277130127
0,195122,2.9580941200256348,27.960161209106445,-18.338285446166992,-40.93583679199219
0,195123,6.626347541809082,-23.551929473876953,-2.736816883087158,-3.5403599739074707
0,195126,-24.200721740722656,-19.612525939941406,1.233302354812622,0.33205005526542664
0,195214,-19.262144088745117,10.613157272338867,-4.59307336807251,-5.602967739105225
0,195214,22.83804702758789,-16.515522003173828,5.058269500732422,-5.808786392211914
0,195215,-12.579755783081055,18.673248291015625,9.8904447555542,-3.2172257900238037
0,195215,4.8817267417907715,32.95599365234375,9.02435302734375,-2.532496929168701
0,195215,46.16436767578125,-17.93716049194336,-11.391471862792969,5.859433174133301
0,195215,-35.445091247558594,-33.91428756713867,5.894604682922363,39.24485778808594
0,195215,-35.34064483642578,11.157756805419922,7.019559383392334,3.988029956817627
0,195216,46.093238830566406,2.215059995651245,-13.619813919067383,-24.265222549438477
0,195216,8.441821098327637,-7.673202037811279,-5.301822185516357,-11.091511726379395
0,195216,-23.769777297973633,8.998635292053223,-6.7903971672058105,0.10973501950502396
0,195216,-13.536165237426758,-9.034786224365234,5.960682392120361,15.017099380493164
0,195216,-0.6982523798942566,0.6553869247436523,18.788955688476562,12.272128105163574
0,195216,18.568004608154297,10.939671516418457,-2.982248306274414,-14.641273498535156
0,195217,5.526916980743408,1.534031629562378,-12.374478340148926,-26.10605812072754
0,195217,15.810100555419922,1.0911941528320312,-9.42774772644043,5.2078423500061035
0,195217,-6.430512428283691,-1.3092609643936157,4.81665563583374,15.954566955566406
0,195217,-32.14409637451172,-7.709040641784668,18.168212890625,0.6311393976211548
0,195217,17.621675491333008,-2.535770893096924,-14.82167911529541,-2.969125747680664
0,195217,18.735483169555664,15.436629295349121,-12.25943660736084,7.048031806945801
0,195218,-19.617647171020508,7.049962997436523,22.014429092407227,8.346919059753418
0,195218,-1.58943510055542,-5.690258026123047,-1.527283787727356,-4.906623840332031
0,195218,4.484284400939941,-11.81200885772705,-18.99077033996582,-6.087286472320557
0,195218,-11.09351921081543,-2.1019399166107178,7.2463884353637695,6.876314163208008
0,195218,12.50802993774414,23.703420639038086,-6.98472261428833,3.0281870365142822
0,195218,9.05281925201416,-24.022489547729492,-21.669065475463867,-22.03786277770996
0,195219,-31.98657989501953,-36.876766204833984,17.55852508544922,-15.321398735046387
0,195219,1.8072359561920166,29.88433074951172,19.953096389770508,21.98746681213379
0,195219,22.761157989501953,18.965011596679688,-4.266520977020264,-1.1266080141067505
0,195219,-4.990665435791016,-17.286312103271484,-2.770378589630127,-25.708965301513672
0,195219,-1.0770821571350098,-0.6228675842285156,8.255231857299805,29.6533203125
0,195219,-17.2575740814209,18.510969161987305,-5.322448253631592,14.813179016113281
0,195220,3.5725443363189697,-5.871509075164795,-12.603377342224121,-30.258440017700195
0,195220,26.451631546020508,-18.020462036132812,9.007922172546387,2.880805730819702
0,195220,-12.369032859802246,4.213346004486084,10.227221488952637,27.119409561157227
0,195220,-12.850627899169922,1.425796389579773,-9.910078048706055,-2.759390354156494
0,195220,-8.929876327514648,-4.497091293334961,-5.11952543258667,-13.060267448425293
0,195220,-0.9390204548835754,5.085784912109375,2.946099281311035,9.41583251953125
0,195221,14.646411895751953,9.067209243774414,4.890707969665527,15.466629981994629
0,195221,10.595451354980469,2.0900750160217285,18.206321716308594,-12.868590354919434
0,195221,0.642620325088501,11.165945053100586,-13.936531066894531,-30.744892120361328
0,195221,-4.525233745574951,3.6231284141540527,2.441179037094116,40.400333404541016
0,195221,28.598047256469727,-4.852355003356934,15.349119186401367,2.6165266036987305
0,195221,-24.364469528198242,-10.066092491149902,-23.44924545288086,-53.8751335144043
0,195222,-23.003324508666992,-16.450754165649414,20.644371032714844,26.563434600830078
0,195223,59.65574264526367,7.349264621734619,-5.799488544464111,33.29083251953125
0,195223,-11.17216968536377,11.697171211242676,-35.04189682006836,-22.338481903076172
0,195223,-27.561241149902344,12.445984840393066,20.770004272460938,-25.338987350463867
0,195223,19.57851219177246,-19.2896728515625,-1.4776328802108765,25.72633171081543
0,195225,-7.919919967651367,-13.402273178100586,-1.060035228729248,22.063535690307617
0,195226,-18.472347259521484,20.124727249145508,11.835453033447266,-14.838311195373535
0,195227,-20.7254581451416,-14.376025199890137,-10.151755332946777,-11.309171676635742
0,195230,12.23648452758789,3.684481382369995,12.67975902557373,-6.2333550453186035
0,195231,17.63511085510254,28.436975479125977,14.3851900100708,10.26374626159668
0,195234,-23.40681266784668,-8.553719520568848,-19.380645751953125,20.51665687561035
0,195235,15.806389808654785,-12.836054801940918,-10.057018280029297,-15.904781341552734
0,195238,23.420448303222656,12.249210357666016,14.82898235321045,-12.97804069519043
0,195239,-16.62353515625,-5.956681728363037,11.57337760925293,10.49676513671875
0,195242,-5.196418285369873,-29.407426834106445,-10.396917343139648,-8.196361541748047
0,195243,12.974578857421875,15.282343864440918,-27.348169326782227,-12.977998733520508
0,195246,-1.8136845827102661,37.17637634277344,-23.867855072021484,3.6019206047058105
0,195248,-11.786893844604492,-24.680973052978516,-5.894554615020752,6.919180870056152
0,195250,-1.775106430053711,-23.79242706298828,34.21662902832031,-18.545686721801758
0,195252,-17.59126853942871,17.722049713134766,19.518735885620117,-27.7116756439209
0,195254,14.386181831359863,-3.675386667251587,-14.552534103393555,31.819000244140625
0,195256,32.8780517578125,-10.963785171508789,2.1170153617858887,36.67599105834961
0,195258,-13.222407341003418,15.67398738861084,25.758031845092773,-23.02631378173828
0,195357,-17.249967575073242,47.61138153076172,14.01550579071045,15.849828720092773
0,195357,-8.557732582092285,21.844402313232422,-6.329379081726074,26.287729263305664
0,195357,17.1906681060791,-41.628421783447266,-2.5677402019500732,-21.425216674804688
0,195357,16.070480346679688,-17.076683044433594,-14.606715202331543,-7.147477149963379
0,195357,-18.166210174560547,4.207005023956299,-8.462578773498535,9.774412155151367
0,195358,7.123185157775879,-21.422571182250977,-5.780494213104248,-9.211991310119629
0,195358,-0.7580353021621704,-10.468439102172852,-2.962493658065796,-7.6677632331848145
0,195358,-29.55756378173828,-3.5309505462646484,14.819401741027832,6.286030292510986
0,195358,12.344246864318848,2.3267133235931396,-14.785079956054688,-11.917400360107422
0,195358,6.137951374053955,1.391801118850708,-28.092735290527344,-2.802180290222168
0,195358,-18.740671157836914,-12.559334754943848,13.156452178955078,27.525691986083984
0,195359,1.057411789894104,10.861349105834961,14.223238945007324,-1.6129803657531738
0,195359,23.25928497314453,21.65390396118164,-5.146376132965088,-26.300643920898438
0,195359,12.79191780090332,-7.262967109680176,7.614578723907471,-15.116004943847656
0,195359,-14.647781372070312,-27.000205993652344,6.5235981941223145,4.270444869995117
0,195359,4.159532070159912,6.897518157958984,2.786865234375,13.722504615783691
0,195359,3.7580251693725586,26.453859329223633,-1.5075870752334595,7.17555046081543
0,195360,-1.548435091972351,2.4588816165924072,-6.47797966003418,0.994378924369812
0,195360,5.858458518981934,8.155854225158691,8.522549629211426,-17.2005615234375
0,195360,6.902909278869629,-0.05260821431875229,2.6859891414642334,-17.42894744873047
0,195360,-18.7228946685791,-24.469167709350586,-17.966068267822266,10.020965576171875
0,195360,-21.323823928833008,-18.433320999145508,-3.4572768211364746,31.707233428955078
0,195360,18.02370834350586,26.656320571899414,15.667778015136719,3.65995192527771
0,195361,14.60226821899414,14.882905006408691,-2.615464687347412,-26.508655548095703
0,195361,5.232139587402344,-17.589574813842773,-6.713297367095947,0.43849292397499084
0,195361,-14.657245635986328,14.558459281921387,10.951679229736328,24.314382553100586
0,195361,-4.522604465484619,9.295475959777832,3.385768413543701,6.878442764282227
0,195361,20.673519134521484,4.28127384185791,-9.470542907714844,-14.33708381652832
0,195361,-11.469880104064941,-10.777200698852539,-23.354753494262695,-2.272963047027588
0,195362,-22.522048950195312,-36.75179672241211,-9.791666984558105,-7.684646129608154
0,195362,0.375955194234848,10.44321060180664,35.69432067871094,-10.764272689819336
0,195362,19.845462799072266,24.142606735229492,14.726421356201172,2.8319754600524902
0,195362,6.941169738769531,-9.855308532714844,-24.40833854675293,-8.806085586547852
0,195362,-27.69511604309082,-7.533815383911133,7.207248687744141,-6.471928596496582
0,195363,-5.649620056152344,5.083659648895264,15.527785301208496,13.822930335998535
0,195363,22.09791374206543,11.534262657165527,-13.062775611877441,8.318647384643555
0,195363,2.8895182609558105,-4.181222438812256,-2.6418955326080322,-23.48020362854004
0,195363,-7.923710823059082,-13.647872924804688,-4.061039447784424,-12.842369079589844
0,195363,-6.741359710693359,9.75859260559082,-11.66899585723877,27.3528995513916
0,195363,2.3913354873657227,-0.34606054425239563,17.18817138671875,17.265939712524414
0,195364,22.933635711669922,-2.476787567138672,10.557126998901367,-29.838401794433594
0,195364,-5.623983860015869,7.681457042694092,-16.911779403686523,4.126974582672119
0,195364,-32.42167663574219,-20.80148696899414,3.713524341583252,48.910404205322266
0,195364,14.398714065551758,2.7384145259857178,10.75964069366455,-18.31851577758789
0,195364,11.883105278015137,23.50990867614746,-14.880819320678711,-7.105350494384766
0,195364,-5.191091537475586,-1.1216375827789307,1.859492301940918,28.321779251098633
0,195365,16.4773006439209,-1.8475960493087769,3.2818655967712402,-22.55307960510254
0,195365,-10.654521942138672,-13.020333290100098,8.485723495483398,13.738241195678711
0,195365,-12.264286994934082,16.995716094970703,29.184814453125,14.381365776062012
0,195366,14.014034271240234,18.859758377075195,-15.449982643127441,-45.66564178466797
0,195366,-0.8403087258338928,-56.09019088745117,-28.9907283782959,-1.8053275346755981
0,195366,1.7767658233642578,4.4926438331604,-9.429939270019531,30.992250442504883
0,195367,14.794023513793945,58.02409362792969,8.134679794311523,-15.052438735961914
0,195367,-3.5244803428649902,-28.04744529724121,21.71009063720703,-15.600083351135254
0,195368,-3.353567600250244,-10.753080368041992,1.0979851484298706,8.634964942932129
0,195369,1.3001818656921387,28.082237243652344,1.647039771080017,-13.39614200592041
0,195372,-10.943000793457031,-1.679334282875061,-5.132946014404297,8.79650592803955
0,195373,-31.306970596313477,-11.328383445739746,-12.941490173339844,17.141929626464844
0,195376,7.024121284484863,-40.22489547729492,8.963685035705566,22.417890548706055
0,195377,60.568668365478516,0.934552788734436,7.6577959060668945,55.71255111694336
0,195380,2.0033812522888184,64.08780670166016,0.4306555390357971,-87.28009796142578
0,195381,-24.45278549194336,0.5571167469024658,-64.0025863647461,-114.00821685791016
0,195384,-20.82393455505371,-42.31410598754883,-13.508761405944824,72.81380462646484
0,195386,-20.11013412475586,3.231726884841919,110.73889923095703,115.89886474609375
0,195388,26.118196487426758,-16.144287109375,-8.958990097045898,-17.143831253051758
0,195390,-4.217435836791992,-52.02415466308594,-67.3923110961914,-94.56182861328125
0,195392,-15.829755783081055,43.98085403442383,14.109315872192383,6.136556625366211
0,195394,16.363319396972656,65.4614028930664,23.680580139160156,16.408628463745117
0,195396,-11.997745513916016,-32.29716110229492,-6.33668327331543,-0.39438939094543457
0,195398,15.753060340881348,-12.716570854187012,-2.18473219871521,22.564260482788086
0,195400,-1.820307731628418,-49.99729537963867,-5.902275085449219,33.12904357910156
0,195402,-42.90726852416992,-20.223419189453125,-9.503186225891113,21.20096206665039
0,195404,32.10629653930664,120.30155181884766,37.49857711791992,-78.67798614501953
0,195406,56.91604995727539,12.140804290771484,-6.191506385803223,-40.458106994628906
0,195516,-9.68881607055664,-79.82025909423828,-25.34778594970703,41.74156188964844
0,195516,-62.31199264526367,-19.789358139038086,4.659806251525879,19.74681282043457
0,195516,-15.834405899047852,20.58208465576172,-9.816120147705078,3.362577438354492
0,195516,39.190101623535156,25.08876609802246,5.993727207183838,6.802390098571777
0,195516,16.065561294555664,10.677969932556152,35.41386795043945,11.097664833068848
0,195516,-0.2145075649023056,-7.168762683868408,0.4850016236305237,-13.532662391662598
0,195516,-30.156831741333008,-17.361003875732422,-32.05631637573242,-6.15764856338501
0,195517,-31.361684799194336,9.16710090637207,25.572675704956055,28.58909034729004
0,195517,37.771724700927734,4.823789119720459,17.2681941986084,5.408875465393066
0,195517,17.56413459777832,-5.583901405334473,-45.248199462890625,-29.488075256347656
0,195517,-9.482117652893066,8.551111221313477,-2.1816844940185547,-7.459314823150635
0,195517,9.852740287780762,3.0932838916778564,20.8229923248291,-1.5134371519088745
0,195518,11.51748275756836,3.452745199203491,-30.577978134155273,-15.947150230407715
0,195518,4.962233543395996,3.019651412963867,-0.7195624113082886,5.219101905822754
0,195518,-16.666034698486328,12.213582992553711,32.743770599365234,-36.04658889770508
0,195518,-14.587894439697266,-20.25435447692871,-22.614974975585938,-27.315322875976562
0,195518,-17.238073348999023,-41.05827713012695,-13.256725311279297,47.42839050292969
0,195518,-1.0871984958648682,15.63796615600586,35.48788070678711,33.301151275634766
0,195519,21.443626403808594,21.853559494018555,-13.062023162841797,2.6892459392547607
0,195519,6.321116924285889,-3.1780271530151367,-10.72275447845459,-19.55146026611328
0,195519,9.593109130859375,5.039440155029297,20.2716064453125,-17.512969970703125
0,195519,-6.921243667602539,-5.932198524475098,-35.75770568847656,28.872276306152344
0,195519,-30.77507972717285,-18.505353927612305,-4.015951156616211,21.71615982055664
0,195519,7.719326019287109,11.413521766662598,41.22408676147461,-16.154438018798828
0,195520,11.463275909423828,25.060649871826172,-1.1096131801605225,-4.456944942474365
0,195520,3.154550075531006,-6.022933006286621,-4.992027759552002,-5.54274845123291
0,195520,-15.066304206848145,-15.926852226257324,-6.1076273918151855,-6.655927658081055
0,195520,-6.75831937789917,8.38333797454834,7.629963397979736,6.466536998748779
0,195520,62.071868896484375,-4.6545023918151855,21.488672256469727,-6.299346446990967
0,195521,-13.81097412109375,-13.297361373901367,-19.0484619140625,14.54541301727295
0,195521,-53.87936019897461,25.90781593322754,-10.739725112915039,18.75652503967285
0,195521,35.81904602050781,-2.9001235961914062,-2.213634490966797,-29.190059661865234
0,195521,20.63926887512207,-8.124690055847168,4.572397232055664,-7.132482528686523
0,195521,-19.575300216674805,23.940752029418945,33.685707092285156,22.174612045288086
0,195521,-6.242736339569092,-27.425384521484375,-12.709868431091309,-25.78655242919922
0,195522,15.725695610046387,-1.22660493850708,-41.138275146484375,-21.03270149230957
0,195522,21.953140258789062,14.117650985717773,22.16063117980957,18.766416549682617
0,195522,-7.889281272888184,-17.916337966918945,19.666351318359375,2.348007917404175
0,195522,-30.358842849731445,27.596111297607422,-32.845401763916016,3.2502102851867676
0,195522,-20.473766326904297,2.2660601139068604,-10.741647720336914,23.42372703552246
0,195522,10.62007999420166,-48.367557525634766,17.374797821044922,24.123912811279297
0,195523,18.921924591064453,7.82917594909668,10.080443382263184,-23.03583526611328
0,195523,9.966865539550781,39.95784378051758,-13.367341995239258,-36.21349334716797
0,195523,-18.620344161987305,-10.913736343383789,0.36272290349006653,25.10415267944336
0,195523,-18.383249282836914,-25.93494987487793,12.901287078857422,-0.060321610420942307
0,195523,15.309449195861816,-3.8306264877319336,-6.806563377380371,-1.4433715343475342
0,195523,-22.45932388305664,19.898040771484375,-3.629537582397461,47.73418045043945
0,195524,7.923637390136719,31.033140182495117,0.42489850521087646,-21.10518455505371
0,195524,34.33069610595703,-16.649288177490234,7.3858537673950195,-45.510189056396484
0,195524,-37.27770233154297,-16.632505416870117,11.834558486938477,16.10393524169922
0,195524,-14.504247665405273,22.466096878051758,22.362398147583008,-6.461978435516357
0,195524,47.694400787353516,-11.89963150024414,-13.182321548461914,-1.4673120975494385
0,195524,8.880843162536621,-23.79952049255371,-40.62544631958008,20.481027603149414
0,195525,-20.682628631591797,3.8565826416015625,11.872444152832031,-40.102622985839844
0,195525,-12.888110160827637,-8.26220989227295,3.1736934185028076,-4.261598587036133
0,195526,2.785832405090332,-23.34217071533203,-11.525016784667969,30.355850219726562
0,195526,30.24715805053711,21.658206939697266,10.37762451171875,-19.438777923583984
0,195526,-13.755221366882324,23.350425720214844,10.564020156860352,18.882841110229492
0,195526,-21.202232360839844,-12.707229614257812,-2.8005387783050537,44.46058654785156
0,195527,15.202437400817871,9.879573822021484,-12.112357139587402,-17.398025512695312
0,195528,38.467750549316406,17.54559326171875,47.7370491027832,-18.19589614868164
0,195529,4.869658946990967,-3.9591007232666016,-10.781193733215332,1.0343936681747437
0,195532,-90.30794525146484,-12.77563190460205,-84.99332427978516,-21.65263557434082
0,195533,1.3931312561035156,26.678112030029297,41.547786712646484,10.08198356628418
0,195536,84.96697998046875,-10.760757446289062,74.98119354248047,44.180599212646484
0,195537,-32.70762252807617,-37.113765716552734,-28.963708877563477,-26.591766357421875
0,195540,6.522064208984375,19.391712188720703,-72.70012664794922,-42.0284423828125
0,195541,37.32088088989258,-20.024858474731445,14.641295433044434,40.09149932861328
0,195544,-68.25981140136719,-14.222009658813477,21.76187515258789,-2.7006587982177734
0,195546,-16.397994995117188,40.19825744628906,-28.996976852416992,-56.316158294677734
0,195548,35.27108383178711,3.0950562953948975,20.26218032836914,14.628945350646973
0,195655,-5.6901021003723145,-45.85396194458008,8.983628273010254,63.55144500732422
0,195655,7.231372833251953,13.86313247680664,0.18394498527050018,13.245335578918457
0,195655,15.886194229125977,41.30130386352539,0.14896416664123535,-30.493555068969727
0,195655,-9.39227294921875,-10.496639251708984,-7.761813163757324,-6.64208459854126
0,195655,-3.1661601066589355,-6.021177291870117,15.293574333190918,-5.473883152008057
0,195655,-8.970592498779297,11.11326789855957,8.725497245788574,-19.603960037231445
0,195656,-16.209524154663086,3.78279185295105,-11.900717735290527,-5.847535133361816
0,195656,17.556419372558594,-22.189895629882812,-9.832554817199707,5.159063816070557
0,195656,5.775627136230469,-23.685924530029297,9.02922248840332,14.188342094421387
0,195656,-28.562076568603516,18.002220153808594,3.5261170864105225,5.124786853790283
0,195656,2.7861950397491455,34.412071228027344,1.2667689323425293,-23.85799789428711
0,195657,19.164628982543945,-23.745834350585938,-16.183582305908203,2.185208797454834
0,195657,0.8876322507858276,-29.723344802856445,2.558123826980591,24.558565139770508
0,195657,-7.507237911224365,29.58226776123047,21.056440353393555,10.424665451049805
0,195657,3.5804026126861572,15.398665428161621,-6.238092422485352,-0.837827742099762
0,195657,14.57940673828125,-1.856907844543457,7.332790374755859,-19.57651710510254
0,195657,-6.205941200256348,2.0840911865234375,-5.35323429107666,0.33710914850234985
0,195658,-7.441479206085205,-18.129100799560547,-12.625245094299316,14.076715469360352
0,195658,2.8209309577941895,-2.0360372066497803,3.530155658721924,0.27796417474746704
0,195658,3.9562695026397705,12.41799545288086,-0.9796518683433533,-3.387132167816162
0,195658,17.24801254272461,-9.736580848693848,3.524637460708618,-26.62877655029297
0,195658,13.095312118530273,-10.168124198913574,2.952087879180908,-0.7271296381950378
0,195658,-20.250774383544922,-9.389571189880371,6.493381500244141,49.58285903930664
0,195659,-17.953630447387695,2.1070609092712402,1.6672612428665161,2.0266172885894775
0,195659,4.6793036460876465,10.886804580688477,-17.52971076965332,-33.974639892578125
0,195659,-6.224277973175049,-18.886960983276367,3.845116376876831,-13.660143852233887
0,195659,-2.9111738204956055,-3.0977399349212646,17.32286262512207,21.30161476135254
0,195659,8.854551315307617,22.017301559448242,0.7280687689781189,30.800540924072266
0,195659,-1.5718634128570557,11.123778343200684,-4.8102569580078125,-29.767765045166016
0,195660,-5.406523704528809,-6.073991775512695,-12.513603210449219,-18.364961624145508
0,195660,0.06082445755600929,-10.41295337677002,-8.43114185333252,34.85490798950195
0,195660,-7.077544212341309,21.285533905029297,21.230758666992188,-18.68363380432129
0,195660,-2.676903247833252,5.007636070251465,1.5324560403823853,-19.900304794311523
0,195660,0.7182570695877075,-20.567710876464844,-46.76595687866211,32.96595001220703
0,195660,8.735315322875977,28.256267547607422,1.061179280281067,-21.028818130493164
0,195661,13.269926071166992,-0.7676754593849182,44.81313705444336,-15.571701049804688
0,195661,6.665450572967529,-37.495365142822266,-5.878854751586914,48.07236862182617
0,195661,6.299228191375732,27.37830924987793,-15.657774925231934,-3.5289158821105957
0,195661,-17.068750381469727,15.180594444274902,5.093324184417725,-44.91193389892578
0,195661,-15.877297401428223,-39.00704574584961,-6.54227352142334,12.065312385559082
0,195662,-0.31538572907447815,-0.497469425201416,18.130693435668945,27.83819007873535
0,195662,15.313915252685547,31.648601531982422,18.877416610717773,-24.100265502929688
0,195662,17.504940032958984,3.735304117202759,-41.82878494262695,-14.801960945129395
0,195662,-13.75759220123291,-3.424744129180908,-0.19386155903339386,24.52412986755371
0,195662,-3.425412178039551,4.029182434082031,42.30769348144531,6.014899253845215
0,195662,-0.9567381739616394,-1.882723331451416,-25.881567001342773,-22.882184982299805
0,195663,-14.333887100219727,-11.786751747131348,-27.795984268188477,4.812900066375732
0,195663,20.913883209228516,7.704064846038818,10.427696228027344,18.134519577026367
0,195663,-13.992201805114746,-11.988037109375,22.128843307495117,17.62395668029785
0,195663,-22.444486618041992,-11.719366073608398,7.78316068649292,17.941898345947266
0,195663,51.993228912353516,29.845291137695312,-11.640355110168457,-45.52641296386719
0,195663,7.586945056915283,-23.93949317932129,-3.611534595489502,-12.39039421081543
0,195664,-39.675235748291016,2.3174076080322266,9.902180671691895,31.012128829956055
0,195665,1.9884870052337646,37.85411834716797,0.8168039321899414,-15.058091163635254
0,195665,1.7355594635009766,-29.715600967407227,-17.43853759765625,4.111008644104004
0,195665,0.5841847062110901,-1.1857932806015015,1.6432901620864868,6.706492900848389
0,195665,-1.5893322229385376,43.251644134521484,1.585452914237976,-13.263669967651367
0,195665,-19.114397048950195,-7.7413787841796875,0.9244985580444336,-2.4621126651763916
0,195667,29.055694580078125,-5.604397773742676,24.691253662109375,-10.069684028625488
0,195668,-0.3942421078681946,-18.68454360961914,-11.21019458770752,-4.260759353637695
0,195669,-29.73053550720215,-89.30000305175781,-38.76241683959961,4.646409511566162
0,195672,31.695556640625,-9.3595552444458,12.864079475402832,-6.906348705291748
0,195673,14.52367115020752,70.11688995361328,24.00528907775879,-12.32524299621582
0,195676,-22.806058883666992,16.748653411865234,1.1228351593017578,31.883150100708008
0,195677,-13.24621868133545,-23.2615966796875,11.760185241699219,39.77404022216797
0,195680,18.699115753173828,-0.5447894334793091,-6.2406463623046875,-18.538604736328125
0,195681,19.916709899902344,-0.7085310816764832,-17.29483985900879,-11.687090873718262
0,195684,1.1810097694396973,-7.860891819000244,8.668133735656738,5.505324840545654
0,195685,11.838467597961426,17.64338493347168,-6.711202621459961,-15.038764953613281
0,195688,-23.681055068969727,22.87270736694336,-16.85947608947754,-14.189428329467773
0,195689,-28.61459732055664,-0.8608922362327576,13.235654830932617,17.04227638244629
0,195692,19.19116973876953,-6.420289039611816,6.331419467926025,33.15121841430664
0,195693,-11.736316680908203,16.046066284179688,-17.655189514160156,-16.27008819580078
0,195696,-4.880674839019775,-8.665881156921387,8.62318229675293,-56.24339294433594
0,195697,19.901643753051758,-15.333298683166504,16.120609283447266,-6.4196295738220215
0,195700,-5.642364978790283,-17.6943302154541,-27.121801376342773,21.135108947753906
0,195701,8.630386352539062,-17.806812286376953,-0.9240024089813232,9.181147575378418
0,195704,12.394993782043457,39.14106369018555,39.617088317871094,32.36314392089844
0,195821,-24.91599464416504,25.433290481567383,-0.33881232142448425,3.3248958587646484
0,195821,-31.069486618041992,-22.243053436279297,-18.016841888427734,-32.51906204223633
0,195821,25.517440795898438,1.972065806388855,2.308487892150879,6.214444637298584
0,195821,34.592002868652344,9.6769380569458,-10.204900741577148,2.870800495147705
0,195822,-18.710968017578125,-17.289979934692383,6.33262300491333,2.945744752883911
0,195822,-24.645727157592773,-6.09698486328125,19.36362075805664,16.889728546142578
0,195822,11.072461128234863,8.54946231842041,-16.014389038085938,-22.71146011352539
0,195822,25.382869720458984,10.017926216125488,-14.072525024414062,-11.662918090820312
0,195822,-14.917223930358887,-8.643109321594238,-1.0446761846542358,29.142972946166992
0,195822,-15.898024559020996,-31.412555694580078,-4.176668643951416,7.731021404266357
0,195823,13.440436363220215,9.624811172485352,9.974723815917969,-19.420560836791992
0,195823,2.2771804332733154,33.492835998535156,14.03847599029541,0.4672025740146637
0,195823,16.033613204956055,-8.328733444213867,-2.195176601409912,7.720056056976318
0,195823,-2.8354544639587402,-22.26164436340332,3.290586233139038,13.331952095031738
0,195823,-14.87994384765625,20.24453353881836,1.0607471466064453,-3.8698878288269043
0,195823,2.9195730686187744,9.145489692687988,-17.992013931274414,-15.89877700805664
0,195824,-22.84900665283203,-16.4604434967041,9.869011878967285,-1.2732044458389282
0,195824,13.0555419921875,14.662603378295898,20.673656463623047,-22.186777114868164
0,195824,36.16440200805664,-8.514322280883789,-29.25870132446289,-12.26476764678955
0,195824,-14.39976692199707,-25.833446502685547,-28.03927993774414,1.0051592588424683
0,195824,-35.168399810791016,-0.6609295606613159,28.97638511657715,12.53565788269043
0,195824,-0.6484763026237488,18.933427810668945,20.75797462463379,23.114625930786133
0,195825,35.89500045776367,17.02937126159668,-13.468399047851562,-1.0252244472503662
0,195825,-8.63036060333252,-8.690044403076172,-3.1902360916137695,18.642227172851562
0,195825,-23.602453231811523,3.250336170196533,3.533179998397827,5.971080780029297
0,195825,27.311256408691406,6.230550289154053,-4.739853382110596,-26.939258575439453
0,195825,11.496853828430176,-15.901237487792969,-14.58699893951416,3.243191957473755
0,195826,-21.43391990661621,9.442110061645508,7.494072914123535,-10.122326850891113
0,195826,-2.5100667476654053,14.019411087036133,30.711654663085938,-12.240017890930176
0,195826,3.996049404144287,-32.6207275390625,-15.064382553100586,6.675361156463623
0,195826,-7.217301368713379,-6.5153303146362305,-19.21915626525879,1.3377511501312256
0,195826,-0.949137806892395,36.992919921875,10.092629432678223,12.687564849853516
0,195826,6.981532096862793,-15.061180114746094,-2.9844727516174316,8.586372375488281
0,195827,5.746469974517822,-16.80234146118164,3.690218925476074,-12.250534057617188
0,195827,-8.958162307739258,16.34168243408203,0.178958460688591,-11.012343406677246
0,195827,-5.681373596191406,-24.693897247314453,-3.821723461151123,2.6038312911987305
0,195827,-1.066319227218628,-0.8400322794914246,3.309588670730591,11.09037971496582
0,195827,-14.34060287475586,42.32117462158203,10.437539100646973,11.812280654907227
0,195827,23.76865577697754,-1.7683011293411255,1.4907017946243286,-3.29482364654541
0,195828,5.886622428894043,-21.70966339111328,-14.06330680847168,1.9437094926834106
0,195828,-35.32872772216797,1.9901008605957031,-1.3487282991409302,3.15830397605896
0,195828,31.28041648864746,9.133357048034668,9.918944358825684,-28.956729888916016
0,195828,11.464963912963867,-16.864816665649414,-2.8985543251037598,-17.369232177734375
0,195828,-21.61517906188965,-5.665646076202393,-11.163931846618652,33.214595794677734
0,195828,21.681133270263672,37.60265350341797,18.347686767578125,-0.715114951133728
0,195829,-4.019890308380127,1.044843077659607,7.437977313995361,-8.189382553100586
0,195829,-21.691064834594727,-41.227882385253906,-22.143569946289062,19.386362075805664
0,195829,19.112829208374023,-8.369115829467773,16.394777297973633,-8.10940933227539
0,195829,20.22178840637207,35.18548583984375,7.698391914367676,-1.1462056636810303
0,195829,-41.147220611572266,10.740839958190918,-30.46181869506836,-3.593348741531372
0,195829,-22.039989471435547,-32.8889045715332,3.4072372913360596,-1.9894927740097046
0,195830,18.221118927001953,-8.967225074768066,18.606510162353516,9.813688278198242
0,195830,16.403390884399414,35.5956916809082,4.187651634216309,-22.058744430541992
0,195830,27.0097713470459,-11.922591209411621,-11.998557090759277,-20.88587760925293
0,195830,-14.24184513092041,-41.72129821777344,-29.069894790649414,30.82575035095215
0,195830,-42.95917510986328,36.21638107299805,20.329513549804688,28.99922752380371
0,195830,8.389945030212402,26.644880294799805,32.14189529418945,-28.307723999023438
0,195831,28.23683738708496,-36.53969955444336,-49.54180908203125,-30.906389236450195
0,195832,11.46603775024414,1.4140007495880127,0.39079007506370544,34.097389221191406
0,195832,4.169295310974121,23.295732498168945,59.05424118041992,32.45542526245117
0,195832,-22.947280883789062,-6.851654529571533,-19.839956283569336,-25.857168197631836
0,195832,-1.594740867614746,3.9597861766815186,-12.099282264709473,-1.7768073081970215
0,195833,23.877843856811523,15.812500953674316,12.413603782653809,6.4827775955200195
0,195833,-5.941580295562744,-10.402252197265625,-22.655778884887695,-10.363122940063477
0,195834,-24.972902297973633,-19.138463973999023,7.0400004386901855,11.124022483825684
0,195835,1.734174370765686,2.270735740661621,21.20707893371582,-10.834382057189941
0,195838,17.15944480895996,-3.6610662937164307,-17.90699005126953,-8.929253578186035
0,195839,5.847230911254883,5.61672830581665,-28.05518913269043,7.835165023803711
0,195842,-12.42423152923584,-2.1100640296936035,7.151576995849609,14.340007781982422
0,195843,-22.633413314819336,-13.423890113830566,31.438156127929688,14.445866584777832
0,195846,-7.359118461608887,15.895530700683594,11.285074234008789,-44.7076416015625
0,195847,18.078628540039062,8.501065254211426,-21.342269897460938,-30.016197204589844
0,195850,23.963397979736328,-10.983661651611328,-28.1912899017334,46.940711975097656
0,195851,-23.730161666870117,-0.35916879773139954,18.836637496948242,15.016958236694336
0,195854,-18.61798095703125,25.627517700195312,21.339763641357422,-27.29453468322754
0,195855,21.127975463867188,-3.27314829826355,-20.828697204589844,25.074018478393555
0,195858,8.049919128417969,-28.399158477783203,-7.995377063751221,16.37720489501953
0,195859,4.9513654708862305,1.1109797954559326,7.088299751281738,-39.00870132446289
0,195862,20.60387420654297,7.593756198883057,3.106046199798584,-31.92654037475586
0,195863,5.416187763214111,5.555652141571045,12.172945022583008,25.320755004882812
0,195866,-24.056074142456055,-9.573445320129395,-6.194587707519531,44.32673645019531
0,195867,-7.990456581115723,-28.70846939086914,-29.210466384887695,-10.248006820678711
0,195870,0.4021337628364563,26.710763931274414,28.120939254760742,-15.933347702026367
0,195871,2.086078643798828,36.031089782714844,35.385684967041016,-16.686119079589844
0,195874,17.88933753967285,-21.07998275756836,-31.64327621459961,3.1713836193084717
0,196001,-6.855796813964844,-9.085569381713867,-7.429196834564209,7.261260032653809
0,196001,-33.33017349243164,-7.052225589752197,9.912195205688477,-29.99949836730957
0,196002,1.7349125146865845,9.98141860961914,-10.460830688476562,23.489702224731445
0,196002,32.83100891113281,26.83082389831543,11.627898216247559,11.978843688964844
0,196002,-8.536282539367676,-22.069780349731445,-8.378618240356445,-38.908897399902344
0,196002,-20.608715057373047,-9.61755657196045,-19.21807098388672,28.872011184692383
0,196002,10.050299644470215,-1.8305555582046509,5.798335075378418,21.60935401916504
0,196002,15.31985855102539,-20.9162540435791,-53.41008377075195,-33.67117691040039
0,196003,9.515499114990234,10.291730880737305,5.48554801940918,25.401716232299805
0,196003,-17.484901428222656,20.635417938232422,108.7728500366211,24.32277488708496
0,196003,-25.550565719604492,5.876653671264648,-30.44560432434082,-42.75709915161133
0,196003,5.682043552398682,-26.828481674194336,-58.78057098388672,0.8156037926673889
0,196003,-2.095344066619873,-23.191089630126953,45.30313491821289,41.781856536865234
0,196003,1.9876281023025513,36.24436569213867,26.141223907470703,-2.146984577178955
0,196004,22.50012969970703,10.893170356750488,-14.9462308883667,-10.9273681640625
0,196004,-1.6122188568115234,-16.778003692626953,-7.1676836013793945,-9.62105655670166
0,196004,-0.5071194767951965,15.54840087890625,11.811511039733887,-21.45701026916504
0,196004,-10.541275978088379,-3.32910418510437,-9.91407299041748,6.514500617980957
0,196004,-21.862384796142578,-21.326099395751953,-9.365967750549316,23.394018173217773
0,196004,42.47154235839844,0.7729302048683167,1.5851179361343384,-0.8918087482452393
0,196005,6.46914005279541,11.945101737976074,3.6947431564331055,-6.054304122924805
0,196005,-32.49515914916992,1.8701013326644897,12.71091079711914,13.894100189208984
0,196005,25.219388961791992,11.902235984802246,-17.782011032104492,-16.507654190063477
0,196005,-6.780481815338135,3.443437099456787,-23.58036994934082,-29.06758689880371
0,196005,-12.480841636657715,-18.589406967163086,19.252361297607422,21.441268920898438
0,196005,13.609086036682129,11.046720504760742,11.565572738647461,-1.9948006868362427
0,196006,8.386667251586914,7.391193389892578,-15.515056610107422,-12.23933219909668
0,196006,-8.893010139465332,-15.941512107849121,9.456195831298828,32.42496109008789
0,196006,-8.362327575683594,7.9104108810424805,12.550182342529297,-9.670727729797363
0,196006,12.84252643585205,6.144865036010742,-19.44968032836914,-21.68301010131836
0,196006,-16.126968383789062,-7.751755237579346,3.6070947647094727,23.06344223022461
0,196006,3.3752212524414062,5.299518585205078,18.567729949951172,-9.965572357177734
0,196007,10.055002212524414,1.9969037771224976,2.689777135848999,-6.271012783050537
0,196007,-17.776241302490234,-6.405399322509766,1.4651960134506226,35.869590759277344
0,196007,17.26799774169922,6.0692853927612305,-17.309131622314453,5.926804542541504
0,196007,2.7366368770599365,-1.4897369146347046,8.386507034301758,-12.185954093933105
0,196007,-26.304109573364258,-6.397094249725342,20.855663299560547,-6.969636917114258
0,196007,11.774065017700195,3.2921953201293945,-21.895912170410156,-10.585326194763184
0,196008,24.482738494873047,-3.3751015663146973,-40.046966552734375,-29.362260818481445
0,196008,-22.29288673400879,-3.756422996520996,-6.987949371337891,-13.839325904846191
0,196008,-17.919614791870117,-15.367454528808594,43.79890441894531,47.33403778076172
0,196008,26.742338180541992,-13.731061935424805,2.186805248260498,-18.17563247680664
0,196008,0.8975457549095154,37.919349670410156,-39.94745635986328,-49.137020111083984
0,196008,-24.698989868164062,24.997882843017578,19.938053131103516,58.59975051879883
0,196009,2.923677444458008,-23.632841110229492,21.382417678833008,30.867055892944336
0,196009,-6.005550861358643,-19.78438377380371,-14.066082000732422,-36.49665451049805
0,196009,-11.613689422607422,-3.6749165058135986,17.6818904876709,-2.0508928298950195
0,196009,37.79264831542969,12.43293285369873,-9.40117073059082,15.75310230255127
0,196009,17.74324607849121,-5.076016426086426,-28.915250778198242,2.2461142539978027
0,196010,-18.173053741455078,-5.654834747314453,25.152063369750977,-0.5268974900245667
0,196010,-0.06355395168066025,16.291515350341797,5.974039554595947,7.955316066741943
0,196010,2.5924224853515625,17.573427200317383,-24.487133026123047,-4.614477634429932
0,196010,-12.608332633972168,-13.457425117492676,11.8375244140625,-13.31335163116455
0,196010,16.901464462280273,-8.626972198486328,11.391033172607422,9.628636360168457
0,196010,6.413930892944336,17.472679138183594,-25.031818389892578,-10.8209867477417
0,196011,-35.462074279785156,-13.328954696655273,-6.442643165588379,-24.778385162353516
0,196011,-8.203264236450195,0.749625027179718,19.384811401367188,7.001978397369385
0,196011,25.12546730041504,-6.235348701477051,22.53923225402832,35.43404006958008
0,196011,24.643678665161133,-2.322255849838257,-2.5931484699249268,-12.077653884887695
0,196011,-23.89725685119629,24.788530349731445,-14.123615264892578,-42.41557693481445
0,196011,-7.0724287033081055,-2.008923053741455,12.215919494628906,21.282163619995117
0,196012,11.954602241516113,-4.582528114318848,-5.959757328033447,9.50063419342041
0,196012,-18.442453384399414,-24.142879486083984,-11.44521427154541,-1.0601307153701782
0,196013,7.483649253845215,-5.386772632598877,8.775094032287598,30.368961334228516
0,196013,27.463804244995117,22.571409225463867,4.980363368988037,3.813953399658203
0,196013,13.614834785461426,3.820129632949829,-1.1178159713745117,-26.442943572998047
0,196014,-20.2288875579834,-3.41731333732605,-6.235744953155518,-13.886452674865723
0,196014,-31.47586441040039,-0.5096336007118225,6.951681613922119,26.048126220703125
0,196014,2.1874332427978516,3.7340662479400635,16.618051528930664,11.6506929397583
0,196015,16.75743293762207,-8.482695579528809,-25.680715560913086,-13.190889358520508
0,196016,5.053256511688232,3.8891258239746094,-31.904708862304688,2.5321645736694336
0,196018,5.137862682342529,-1.513880729675293,12.29725170135498,-22.911073684692383
0,196020,-20.405189514160156,-31.310518264770508,20.204116821289062,-26.043596267700195
0,196022,-27.438148498535156,-5.411168575286865,-5.070173263549805,28.130786895751953
0,196024,28.278379440307617,17.070438385009766,-7.539847373962402,34.82746505737305
0,196026,18.737972259521484,5.80341100692749,2.807342290878296,-18.071279525756836
0,196028,-9.745827674865723,12.485757827758789,-2.5794267654418945,-6.434237957000732
0,196030,3.351749897003174,2.9364020824432373,9.181694030761719,20.43708610534668
0,196033,-14.895147323608398,-13.92656135559082,22.717178344726562,-10.959145545959473
0,196034,-8.618181228637695,2.300185441970825,-15.63164234161377,-8.963287353515625
0,196037,19.878864288330078,4.508696556091309,-19.870920181274414,-0.9158308506011963
0,196038,19.802295684814453,10.340840339660645,26.3809871673584,-0.5960375666618347
0,196041,0.10439993441104889,12.824943542480469,9.712750434875488,8.725170135498047
0,196042,-17.04068946838379,-22.065645217895508,-13.949731826782227,-18.1110897064209
0,196045,-22.06715202331543,-13.961837768554688,-14.84390640258789,-19.158084869384766
0,196046,11.460075378417969,25.326696395874023,9.146417617797852,17.111055374145508
0,196049,29.409648895263672,14.2265625,16.722618103027344,23.400272369384766
0,196050,-28.373559951782227,-8.96126937866211,-17.786815643310547,-10.332635879516602
0,196053,-6.654974460601807,-0.218545600771904,-2.1811296939849854,-12.878215789794922
0,196054,33.301326751708984,-16.897005081176758,1.6942968368530273,16.763599395751953
0,196057,-24.54494285583496,-18.046340942382812,-7.801743984222412,18.888154983520508
0,196058,-30.4692325592041,11.136332511901855,13.140015602111816,5.851001262664795
0,196059,21.965423583984375,12.959647178649902,-4.2759222984313965,-36.605064392089844
0,196199,30.022743225097656,9.868718147277832,-2.2155818939208984,-10.896127700805664
0,196200,6.228700637817383,-17.83121109008789,17.556798934936523,22.342273712158203
0,196200,-21.626220703125,-24.52189064025879,-8.157517433166504,-15.271737098693848
0,196200,-13.32111644744873,-3.1948225498199463,-19.819847106933594,-7.23068904876709
0,196200,4.814730167388916,16.051530838012695,12.814445495605469,29.972761154174805
0,196200,-7.6951446533203125,25.425275802612305,8.952166557312012,-6.2244873046875
0,196200,0.8456103801727295,-6.9874796867370605,-25.16364860534668,-30.126705169677734
0,196201,6.966971397399902,-20.239604949951172,1.379956603050232,21.39798927307129
0,196201,1.6534926891326904,13.600363731384277,18.498157501220703,15.844901084899902
0,196201,9.730570793151855,22.98240089416504,1.19353187084198,-15.130288124084473
0,196201,3.713681697845459,-14.073224067687988,1.731581211090088,-3.786620616912842
0,196201,-19.709455490112305,-1.725304365158081,-11.153059005737305,22.7532901763916
0,196201,-6.173183441162109,22.659223556518555,-8.548303604125977,2.06311297416687
0,196202,18.31183624267578,-3.1858577728271484,12.872156143188477,-36.962181091308594
0,196202,-1.695773720741272,-16.834087371826172,3.6573076248168945,-2.0979793071746826
0,196202,-14.300024032592773,-17.84284210205078,-7.888617515563965,15.858528137207031
0,196202,-5.969687461853027,-2.684020757675171,7.297083854675293,4.620541095733643
0,196202,15.747145652770996,6.813953399658203,10.031757354736328,10.486793518066406
0,196202,24.434507369995117,7.492555618286133,-21.013227462768555,-2.1956589221954346
0,196203,-14.171859741210938,8.186188697814941,-11.106987953186035,-3.1883466243743896
0,196203,-8.41974925994873,-11.920120239257812,22.335878372192383,3.314460515975952
0,196203,2.3063459396362305,-18.6342830657959,1.0681232213974,-4.296029567718506
0,196203,-25.26846694946289,3.338632583618164,-7.803066253662109,1.1790310144424438
0,196203,22.21885108947754,25.290203094482422,5.009266376495361,-1.6165369749069214
0,196203,21.01433563232422,-0.5202216506004333,-7.844214916229248,-5.194395065307617
0,196204,-32.39570236206055,-9.936577796936035,1.9337352514266968,-3.3511428833007812
0,196204,18.898021697998047,27.17402458190918,18.109329223632812,-9.31755542755127
0,196204,20.699132919311523,-16.002277374267578,-6.827791213989258,13.757757186889648
0,196204,-32.649749755859375,-25.497055053710938,-8.481280326843262,14.276169776916504
0,196204,-0.5363566875457764,34.929813385009766,9.163769721984863,-24.90995216369629
0,196204,12.83311653137207,4.828216075897217,-20.588714599609375,-25.27678680419922
0,196205,-14.929222106933594,-23.651691436767578,4.622719764709473,33.30337905883789
0,196205,17.217737197875977,7.250967979431152,29.514463424682617,15.726184844970703
0,196205,34.97216033935547,12.95947265625,-24.5910587310791,-27.770326614379883
0,196205,-40.59536361694336,-39.94929504394531,-1.7332040071487427,21.964576721191406
0,196205,-37.84130096435547,-10.294049263000488,13.624999046325684,4.067520618438721
0,196205,46.792423248291016,44.64986038208008,-24.31431007385254,-14.8862943649292
0,196206,14.606778144836426,-17.31696891784668,3.0978903770446777,26.453258514404297
0,196206,-37.09065246582031,-17.3289852142334,8.136198043823242,-15.542067527770996
0,196206,4.695769786834717,24.643247604370117,-5.505403995513916,-23.407785415649414
0,196206,3.6867074966430664,7.891839504241943,9.18582534790039,30.081859588623047
0,196206,-19.955530166625977,-7.933415412902832,9.750229835510254,6.114940166473389
0,196206,23.048053741455078,-3.9769067764282227,13.386564254760742,-38.91193389892578
0,196207,-1.101803183555603,27.364154815673828,-16.94966697692871,-2.9394466876983643
0,196207,-4.724122524261475,-0.8802260160446167,-32.99356460571289,29.642135620117188
0,196207,31.125154495239258,-33.14616394042969,15.138712882995605,0.4860454499721527
0,196207,-6.508418083190918,21.220165252685547,25.57533073425293,-5.195352554321289
0,196207,2.0171005725860596,6.159021377563477,10.31801986694336,-9.753470420837402
0,196208,-4.323264122009277,-11.365556716918945,1.4782017469406128,-12.805505752563477
0,196208,-16.790300369262695,7.157276153564453,-21.124591827392578,10.587181091308594
0,196208,3.8057281970977783,-28.821063995361328,-11.492384910583496,7.4188361167907715
0,196208,-1.8754616975784302,-15.766386985778809,11.812183380126953,11.49881362915039
0,196208,17.287782669067383,36.93513107299805,5.175391674041748,-9.392221450805664
0,196208,3.11592435836792,0.983024001121521,-17.10697364807129,-26.37164878845215
0,196209,-45.229610443115234,-28.700830459594727,8.93375015258789,34.63465881347656
0,196209,-19.823986053466797,17.62331771850586,13.741083145141602,13.489751815795898
0,196209,31.74106788635254,7.915489196777344,-23.8024959564209,-26.056276321411133
0,196209,13.503864288330078,-11.053702354431152,2.199800968170166,13.450100898742676
0,196209,-0.010603643953800201,-6.774221897125244,14.979437828063965,7.718462944030762
0,196209,9.372762680053711,-1.999884843826294,-4.052804470062256,-26.657894134521484
0,196210,-16.455671310424805,17.043935775756836,1.6347001791000366,7.677403926849365
0,196210,-11.112544059753418,3.9592947959899902,-0.643131673336029,23.154468536376953
0,196210,9.559856414794922,0.6626032590866089,-15.209671974182129,-34.19963836669922
0,196210,6.68794584274292,-1.2564029693603516,-4.8502326011657715,2.269357681274414
0,196210,0.26268890500068665,-6.811919212341309,19.174163818359375,31.696443557739258
0,196210,-7.411124229431152,-0.9023820161819458,13.492162704467773,-29.806522369384766
0,196211,11.534078598022461,-5.153542995452881,-17.580286026000977,-25.715198516845703
0,196211,11.835740089416504,15.777599334716797,-12.9639310836792,7.244773864746094
0,196211,-21.678377151489258,-3.570472240447998,11.850826263427734,23.2011775970459
0,196211,-18.542238235473633,-11.391329765319824,0.2587776184082031,14.641032218933105
0,196212,3.777439594268799,11.452409744262695,-6.353349685668945,-11.608007431030273
0,196212,16.73877716064453,-3.5700509548187256,-6.9385986328125,-3.190739154815674
0,196213,7.531880855560303,-18.108200073242188,-0.5413686633110046,1.5585767030715942
0,196213,-10.112065315246582,-22.759098052978516,18.908138275146484,1.7570736408233643
0,196213,-1.518351674079895,22.914453506469727,1.0078805685043335,10.452823638916016
0,196213,4.343329906463623,33.75447082519531,-7.427413463592529,1.5527995824813843
0,196214,0.11761429905891418,-26.527828216552734,12.137593269348145,0.16726334393024445
0,196216,6.193498611450195,-9.288118362426758,-0.9349895119667053,-9.156429290771484
0,196218,1.495816707611084,42.01435089111328,-33.543609619140625,-20.417848587036133
0,196220,2.9835543632507324,0.15833158791065216,8.74948787689209,11.702876091003418
0,196223,-2.750173807144165,-31.219409942626953,36.33402633666992,20.93160057067871
0,196224,-1.7079466581344604,6.130932807922363,-21.820219039916992,-9.428459167480469
0,196227,-3.3167731761932373,0.34470435976982117,-24.809673309326172,-14.138338088989258
0,196228,-12.723000526428223,-5.221553325653076,19.86798667907715,3.3466668128967285
0,196231,7.3532395362854,7.5358405113220215,13.018975257873535,4.878893852233887
0,196232,4.996253490447998,0.7038223147392273,-15.984292030334473,-10.826915740966797
0,196235,9.827783584594727,21.332962036132812,22.683979034423828,21.132789611816406
0,196236,-7.9253010749816895,-21.831119537353516,2.916065216064453,14.768872261047363
0,196239,-32.013404846191406,-27.355587005615234,-22.900821685791016,-25.10411834716797
0,196240,6.7067389488220215,25.367252349853516,35.78695297241211,-2.0631566047668457
0,196243,34.2466926574707,1.0882573127746582,-21.93203353881836,-4.809957027435303
0,196244,14.82724380493164,-7.225684642791748,-38.18464660644531,0.3281647861003876
0,196247,-12.853967666625977,6.936952590942383,39.547550201416016,0.8063033819198608
0,196248,-9.621779441833496,-10.890609741210938,-1.8725407123565674,2.3113114833831787
0,196249,12.000802993774414,14.36740493774414,-28.82952117919922,-0.5338948965072632
0,196252,-12.508942604064941,20.981197357177734,25.396154403686523,-5.850628852844238
0,196253,-8.096039772033691,-25.534042358398438,11.017013549804688,29.466951370239258
0,196256,20.798009872436523,-1.4368104934692383,-18.44365882873535,-22.087820053100586
0,196257,-17.76738929748535,9.733681678771973,2.3900392055511475,-24.757062911987305
0,196407,-12.674756050109863,-22.216550827026367,7.7885308265686035,53.21665573120117
0,196407,29.228221893310547,7.371802806854248,4.910661220550537,-3.2418243885040283
0,196407,-0.8651231527328491,22.344892501831055,-15.352240562438965,-36.3386116027832
0,196407,-16.780893325805664,-17.722904205322266,-22.159456253051758,7.282275676727295
0,196407,10.228799819946289,-7.466198444366455,27.835180282592773,14.320061683654785
0,196407,5.988820552825928,11.80174732208252,19.582643508911133,-2.284842014312744
0,196408,-9.952688217163086,4.09094762802124,-26.856327056884766,-18.334747314453125
0,196408,-12.538805961608887,-11.392922401428223,1.1879984140396118,6.105721950531006
0,196408,8.228232383728027,5.06919002532959,20.83234977722168,6.417634010314941
0,196408,12.664922714233398,16.12424659729004,-16.671436309814453,-9.003559112548828
0,196408,-4.572630882263184,-4.76224422454834,-5.615670680999756,10.593713760375977
0,196408,-20.455347061157227,-7.299004077911377,31.111013412475586,22.681396484375
0,196409,-4.789954662322998,10.691474914550781,-8.189685821533203,-13.065900802612305
0,196409,18.113140106201172,2.6912643909454346,-21.330860137939453,-9.712440490722656
0,196409,-8.131619453430176,-31.87688446044922,1.1979789733886719,21.31644058227539
0,196409,-12.435181617736816,9.811542510986328,4.626768589019775,-8.536426544189453
0,196409,3.3439621925354004,12.10067367553711,-8.164959907531738,-19.984783172607422
0,196409,1.7463465929031372,-34.64547348022461,-17.379554748535156,-8.832551002502441
0,196410,4.319533348083496,9.376693725585938,7.5056633949279785,8.962505340576172
0,196410,4.132181644439697,27.831186294555664,10.097024917602539,3.111049175262451
0,196410,16.13287925720215,-10.679616928100586,-10.761404037475586,-18.476768493652344
0,196410,10.878564834594727,-18.097578048706055,-7.166685104370117,9.381863594055176
0,196410,-28.085548400878906,-7.689244747161865,23.527231216430664,20.36016273498535
0,196411,2.9392237663269043,39.584754943847656,29.29745864868164,-5.694194316864014
0,196411,23.210824966430664,24.520936965942383,5.761609077453613,-25.751821517944336
0,196411,-1.5619697570800781,-28.56626319885254,-30.3027286529541,-8.200626373291016
0,196411,-1.2900569438934326,-3.6380176544189453,-20.934566497802734,33.922359466552734
0,196411,-32.25890350341797,2.387115955352783,16.93119239807129,9.527813911437988
0,196411,4.418952465057373,8.182823181152344,-4.916543960571289,-15.494524002075195
0,196412,36.33364486694336,4.6626081466674805,-11.422150611877441,22.587045669555664
0,196412,-26.54412078857422,-18.030256271362305,24.514314651489258,-7.674703121185303
0,196412,-3.564548969268799,-8.785636901855469,-0.6684842705726624,-27.299001693725586
0,196412,19.4155330657959,0.983160138130188,-17.962493896484375,12.421882629394531
0,196412,-20.506010055541992,-1.1545995473861694,13.577884674072266,3.413817882537842
0,196412,2.2190518379211426,-5.634284496307373,-10.221346855163574,-10.732200622558594
0,196413,11.045197486877441,4.392063617706299,-14.802420616149902,0.8791694641113281
0,196413,-11.062200546264648,16.975900650024414,29.230667114257812,24.82002067565918
0,196413,-0.7834810018539429,-2.1835217475891113,14.986209869384766,-7.508774757385254
0,196413,-0.6145997643470764,-14.441363334655762,-27.113534927368164,-29.303518295288086
0,196413,-3.733588695526123,-5.634648323059082,-5.10141134262085,25.855911254882812
0,196413,0.033812932670116425,-2.3867311477661133,33.33151626586914,15.756855964660645
0,196414,17.18610382080078,23.697973251342773,-8.41069221496582,-26.88763427734375
0,196414,12.726404190063477,21.48922348022461,-22.489578247070312,-2.46284818649292
0,196414,-30.09916114807129,-21.527441024780273,0.777154266834259,16.440080642700195
0,196414,1.2319749593734741,0.38640856742858887,-4.243829250335693,-9.8300199508667
0,196414,34.78656005859375,8.365342140197754,18.47956657409668,-7.73512601852417
0,196414,-8.967604637145996,-23.06202507019043,5.795360088348389,11.838977813720703
0,196415,-11.567201614379883,-9.851494789123535,-14.051301956176758,-2.4871180057525635
0,196415,1.6575920581817627,3.2668204307556152,-1.598779559135437,-1.3068103790283203
0,196415,-32.58503723144531,13.82176399230957,6.371247291564941,13.318521499633789
0,196415,7.21999454498291,-2.0078487396240234,5.517673492431641,-4.285491466522217
0,196415,35.79896926879883,-13.979368209838867,-4.217228412628174,0.3429505228996277
0,196415,-13.243547439575195,16.451536178588867,-1.6686711311340332,-4.114780902862549
0,196416,-4.566060543060303,2.170285224914551,8.111882209777832,-15.957685470581055
0,196416,-10.454521179199219,-24.741043090820312,10.231611251831055,36.44635772705078
0,196416,-1.7981013059616089,22.31003189086914,1.488590121269226,17.902790069580078
0,196416,22.597896575927734,22.35361671447754,-24.290264129638672,-41.31434631347656
0,196416,-0.15010549128055573,-24.272430419921875,-13.332598686218262,-10.140536308288574
0,196417,1.2494690418243408,6.284786701202393,21.93503761291504,-7.2094268798828125
0,196417,-2.6201953887939453,4.744019031524658,4.712498188018799,-7.150766849517822
0,196417,-6.583364009857178,-17.827388763427734,-0.32669827342033386,28.71025276184082
0,196417,15.701606750488281,29.103673934936523,-8.450653076171875,-14.925093650817871
0,196417,-10.108969688415527,2.4297776222229004,-23.244691848754883,-7.86044979095459
0,196417,-19.82628059387207,-28.593143463134766,-2.5962893962860107,25.042308807373047
0,196417,19.397409439086914,-2.9874539375305176,3.2232298851013184,-8.593878746032715
0,196418,-11.776382446289062,0.8748301267623901,9.234357833862305,1.9651336669921875
0,196418,-8.443465232849121,16.39652442932129,11.112366676330566,-8.369172096252441
0,196418,23.827829360961914,-9.852583885192871,-4.606420040130615,1.5939353704452515
0,196418,-11.917871475219727,-15.148028373718262,-0.9299911260604858,31.743183135986328
0,196418,-13.241583824157715,9.289372444152832,-9.182489395141602,-16.650360107421875
0,196418,10.861382484436035,-22.634849548339844,1.0780787467956543,-6.622744083404541
0,196419,16.610652923583984,4.132145404815674,28.067020416259766,11.431029319763184
0,196419,4.517028331756592,44.21704864501953,-16.773164749145508,-15.83893871307373
0,196419,-26.634838104248047,-16.142675399780273,-20.27530860900879,17.791650772094727
0,196420,9.027727127075195,-20.166715621948242,23.671161651611328,8.1567964553833
0,196420,37.48221969604492,7.258254528045654,4.388538837432861,-37.4725456237793
0,196421,-15.311243057250977,0.736842930316925,-10.216442108154297,-8.888742446899414
0,196421,-23.120136260986328,24.327198028564453,7.874430179595947,28.531164169311523
0,196421,6.091752529144287,4.820116996765137,4.520891189575195,-6.110086917877197
0,196421,6.328347682952881,-29.354677200317383,-17.928401947021484,-6.674711227416992
0,196421,-9.809670448303223,4.2091779708862305,3.832425594329834,16.38112449645996
0,196423,-0.3450004756450653,12.774572372436523,15.271692276000977,-12.087535858154297
0,196424,-23.014314651489258,-13.864729881286621,-14.017080307006836,1.159119725227356
0,196425,-17.709928512573242,3.0225298404693604,1.5745577812194824,-4.203793048858643
0,196428,33.9648551940918,0.49274498224258423,5.573821067810059,-3.6947860717773438
0,196429,-0.4265451431274414,-17.529621124267578,-10.507880210876465,5.2845635414123535
0,196432,-11.762286186218262,24.85403823852539,8.820913314819336,1.9427660703659058
0,196433,16.79685401916504,22.620412826538086,13.836967468261719,23.9816837310791
0,196436,13.581549644470215,-29.12263298034668,-4.852731704711914,-16.935821533203125
0,196437,5.506107807159424,-5.026266574859619,-5.067243576049805,-19.520156860351562
0,196440,-11.101651191711426,13.079192161560059,-0.08435535430908203,21.164684295654297
0,196441,-22.980865478515625,0.9772998094558716,-14.094968795776367,0.9859756231307983
0,196444,15.084434509277344,18.201189041137695,-3.1499035358428955,-16.488122940063477
0,196445,22.63583755493164,-13.12342357635498,14.869267463684082,8.455140113830566
0,196448,-21.951107025146484,-38.16007614135742,0.034585028886795044,7.596027374267578
0,196449,3.9907212257385254,19.3483829498291,14.1375732421875,-4.758238792419434
0,196452,1.0445404052734375,15.14021110534668,14.208331108093262,12.231411933898926
0,196453,-37.07167434692383,-5.421162128448486,-23.10472869873047,-2.974992036819458
0,196456,21.337478637695312,10.790833473205566,-18.05095672607422,-2.483614683151245
0,196458,44.23818588256836,-6.797767162322998,4.767503261566162,19.80834197998047
0,196460,-16.380495071411133,-12.511640548706055,14.462911605834961,-5.93496561050415
0,196462,-25.347814559936523,-1.8869634866714478,-11.04971981048584,-30.482206344604492
0,196464,18.674468994140625,14.0043363571167,-23.858274459838867,-20.116859436035156
0,196466,4.3022589683532715,-2.615950345993042,16.36433982849121,16.269044876098633
0,196468,-19.195730209350586,-13.752326965332031,8.969998359680176,17.593076705932617
1,197876,6.725867748260498,-3.978433132171631,-16.526657104492188,-15.740152359008789
1,197878,-12.05040454864502,-21.443342208862305,-4.655797004699707,8.500743865966797
1,197880,-4.267940521240234,-7.270717144012451,6.40989875793457,14.559487342834473
1,197882,29.62029457092285,53.50545120239258,11.197973251342773,-9.567152976989746
1,197884,-15.094178199768066,32.55278015136719,-0.7839351892471313,-9.038922309875488
1,197886,-14.531654357910156,-26.07075309753418,11.942747116088867,-2.5817313194274902
1,197888,25.939838409423828,-6.755814075469971,7.312381744384766,-7.337409496307373
1,197890,-1.0153905153274536,5.603271007537842,-17.82381248474121,4.4415202140808105
1,197892,-16.705791473388672,-7.089200973510742,17.730445861816406,38.20859909057617
1,197894,13.010689735412598,-11.340929985046387,2.2287557125091553,-4.677677631378174
1,197906,9.5515718460083,-0.7287246584892273,-18.235960006713867,-32.21152114868164
1,197906,-21.6180477142334,-6.12930154800415,8.811955451965332,1.5387688875198364
1,197906,-8.276103019714355,-4.4166154861450195,-6.612652778625488,0.5134207606315613
1,197907,3.1362035274505615,-6.453356742858887,5.424592971801758,-3.267374277114868
1,197907,5.821484565734863,-5.419799327850342,10.164508819580078,4.0929789543151855
1,197907,7.42500638961792,12.201742172241211,-29.53877830505371,2.2413675785064697
1,197908,-10.583626747131348,-3.522552967071533,-21.095909118652344,-7.03095006942749
1,197910,-9.854268074035645,1.7234207391738892,29.13917350769043,18.3267765045166
1,197912,25.965158462524414,20.608003616333008,28.750852584838867,5.090694904327393
1,197914,25.935874938964844,16.16294288635254,-18.908533096313477,-16.746843338012695
1,197916,-19.402687072753906,4.344301223754883,-26.33877182006836,17.20203971862793
1,197918,-5.510941505432129,-7.134516716003418,-0.3716716170310974,-14.86355972290039
1,197920,12.379430770874023,-11.422563552856445,14.001324653625488,-26.604846954345703
1,197922,-9.246533393859863,-7.252806663513184,9.87834358215332,15.752347946166992
1,197924,-8.218976020812988,-6.730314254760742,0.5983073711395264,9.52987289428711
1,197926,-1.8049699068069458,-2.9388651847839355,4.9231085777282715,13.113957405090332
1,197928,-6.289599895477295,4.66995906829834,-7.68087911605835,-1.5256763696670532
1,197930,1.8458964824676514,6.820410251617432,8.164209365844727,-3.98585844039917
1,197955,2.9947500228881836,-6.044260501861572,13.275516510009766,14.265846252441406
1,197956,-15.32595443725586,-12.454085350036621,-23.175561904907227,-15.255753517150879
1,197956,-3.1178901195526123,13.835780143737793,5.647449493408203,-2.796816110610962
1,197956,22.003625869750977,-0.5934774875640869,2.220670223236084,-5.32839298248291
1,197956,-10.276747703552246,-12.083203315734863,-12.294305801391602,7.1442108154296875
1,197956,-12.564559936523438,15.81600284576416,11.155953407287598,26.351953506469727
1,197956,17.509910583496094,0.4365573823451996,-4.403855323791504,-23.19103240966797
1,197957,3.389984369277954,-3.8927175998687744,-8.31027889251709,-6.951211929321289
1,197957,-3.6487209796905518,15.8600492477417,10.59062671661377,14.144379615783691
1,197957,12.228215217590332,11.680753707885742,0.35664790868759155,-31.027313232421875
1,197957,-2.246230125427246,-21.03899383544922,-15.432378768920898,-13.121682167053223
1,197957,-16.096158981323242,-26.644987106323242,15.093999862670898,20.914520263671875
1,197957,12.826031684875488,13.740456581115723,6.385247707366943,9.04906940460205
1,197959,13.855314254760742,13.312971115112305,-18.978408813476562,4.626201152801514
1,197960,-11.32803726196289,0.32019421458244324,0.20440755784511566,-0.6633327007293701
1,197961,-8.569815635681152,8.243443489074707,-4.058200359344482,-4.817955493927002
1,197964,14.021212577819824,-8.352540016174316,22.22356414794922,-7.333796977996826
1,197965,-3.7521703243255615,-15.789033889770508,10.906341552734375,-21.23361587524414
1,197968,-27.104555130004883,8.767976760864258,-36.38201141357422,4.715563774108887
1,197969,5.732391357421875,22.772655487060547,1.3097038269042969,42.056663513183594
1,197972,11.695582389831543,-6.057725429534912,18.173160552978516,-2.4019734859466553
1,197973,-9.026704788208008,-2.4632086753845215,-11.186823844909668,-22.465961456298828
1,197976,3.1644744873046875,15.36674690246582,-4.815941333770752,12.795832633972168
1,197977,5.234626293182373,-7.365159034729004,20.53975486755371,3.636549472808838
1,197980,-1.2609052658081055,-2.100024461746216,6.920494079589844,-0.7228054404258728
1,197981,10.008164405822754,-19.147972106933594,-4.466527938842773,1.7971570491790771
1,198020,-6.806245803833008,-28.826143264770508,-7.755843639373779,3.2251670360565186
1,198020,-23.750595092773438,9.436708450317383,-19.393709182739258,21.489879608154297
1,198021,18.1962947845459,10.4567289352417,18.462989807128906,-14.116310119628906
1,198021,29.59832191467285,-22.10969352722168,16.183591842651367,-27.40233612060547
1,198021,-16.987762451171875,-7.4474196434021,-22.042186737060547,11.432373046875
1,198021,-23.308340072631836,35.13750457763672,-5.368485450744629,25.996971130371094
1,198021,2.428260326385498,21.371856689453125,9.525208473205566,-5.492294788360596
1,198021,12.253500938415527,-29.571453094482422,-1.0783979892730713,-29.66845703125
1,198022,1.3738449811935425,-17.583961486816406,-4.931294918060303,-4.778835773468018
1,198022,-19.640291213989258,33.720664978027344,7.443374156951904,9.538487434387207
1,198022,1.7933188676834106,8.9676513671875,-1.752647042274475,-1.267090916633606
1,198022,29.462276458740234,-10.753744125366211,-0.38425570726394653,-6.678997039794922
1,198022,3.2952237129211426,28.844343185424805,4.168798446655273,15.037510871887207
1,198022,-13.635259628295898,2.7088232040405273,-6.900644779205322,2.028327226638794
1,198023,0.44858884811401367,-41.5330696105957,1.4803128242492676,-7.987565994262695
1,198023,6.319056034088135,7.633545875549316,14.786112785339355,0.28349927067756653
1,198023,-0.1974586546421051,22.275876998901367,17.871198654174805,-14.882414817810059
1,198023,5.014489650726318,-7.885499477386475,-17.428844451904297,8.064278602600098
1,198023,-2.3112359046936035,-1.4520140886306763,-12.91181755065918,8.263504981994629
1,198025,-14.334131240844727,-6.906875133514404,17.568286895751953,-12.473640441894531
1,198025,4.144613742828369,-5.185492992401123,-6.98969030380249,6.620347499847412
1,198026,-10.0459623336792,5.8340744972229,-19.391462326049805,14.545906066894531
1,198027,-23.901325225830078,-11.326753616333008,0.5700055360794067,-10.431357383728027
1,198030,4.849798202514648,-16.885486602783203,11.348843574523926,-15.456281661987305
1,198031,35.4027099609375,10.81177806854248,-10.430463790893555,7.627780914306641
1,198034,6.8617167472839355,19.207151412963867,-0.27361613512039185,0.42289188504219055
1,198035,-25.548791885375977,-7.360870838165283,12.056512832641602,-5.178819179534912
1,198038,14.806111335754395,-20.671247482299805,0.14876046776771545,5.671403884887695
1,198039,23.479799270629883,4.476140975952148,17.9458065032959,-2.734259605407715
1,198042,-24.07221221923828,22.647871017456055,-15.122197151184082,8.779644012451172
1,198044,3.5069782733917236,11.250543594360352,-23.254793167114258,10.261064529418945
1,198046,24.050111770629883,-11.341259002685547,19.495899200439453,-10.520902633666992
1,198048,-33.881866455078125,-24.65001106262207,-8.222304344177246,-2.246114730834961
1,198050,2.6057288646698,-18.683300018310547,-9.725504875183105,8.788949012756348
1,198052,24.27289390563965,20.82255744934082,25.552003860473633,11.130311012268066
1,198102,-27.741422653198242,26.493690490722656,1.4634830951690674,4.257316589355469
1,198102,-15.78486442565918,0.4025660455226898,-16.458951950073242,-24.62548828125
1,198102,24.176902770996094,14.884268760681152,-9.120244979858398,-17.741247177124023
1,198103,-3.286365509033203,-10.861551284790039,-15.272100448608398,21.532835006713867
1,198103,-21.588115692138672,-18.584991455078125,6.02182149887085,12.744667053222656
1,198103,11.901171684265137,6.675248622894287,19.240020751953125,-12.310051918029785
1,198103,8.855326652526855,-0.42125561833381653,-5.620964050292969,-12.44560432434082
1,198103,-2.0580332279205322,-3.0687763690948486,-1.0337196588516235,-1.070306658744812
1,198103,-11.501209259033203,-10.394294738769531,23.628000259399414,15.563611030578613
1,198104,-6.99987268447876,0.315857470035553,13.758537292480469,10.642911911010742
1,198104,15.766275405883789,18.29792022705078,-33.61919021606445,-20.69244956970215
1,198104,10.289173126220703,-16.175954818725586,-24.929147720336914,2.3405516147613525
1,198104,-4.544888496398926,-25.72829818725586,28.284427642822266,11.223638534545898
1,198104,-7.2325592041015625,22.790122985839844,6.462648868560791,-10.926192283630371
1,198104,1.1351648569107056,9.420801162719727,-4.019617557525635,18.17435073852539
1,198105,10.971311569213867,-10.513449668884277,30.358577728271484,0.9391105771064758
1,198105,21.120830535888672,28.948530197143555,-10.31679916381836,-16.676589965820312
1,198105,5.028048992156982,8.787518501281738,-37.84449768066406,13.114607810974121
1,198105,-42.856414794921875,-20.969636917114258,13.765457153320312,5.4663496017456055
1,198105,-14.01513385772705,3.39136004447937,21.84054183959961,-17.017263412475586
1,198106,41.05989456176758,4.734336853027344,-11.049447059631348,-0.08825568854808807
1,198106,5.492425918579102,-11.544631004333496,-7.072282791137695,5.559430122375488
1,198106,-23.217439651489258,-10.870820045471191,4.181009769439697,-15.230781555175781
1,198106,-0.7790607810020447,14.33193302154541,3.3536489009857178,-2.125370502471924
1,198106,15.63475513458252,13.890392303466797,-2.851710796356201,23.635303497314453
1,198107,-9.211774826049805,-18.94970703125,-4.523260116577148,3.814314365386963
1,198108,-20.700199127197266,-4.370540618896484,-9.597780227661133,-18.386327743530273
1,198108,20.675521850585938,8.028800964355469,-7.300889015197754,9.6022367477417
1,198111,6.693933486938477,-2.6136655807495117,30.193862915039062,7.316174030303955
1,198112,-13.322875022888184,16.626676559448242,18.084800720214844,-18.049402236938477
1,198115,10.151039123535156,6.088336944580078,-16.08761215209961,10.946393013000488
1,198116,-14.945414543151855,-47.8709602355957,-24.619081497192383,6.029595375061035
1,198119,-0.3697286546230316,-7.921191215515137,-6.2278242111206055,-9.362354278564453
1,198120,29.238636016845703,48.60581970214844,31.090906143188477,9.778521537780762
1,198123,-7.937220573425293,-7.186831951141357,-30.844139099121094,-24.953290939331055
1,198124,-24.16299819946289,-24.96959114074707,-50.783809661865234,-16.296051025390625
1,198127,-5.75310754776001,-0.6828033924102783,48.92841720581055,28.4320125579834
1,198128,33.25556945800781,29.64462661743164,35.80535888671875,0.6280898451805115
1,198131,-0.1239435076713562,4.943914890289307,-12.19567584991455,-6.467652320861816
1,198132,-32.410301208496094,-36.5003547668457,9.204636573791504,12.829737663269043
1,198133,-5.24376916885376,-9.576833724975586,7.5025482177734375,-4.811481475830078
1,198136,17.695049285888672,10.273099899291992,-8.796626091003418,3.1460516452789307
1,198138,5.3360209465026855,25.939645767211914,-11.274446487426758,2.2390010356903076
1,198200,-26.87340545654297,-0.9543575644493103,1.4467605352401733,-18.565353393554688
1,198201,8.355401992797852,-17.289905548095703,9.23718547821045,3.2783918380737305
1,198201,28.188053131103516,1.0378944873809814,-8.6084566116333,8.52086353302002
1,198201,3.713087558746338,3.074028253555298,-22.156999588012695,5.116466999053955
1,198201,-33.56440734863281,10.599534034729004,16.612329483032227,12.489348411560059
1,198201,7.285313129425049,-3.081665515899658,4.941462993621826,-4.186359882354736
1,198201,31.520458221435547,4.969558238983154,-21.943553924560547,-5.0397515296936035
1,198202,-29.542837142944336,11.533448219299316,20.17559814453125,-9.123564720153809
1,198202,-1.3695799112319946,-20.827730178833008,-4.4945807456970215,-21.445547103881836
1,198202,32.53028106689453,-1.599251627922058,-13.169188499450684,24.335134506225586
1,198202,-9.455580711364746,19.840679168701172,24.090248107910156,27.91873550415039
1,198202,-17.45214080810547,-0.39552903175354004,7.871639728546143,-19.622861862182617
1,198202,17.945274353027344,0.9848809838294983,2.2041423320770264,-19.82317543029785
1,198203,-13.711106300354004,-1.8039661645889282,-4.8887104988098145,-5.563600540161133
1,198203,-19.1729736328125,-16.180992126464844,-9.35673713684082,2.8807027339935303
1,198203,37.631099700927734,-5.8691911697387695,-1.8413866758346558,4.872561454772949
1,198203,-0.3578155040740967,-10.00324821472168,-20.675922393798828,4.9473700523376465
1,198203,-39.41194152832031,-11.011857986450195,12.028458595275879,8.424318313598633
1,198203,7.380141258239746,26.238561630249023,28.9438419342041,-9.276342391967773
1,198204,31.761962890625,26.860488891601562,-22.37392807006836,-6.238731384277344
1,198204,-8.174899101257324,-8.081487655639648,-8.247982025146484,17.72214698791504
1,198204,-19.065855026245117,-22.23218536376953,3.3599679470062256,1.078621506690979
1,198204,-3.652123212814331,-12.006326675415039,-1.1831223964691162,-4.267549514770508
1,198204,-1.6459674835205078,13.96080493927002,20.391603469848633,8.994491577148438
1,198205,20.1948299407959,17.358123779296875,-16.241954803466797,-11.73239517211914
1,198205,18.841690063476562,-9.772882461547852,-19.24795150756836,-12.625018119812012
1,198205,-7.717620849609375,-10.06226921081543,18.028762817382812,7.14163875579834
1,198205,-21.627864837646484,10.582396507263184,-10.182018280029297,-5.904690742492676
1,198205,-0.5194545984268188,2.49590802192688,-1.5322109460830688,1.1278302669525146
1,198205,21.70907974243164,-4.529779434204102,26.779626846313477,10.90608024597168
1,198206,-20.17589569091797,-8.741498947143555,-12.383694648742676,-3.109421968460083
1,198207,-22.68470573425293,-16.150846481323242,-24.003341674804688,-3.435713529586792
1,198207,25.443723678588867,10.400476455688477,5.82389497756958,-0.8668181300163269
1,198207,2.9440290927886963,31.03521156311035,19.566238403320312,1.713313341140747
1,198209,10.62685489654541,3.7553226947784424,12.850903511047363,16.331212997436523
1,198210,-3.6262965202331543,16.027999877929688,4.638646125793457,9.782508850097656
1,198213,-41.43270492553711,38.996612548828125,-11.538246154785156,-21.863439559936523
1,198214,30.86614418029785,-67.818115234375,-16.992929458618164,-10.960973739624023
1,198217,48.540409088134766,-150.57994079589844,5.0468525886535645,20.192392349243164
1,198218,-4.933070182800293,-0.9011456966400146,10.613199234008789,-2.071392297744751
1,198221,-16.469707489013672,127.5045394897461,4.745225429534912,-5.34376335144043
1,198222,9.876725196838379,35.70368957519531,-3.39888858795166,8.460807800292969
1,198225,-4.974001884460449,-11.802230834960938,-3.327960968017578,-8.6370849609375
1,198226,-49.33269500732422,25.279756546020508,-12.80162525177002,-29.2906551361084
1,198227,-16.708566665649414,8.0989990234375,-1.2956348657608032,-21.54005241394043
1,198230,-1.7877085208892822,34.66300964355469,32.81306838989258,33.20651626586914
1,198231,15.897640228271484,8.02013874053955,-3.0098397731781006,34.55782699584961
1,198234,26.937894821166992,-117.5118408203125,-18.183141708374023,-8.263057708740234
1,198235,-24.82809066772461,-19.883872985839844,-19.980504989624023,-25.45252799987793
1,198238,-3.1631345748901367,68.16471099853516,2.448091983795166,-2.87481689453125
1,198239,23.725061416625977,-55.9525146484375,17.254070281982422,31.056142807006836
1,198315,-35.74538803100586,-28.20783805847168,-23.830305099487305,8.699756622314453
1,198315,-32.47431564331055,32.27579116821289,26.044958114624023,-22.194456100463867
1,198315,55.65543746948242,-14.188633918762207,22.270511627197266,3.75842022895813
1,198315,38.376529693603516,-21.65675163269043,-30.336936950683594,22.931739807128906
1,198315,-35.669525146484375,11.952882766723633,-12.313410758972168,-21.108003616333008
1,198315,-16.852313995361328,30.068910598754883,8.6927490234375,-9.593873023986816
1,198316,22.581247329711914,35.241493225097656,13.816999435424805,35.816001892089844
1,198316,11.140146255493164,35.642799377441406,-4.97617244720459,-3.5614376068115234
1,198316,1.8286372423171997,7.056358337402344,1.5000180006027222,-12.627643585205078
1,198316,5.512403964996338,2.6050713062286377,15.237509727478027,-4.679759502410889
1,198316,-0.6478180885314941,-8.575039863586426,-2.7776927947998047,-9.980589866638184
1,198316,11.675910949707031,-19.860618591308594,-9.689824104309082,0.8773713707923889
1,198317,23.39743423461914,-9.503952980041504,-13.831085205078125,-19.473960876464844
1,198317,-1.0387922525405884,-12.800946235656738,2.638838052749634,11.190533638000488
1,198317,-19.175249099731445,-25.758216857910156,3.5512468814849854,25.821279525756836
1,198317,-14.65150260925293,-0.11325298249721527,-5.935444355010986,-14.422255516052246
1,198317,-6.842460632324219,36.40066909790039,17.545015335083008,-14.404581069946289
1,198317,-13.224841117858887,18.39959716796875,-9.217867851257324,-8.820616722106934
1,198318,-3.866367816925049,23.41550636291504,2.5073745250701904,9.690396308898926
1,198318,16.93780517578125,-0.3471261262893677,10.550681114196777,12.5038423538208
1,198318,-12.332552909851074,-35.89501953125,-34.833370208740234,-20.21186637878418
1,198318,-29.14373207092285,-16.318979263305664,11.7459077835083,-0.3639817237854004
1,198318,32.335784912109375,0.47574836015701294,39.81656265258789,38.80263137817383
1,198318,41.76033401489258,-1.1377536058425903,-7.680702209472656,-6.210785388946533
1,198319,-24.65546226501465,-3.675872564315796,-38.69492721557617,-42.09386444091797
1,198319,-25.296274185180664,-0.8177446126937866,-14.561915397644043,10.842114448547363
1,198319,6.625635147094727,-4.194579124450684,37.7983512878418,6.049461364746094
1,198319,9.689085960388184,14.600363731384277,12.88671588897705,-22.69293975830078
1,198319,2.36063814163208,15.597297668457031,-25.796567916870117,28.00448226928711
1,198320,1.9135111570358276,-14.65924072265625,2.109217643737793,21.88055419921875
1,198320,-14.51128101348877,6.124131679534912,13.148276329040527,-20.716482162475586
1,198320,-4.32558536529541,17.158599853515625,-4.593213081359863,-5.466197490692139
1,198320,27.922414779663086,-15.987713813781738,-8.381818771362305,5.683707237243652
1,198320,-25.292409896850586,-18.202810287475586,-1.6300573348999023,7.6246137619018555
1,198320,-31.156660079956055,11.811583518981934,4.822107315063477,1.0199707746505737
1,198321,38.44894027709961,17.469818115234375,-2.1057839393615723,-14.818589210510254
1,198321,-1.1196743249893188,-13.989858627319336,-0.4574514329433441,3.096464157104492
1,198322,-22.894683837890625,-1.5413416624069214,-6.526435852050781,4.200860977172852
1,198322,11.312082290649414,21.62548065185547,3.7806155681610107,-16.364727020263672
1,198322,2.2945683002471924,-24.84208106994629,7.526882171630859,3.1535298824310303
1,198323,-4.26221227645874,-31.446866989135742,-12.200069427490234,16.556325912475586
1,198324,-0.6547070741653442,26.70765495300293,18.227453231811523,-24.05695915222168
1,198327,-4.575170516967773,-54.30552673339844,-0.8722536563873291,-1.2661564350128174
1,198328,-14.860237121582031,61.31806945800781,-18.6783504486084,5.6903276443481445
1,198331,32.329219818115234,70.32198333740234,14.350492477416992,-21.535480499267578
1,198332,43.736961364746094,-249.538330078125,13.74158000946045,54.55321502685547
1,198335,5.435518741607666,-49.53843307495117,-11.791694641113281,33.13045883178711
1,198336,-6.989275932312012,167.9864044189453,-24.996047973632812,-37.99050521850586
1,198339,-9.458951950073242,62.859474182128906,3.3922066688537598,0.7021573185920715
1,198340,22.93363380432129,41.90850830078125,14.107443809509277,7.230877876281738
1,198343,-50.602413177490234,95.60497283935547,6.5492095947265625,-32.44068908691406
1,198344,-99.39904022216797,31.570087432861328,16.90503692626953,5.231640815734863
1,198347,30.823862075805664,-216.34010314941406,9.115203857421875,37.9383430480957
1,198348,52.979705810546875,-115.01416015625,-26.093351364135742,-20.935420989990234
1,198351,3.360180377960205,134.37477111816406,-20.716135025024414,-26.385541915893555
1,198352,51.80195999145508,85.43155670166016,17.471080780029297,16.17854118347168
1,198355,27.892807006835938,-18.33783721923828,6.585261821746826,9.284539222717285
1,198356,-68.86235809326172,-53.16291809082031,-20.422954559326172,12.189252853393555
1,198444,-64.15657806396484,6.63424015045166,-3.7205495834350586,-30.85921287536621
1,198444,6.988043785095215,25.555458068847656,21.797998428344727,-25.913698196411133
1,198444,49.99176025390625,-28.924785614013672,9.572915077209473,39.288795471191406
1,198444,28.475488662719727,-21.13004493713379,-23.008506774902344,11.396337509155273
1,198444,-7.774824619293213,15.64603328704834,-5.0854339599609375,2.226560115814209
1,198444,-7.451207637786865,29.853239059448242,33.822654724121094,-14.674968719482422
1,198445,-14.252097129821777,8.085928916931152,-5.094874858856201,-22.503000259399414
1,198445,-26.62818717956543,22.664377212524414,-22.502626419067383,13.29824447631836
1,198445,-6.884001731872559,9.790596961975098,15.676881790161133,2.4051380157470703
1,198445,14.098761558532715,-53.20677947998047,-1.2889723777770996,-11.705636978149414
1,198445,12.503503799438477,-21.008739471435547,-14.199097633361816,13.357010841369629
1,198445,8.593428611755371,7.705582618713379,30.37504768371582,11.135053634643555
1,198446,18.309762954711914,-39.742984771728516,17.906784057617188,-18.572046279907227
1,198446,15.522933959960938,-26.44285011291504,-35.81639862060547,4.842742919921875
1,198446,-20.7591552734375,34.49047088623047,-9.384624481201172,25.702770233154297
1,198446,-3.949747085571289,40.93973159790039,7.104900360107422,-8.646203994750977
1,198446,16.221973419189453,17.661697387695312,-8.013724327087402,-30.93844223022461
1,198446,-28.142969131469727,-2.7434771060943604,13.302451133728027,8.220166206359863
1,198447,-22.59832763671875,-16.840660095214844,12.611542701721191,3.509584665298462
1,198447,23.614595413208008,-7.278806209564209,-11.472635269165039,-24.024198532104492
1,198447,18.882726669311523,-0.4349793791770935,-22.674057006835938,24.287080764770508
1,198447,-16.072315216064453,-16.49906349182129,-10.234879493713379,29.63104248046875
1,198447,-12.33562183380127,-7.657228469848633,21.39230728149414,-2.2016754150390625
1,198447,20.413864135742188,19.59457778930664,12.916313171386719,-14.542984962463379
1,198448,14.08749771118164,-15.267986297607422,-38.041873931884766,-18.86881446838379
1,198448,-23.606815338134766,-17.343318939208984,-1.2440253496170044,11.510265350341797
1,198448,-28.717233657836914,52.58881378173828,46.08479309082031,20.36580467224121
1,198448,12.204795837402344,43.317745208740234,-7.766299724578857,-7.957006454467773
1,198448,27.227909088134766,11.520941734313965,-14.898798942565918,-19.807798385620117
1,198449,-14.146210670471191,-8.778542518615723,13.10205078125,-16.24973487854004
1,198449,-17.544145584106445,-21.376768112182617,-15.7099027633667,5.120732307434082
1,198449,4.665327548980713,0.6328010559082031,-2.4103305339813232,28.060659408569336
1,198449,14.900505065917969,-6.937052249908447,20.927764892578125,-1.6601238250732422
1,198449,22.851165771484375,-25.76854705810547,-4.228872299194336,-16.646562576293945
1,198449,-3.504985809326172,-9.620189666748047,0.2937840521335602,4.442047595977783
1,198450,4.254701614379883,10.930445671081543,-18.015901565551758,-7.984838008880615
1,198450,4.025633811950684,-13.286490440368652,-10.517621994018555,0.2619108259677887
1,198450,-19.909067153930664,-4.12285852432251,31.42791175842285,26.853269577026367
1,198450,-16.962865829467773,6.425320625305176,1.3225396871566772,6.3702850341796875
1,198450,3.2415661811828613,-20.216596603393555,-21.06557273864746,-25.968425750732422
1,198450,32.21992492675781,-34.6762809753418,3.8064966201782227,0.1259881556034088
1,198451,5.034478664398193,-14.42225170135498,12.271932601928711,17.29414939880371
1,198451,-26.47344207763672,22.4029598236084,-4.8752288818359375,5.7442946434021
1,198451,-6.844619274139404,23.36965560913086,6.790642738342285,4.888311862945557
1,198452,18.003616333007812,0.31639546155929565,9.509613037109375,-16.299407958984375
1,198452,-14.511466979980469,-6.323764324188232,1.4529868364334106,-6.944455623626709
1,198452,-8.649812698364258,14.13287353515625,-5.759903907775879,9.292393684387207
1,198453,17.559301376342773,-7.882955074310303,-18.85232162475586,14.218376159667969
1,198454,-38.357906341552734,22.522722244262695,4.590213298797607,0.4434943199157715
1,198457,3.8668763637542725,47.17547607421875,-6.150063991546631,-21.862131118774414
1,198458,63.2974739074707,-69.48057556152344,-3.0431935787200928,-7.504297256469727
1,198461,46.91701889038086,-71.76533508300781,5.257521152496338,29.786577224731445
1,198462,30.378183364868164,62.88205337524414,-17.679738998413086,42.23200225830078
1,198465,-54.64697265625,63.678688049316406,4.197676181793213,-44.46978759765625
1,198466,-57.63407897949219,-12.795764923095703,19.327239990234375,-56.935813903808594
1,198469,-9.806204795837402,24.56937599182129,14.158473014831543,13.541125297546387
1,198470,-19.363000869750977,20.95587921142578,-6.094553470611572,5.4121012687683105
1,198471,9.049415588378906,-35.98179626464844,-5.739439964294434,8.150655746459961
1,198474,10.35777759552002,0.053239647299051285,21.0701847076416,-8.80974006652832
1,198475,-0.5584470629692078,10.997339248657227,-2.526872158050537,-25.168682098388672
1,198478,-1.6277767419815063,-10.671441078186035,-15.555980682373047,19.177854537963867
1,198479,-10.757080078125,-30.307340621948242,4.944559574127197,29.418140411376953
1,198482,14.88656234741211,2.955841541290283,-7.56077241897583,-11.4077787399292
1,198483,21.527042388916016,28.719209671020508,-12.89069652557373,-13.716395378112793
1,198486,-29.498889923095703,-11.392309188842773,1.0808076858520508,18.0034122467041
1,198487,-13.32997989654541,-0.1618729829788208,-2.4412364959716797,12.312219619750977
1,198586,48.00745391845703,-18.24669647216797,11.969966888427734,-17.373647689819336
1,198587,14.042556762695312,-26.517637252807617,19.33584213256836,-18.41459083557129
1,198587,-22.36420249938965,24.313892364501953,4.300012111663818,15.645978927612305
1,198587,-19.33440589904785,20.42795181274414,-6.859911918640137,0.280263751745224
1,198587,-18.83721160888672,-11.331984519958496,-19.580080032348633,-11.160712242126465
1,198587,-6.192643165588379,-12.148274421691895,-3.12246036529541,2.1306955814361572
1,198587,-2.3149657249450684,15.441960334777832,16.12873077392578,-0.5231370329856873
1,198588,19.271163940429688,17.833654403686523,6.255035877227783,-4.333066463470459
1,198588,31.991409301757812,-23.18986701965332,-11.18297004699707,-5.731453895568848
1,198588,-10.976702690124512,-10.276694297790527,-6.249403953552246,15.020751953125
1,198588,-8.465093612670898,14.18040657043457,-4.3516693115234375,6.141051292419434
1,198588,15.335988998413086,-2.123573064804077,-7.625607490539551,5.104820728302002
1,198588,-8.507467269897461,-4.316713333129883,3.1046338081359863,8.162470817565918
1,198589,-4.69826602935791,-9.971717834472656,-10.419488906860352,-6.340889930725098
1,198589,-2.5477914810180664,4.090184211730957,7.147665977478027,16.44524574279785
1,198589,-8.75326156616211,16.993118286132812,18.19853401184082,-14.469188690185547
1,198589,8.737320899963379,-2.825775384902954,-18.234224319458008,-23.361379623413086
1,198589,-4.555791854858398,-17.92888641357422,2.7360293865203857,31.99186897277832
1,198589,0.3425881862640381,9.019742012023926,22.382535934448242,8.820890426635742
1,198590,23.8864803314209,25.65657615661621,-5.35399055480957,-13.851152420043945
1,198590,9.160592079162598,-18.054513931274414,-10.011771202087402,1.6341742277145386
1,198590,4.80340576171875,-19.620697021484375,-7.314247131347656,5.161506652832031
1,198590,-7.580593585968018,17.863872528076172,4.0895256996154785,16.411691665649414
1,198590,-12.738724708557129,11.290432929992676,19.553165435791016,-2.0495989322662354
1,198590,7.030458927154541,-10.473950386047363,-6.3227105140686035,-27.32098960876465
1,198591,-19.8519229888916,-11.329129219055176,-8.979413032531738,8.026982307434082
1,198591,-3.4744808673858643,20.170255661010742,16.572898864746094,19.595930099487305
1,198591,32.34748077392578,20.12940216064453,-8.862783432006836,-25.870939254760742
1,198591,-22.654298782348633,-19.433481216430664,-15.154553413391113,-14.107378005981445
1,198591,-18.356067657470703,-33.1360969543457,-1.5693726539611816,29.228578567504883
1,198592,24.341196060180664,-5.811079502105713,4.298855304718018,6.799888610839844
1,198592,11.043582916259766,28.789634704589844,14.02330207824707,-23.279827117919922
1,198592,-0.290503591299057,-3.7153847217559814,-13.21093463897705,0.5533807873725891
1,198592,-14.839056968688965,-30.91556739807129,-20.253164291381836,0.7878610491752625
1,198592,-13.861251831054688,4.05372428894043,0.14744044840335846,-13.488677024841309
1,198592,3.683079719543457,13.571406364440918,23.668012619018555,3.7835774421691895
1,198593,15.778640747070312,11.449615478515625,20.701942443847656,-0.19935651123523712
1,198593,13.539531707763672,-3.510202646255493,-12.254793167114258,-2.6665687561035156
1,198593,-14.51579475402832,-24.73343849182129,-21.316293716430664,2.7183523178100586
1,198593,-14.64626693725586,8.753767013549805,-14.846512794494629,-4.501007080078125
1,198593,-4.265237808227539,10.471967697143555,10.008795738220215,16.193069458007812
1,198593,2.966381788253784,-1.3433595895767212,13.816668510437012,13.262073516845703
1,198594,8.457779884338379,4.23038911819458,-10.456888198852539,-21.43541145324707
1,198594,-15.976605415344238,-14.072185516357422,12.025245666503906,7.90822696685791
1,198594,-12.837944030761719,15.472888946533203,31.861534118652344,-3.762709617614746
1,198594,20.713685989379883,26.756559371948242,-8.088562965393066,-24.12283706665039
1,198594,11.190457344055176,-33.24138259887695,-30.33637809753418,49.07139587402344
1,198594,-11.458159446716309,-19.09857940673828,11.603861808776855,22.55048179626465
1,198595,24.053600311279297,26.633092880249023,13.497599601745605,-53.745391845703125
1,198596,-4.950881004333496,-5.967432022094727,-29.26640510559082,2.3155736923217773
1,198596,-28.542123794555664,-14.173541069030762,-1.866973638534546,29.015892028808594
1,198596,28.6495304107666,22.143136978149414,19.460174560546875,-10.12623119354248
1,198596,15.75213623046875,22.635787963867188,5.711212635040283,2.861556053161621
1,198597,-11.83552074432373,-17.76753044128418,10.16374397277832,-10.411711692810059
1,198598,16.890695571899414,-44.259422302246094,-7.396597385406494,12.233660697937012
1,198601,11.488619804382324,27.25223159790039,-6.166250705718994,39.07974624633789
1,198602,-59.28895950317383,77.60639190673828,19.317764282226562,-33.174556732177734
1,198605,-36.01777648925781,-4.705061912536621,1.8681037425994873,-44.539791107177734
1,198606,42.79505157470703,-8.402831077575684,-22.446290969848633,-2.73366117477417
1,198609,19.591800689697266,22.49932861328125,-19.803876876831055,16.56704330444336
1,198610,-9.029075622558594,-23.454360961914062,15.090241432189941,14.802061080932617
1,198613,-10.463170051574707,-70.80322265625,9.555235862731934,-8.061059951782227
1,198614,6.376555442810059,-31.70391845703125,-8.452714920043945,-7.175772190093994
1,198617,43.42342758178711,41.463836669921875,28.723928451538086,30.39118766784668
1,198618,24.605440139770508,-25.484861373901367,-19.91822624206543,37.451087951660156
1,198621,-61.36481475830078,-10.457755088806152,-36.03594970703125,-62.19405746459961
1,198622,-83.77140045166016,17.69392967224121,15.272326469421387,-45.25824737548828
1,198625,60.46207046508789,-21.680931091308594,12.582352638244629,61.339115142822266
1,198626,81.8112564086914,77.3387680053711,15.964513778686523,-3.5825963020324707
1,198629,-44.08002471923828,38.300296783447266,-2.1761341094970703,-31.036727905273438
1,198630,-47.394527435302734,-41.223175048828125,-19.30939483642578,6.585143089294434
1,198633,2.8750081062316895,-8.711356163024902,-22.84128761291504,0.07273487001657486
1,198634,30.941041946411133,-41.624935150146484,7.273985862731934,45.35493469238281
1,198635,37.04426193237305,16.41838264465332,36.35842514038086,1.2067997455596924
1,198745,-8.381103515625,69.5133285522461,-17.91503143310547,-60.589630126953125
1,198745,-51.577613830566406,-13.785130500793457,-12.839014053344727,24.573156356811523
1,198745,-15.247705459594727,-35.87757110595703,24.417621612548828,32.96232604980469
1,198746,28.18490982055664,-10.807758331298828,-17.959196090698242,-39.86996078491211
1,198746,10.938557624816895,-39.48174285888672,-12.03212833404541,-7.029996871948242
1,198746,-1.5493015050888062,-11.779223442077637,41.65250778198242,38.73749923706055
1,198746,-1.3305575847625732,37.40140151977539,4.511678218841553,-4.056902885437012
1,198746,-5.674293041229248,23.632047653198242,-26.871416091918945,-35.34675598144531
1,198746,-2.1024746894836426,10.1411771774292,3.5450918674468994,-12.404702186584473
1,198747,-10.835488319396973,8.362768173217773,11.271021842956543,14.704801559448242
1,198747,-10.217618942260742,6.144309043884277,4.759978294372559,11.766301155090332
1,198747,15.294197082519531,-8.633198738098145,-15.632805824279785,-5.268141746520996
1,198747,23.082782745361328,-20.98738670349121,-9.810321807861328,-3.04651141166687
1,198747,8.839600563049316,-22.705453872680664,-5.866452217102051,26.75493049621582
1,198748,-9.98233699798584,-0.9460131525993347,7.881908893585205,15.67043685913086
1,198748,-10.73520565032959,18.94400405883789,15.822624206542969,-27.999557495117188
1,198748,5.2282304763793945,10.41456127166748,-15.479354858398438,0.4097520411014557
1,198748,-2.457390069961548,-10.195159912109375,10.504868507385254,17.385944366455078
1,198748,-0.08807438611984253,2.5248589515686035,13.703457832336426,-17.61436653137207
1,198748,-5.469891548156738,36.84336471557617,-19.80328941345215,-5.312329292297363
1,198749,-10.661675453186035,-17.613712310791016,-20.15137481689453,11.752251625061035
1,198749,-7.714505672454834,-45.37147521972656,-4.284368991851807,-0.11836205422878265
1,198749,6.263784885406494,12.336270332336426,18.33701515197754,-25.369688034057617
1,198749,47.485679626464844,12.097177505493164,17.68375015258789,-6.30416202545166
1,198749,-5.392831802368164,-6.151180744171143,-2.5193285942077637,47.05085372924805
1,198749,-45.631080627441406,-3.696993350982666,-3.532650947570801,14.501534461975098
1,198750,12.89302921295166,5.334168910980225,-7.987482070922852,-32.30352020263672
1,198750,10.835339546203613,-5.385843753814697,-24.880897521972656,-6.838074207305908
1,198750,0.31010010838508606,2.657891035079956,17.245899200439453,1.470296859741211
1,198750,12.64904499053955,35.868797302246094,29.579750061035156,-32.46971130371094
1,198750,-13.345739364624023,3.3338561058044434,-8.807787895202637,2.1584219932556152
1,198750,-3.5118024349212646,-32.6529655456543,-4.007371425628662,32.844234466552734
1,198751,8.66165542602539,-11.264928817749023,-7.183276176452637,7.115768909454346
1,198751,-5.981472492218018,9.23415756225586,-5.656350135803223,-7.9408159255981445
1,198751,3.075669288635254,0.19980770349502563,5.462765693664551,-0.38611525297164917
1,198751,6.7199835777282715,-3.5818867683410645,4.14838981628418,16.372928619384766
1,198751,-10.014123916625977,-8.367240905761719,17.989778518676758,-12.6375093460083
1,198751,0.9275130033493042,11.081452369689941,-4.152115345001221,-3.7669761180877686
1,198752,9.539743423461914,22.50616455078125,-20.039884567260742,15.342103004455566
1,198752,-14.607526779174805,-3.945204734802246,8.297316551208496,-30.273935317993164
1,198752,0.3283277153968811,-13.794816017150879,-2.155040979385376,-1.965469479560852
1,198752,0.8463948965072632,1.0539661645889282,-17.568601608276367,34.13451385498047
1,198752,-12.400501251220703,14.886085510253906,2.0426478385925293,-18.392837524414062
1,198752,1.4449468851089478,-5.144896030426025,13.943662643432617,-36.02277755737305
1,198753,-14.816997528076172,-14.339521408081055,-1.9980218410491943,21.561235427856445
1,198753,-1.5403856039047241,7.62629508972168,-12.019378662109375,27.429609298706055
1,198753,10.746541023254395,-11.56160831451416,-2.637291431427002,-3.182960033416748
1,198753,-8.73583984375,-23.74725914001465,-5.565475940704346,2.598078489303589
1,198753,13.046274185180664,15.128510475158691,0.7539129257202148,-15.15196704864502
1,198753,14.247406005859375,31.692676544189453,0.016683664172887802,1.6567177772521973
1,198754,-15.008877754211426,6.39294958114624,8.963835716247559,17.067150115966797
1,198754,5.269155502319336,-35.98129653930664,28.19280242919922,-12.305815696716309
1,198754,26.596839904785156,-1.2099131345748901,2.4744701385498047,1.192287802696228
1,198754,-16.943370819091797,34.2773323059082,0.6837798357009888,12.219977378845215
1,198755,-18.462867736816406,-12.076155662536621,-0.96426922082901,-5.570530414581299
1,198756,36.986961364746094,-3.8090944290161133,-10.65187931060791,-8.351299285888672
1,198756,21.304231643676758,58.27308654785156,21.281003952026367,13.26132583618164
1,198756,-31.358388900756836,-62.825439453125,-10.380425453186035,-12.511608123779297
1,198756,-39.91473388671875,-74.40068817138672,-36.887020111083984,-19.551036834716797
1,198756,13.802522659301758,112.09944152832031,28.207304000854492,74.43510437011719
1,198758,92.18278503417969,27.028135299682617,20.079654693603516,-21.536840438842773
1,198760,-34.962581634521484,-85.4554214477539,-29.23259162902832,-112.2685775756836
1,198762,-26.9293212890625,-5.986791133880615,-7.436744689941406,22.560009002685547
1,198764,44.50569152832031,34.5468635559082,-30.61048698425293,16.725217819213867
1,198766,-109.82353973388672,-20.891084671020508,-19.126121520996094,1.2609819173812866
1,198768,-24.104530334472656,-11.884028434753418,47.919559478759766,32.800559997558594
1,198770,60.489280700683594,14.76161003112793,18.663528442382812,-28.170793533325195
1,198772,4.61980676651001,15.89462947845459,1.1060233116149902,-1.4755077362060547
1,198774,-16.261016845703125,22.42170524597168,-2.722313165664673,31.98381233215332
1,198776,-10.690226554870605,-12.701048851013184,-24.046001434326172,2.8883187770843506
1,198778,9.244400978088379,-23.43108558654785,-1.6172913312911987,16.391984939575195
1,198780,8.423724174499512,3.8504137992858887,15.993745803833008,13.753376960754395
1,198782,23.895944595336914,10.628045082092285,1.0188978910446167,-18.23350715637207
1,198784,-7.854681968688965,-6.42563009262085,-12.601433753967285,-3.292292833328247
1,198786,-7.856020450592041,1.760085940361023,3.7470107078552246,12.923648834228516
1,198788,48.01728057861328,25.086971282958984,30.304540634155273,-10.121971130371094
1,198790,10.84904956817627,3.384828805923462,10.153346061706543,10.68435001373291
1,198793,-32.55560302734375,-21.700199127197266,-10.934240341186523,22.895973205566406
1,198794,-14.629864692687988,-12.028944969177246,-8.395903587341309,-6.549891948699951
1,198797,-14.772825241088867,-23.348567962646484,-9.329453468322754,-23.42089080810547
1,198917,-7.747406005859375,7.79086446762085,-2.407552480697632,-33.464752197265625
1,198917,17.099231719970703,58.517784118652344,10.063191413879395,-22.52333641052246
1,198917,10.04935359954834,-13.65123176574707,12.24836540222168,5.656662464141846
1,198917,9.463948249816895,-39.95195388793945,-8.0431547164917,37.62578201293945
1,198917,15.389904022216797,20.33465576171875,-17.022069931030273,-6.099699974060059
1,198918,-11.651491165161133,4.045177459716797,-14.639720916748047,-39.48986053466797
1,198918,-27.422956466674805,-4.7589240074157715,6.0882368087768555,29.251224517822266
1,198918,6.828991889953613,-11.623760223388672,11.868319511413574,0.003095734864473343
1,198918,9.292665481567383,-19.299724578857422,-11.59878158569336,-37.2130126953125
1,198918,-30.12716293334961,9.736492156982422,-0.279732346534729,32.19247055053711
1,198918,-6.844531059265137,18.74527359008789,4.072580814361572,15.54737663269043
1,198919,45.96317672729492,3.5595827102661133,-15.549838066101074,-12.115456581115723
1,198919,4.0219807624816895,-23.093353271484375,12.000040054321289,26.822265625
1,198919,-38.990234375,-3.705374240875244,11.038866996765137,19.302968978881836
1,198919,2.6066269874572754,16.319089889526367,-18.22833251953125,-20.222257614135742
1,198919,-7.407995700836182,-10.23919677734375,-0.4287729561328888,-42.10447311401367
1,198919,12.873122215270996,10.237699508666992,2.276395559310913,1.2382434606552124
1,198920,12.404593467712402,40.38596725463867,15.145001411437988,41.89377975463867
1,198920,-6.516107082366943,-9.10443115234375,12.444905281066895,-20.82662010192871
1,198920,21.528507232666016,-27.99692726135254,-26.282581329345703,-18.12348175048828
1,198920,-6.354965686798096,12.906685829162598,-0.979784369468689,24.008405685424805
1,198920,-2.7449276447296143,13.895418167114258,23.2080078125,-24.92465591430664
1,198920,3.220136880874634,-20.1332950592041,9.866811752319336,13.21418571472168
1,198921,-1.8652437925338745,-23.04593276977539,7.016931533813477,64.68179321289062
