Aktueller Finger,timestamp_ms,sensor_0,sensor_1,sensor_2,sensor_3
0,141533,-23.309974670410156,100.60802459716797,-11.432777404785156,48.543739318847656
0,141536,-13.320287704467773,-108.78412628173828,19.472026824951172,36.24435806274414
0,141537,9.054256439208984,-25.11726188659668,0.8976518511772156,0.9651702642440796
0,141540,7.47091817855835,-42.031490325927734,-34.55769348144531,-34.70887756347656
0,141541,4.547622203826904,28.86869239807129,26.033966064453125,-24.24837303161621
0,141544,-9.228120803833008,155.45396423339844,35.673744201660156,-2.2464568614959717
0,141546,10.636712074279785,37.83208465576172,-36.93050003051758,18.73863983154297
0,141554,7.0042948722839355,-139.59725952148438,-18.610549926757812,23.67276954650879
0,141554,-28.527040481567383,-73.0121078491211,44.480072021484375,-23.396181106567383
0,141554,7.555171966552734,75.66432189941406,-6.114447116851807,3.5152437686920166
0,141554,31.357973098754883,-12.643828392028809,-50.579776763916016,29.35443687438965
0,141555,-18.002979278564453,-32.361976623535156,26.33720588684082,-7.927922248840332
0,141558,-0.9280717968940735,22.39474868774414,26.57070541381836,62.87900161743164
0,141559,-6.248298645019531,-40.78073501586914,-36.61879348754883,16.551942825317383
0,141562,-7.670193672180176,-11.356398582458496,2.651108741760254,-131.06411743164062
0,141563,15.037837028503418,107.82473754882812,19.19829750061035,-56.23412322998047
0,141566,-4.135648250579834,60.018436431884766,-16.209871292114258,74.9605484008789
0,141567,3.7899439334869385,-89.83065032958984,-4.5562286376953125,63.59733581542969
0,141570,-5.078300952911377,-149.9299774169922,-1.3466225862503052,-36.20787048339844
0,141571,7.2612624168396,-37.24469757080078,20.476268768310547,-24.835309982299805
0,141574,3.615251302719116,180.45755004882812,-5.750514030456543,21.79604148864746
0,141575,-39.106971740722656,104.79316711425781,-35.382720947265625,-33.90457534790039
0,141577,21.080785751342773,-112.04142761230469,35.678428649902344,-26.08019256591797
0,141599,48.31718444824219,-61.454593658447266,10.943329811096191,39.267738342285156
0,141599,-27.9306583404541,5.2791571617126465,-23.9486141204834,40.628360748291016
0,141599,-15.295888900756836,38.78312301635742,9.310903549194336,-9.917010307312012
0,141599,11.748846054077148,83.41651153564453,10.169363021850586,-12.115667343139648
0,141600,-18.507339477539062,17.7846622467041,5.066624164581299,13.789168357849121
0,141600,-10.071175575256348,-27.041149139404297,5.5739312171936035,0.4189457893371582
0,141600,5.110159397125244,-3.696408748626709,-4.061978340148926,-15.471586227416992
0,141600,10.117436408996582,-31.6601619720459,-14.944777488708496,-4.418177127838135
0,141600,-5.83357572555542,-61.58273696899414,7.355320930480957,2.3274993896484375
0,141600,-12.594047546386719,-36.797645568847656,-9.605348587036133,-8.264092445373535
0,141601,20.61646842956543,-11.481033325195312,-21.962121963500977,-11.56753921508789
0,141602,9.651823997497559,31.822372436523438,36.01028060913086,2.8895180225372314
0,141603,-9.955409049987793,110.65357208251953,13.485751152038574,-35.77448654174805
0,141606,0.28645631670951843,31.964746475219727,-21.470006942749023,-6.013537406921387
0,141607,3.6464457511901855,-133.52822875976562,-0.32748639583587646,94.77946472167969
0,141610,34.03571701049805,-121.34249877929688,-13.740392684936523,56.84635543823242
0,141611,10.309891700744629,-43.417579650878906,-19.23712730407715,-55.06619644165039
0,141614,-54.170013427734375,193.29518127441406,13.375694274902344,-81.8241958618164
0,141615,-2.6425888538360596,217.5064697265625,34.67913818359375,-0.21490958333015442
0,141618,31.554174423217773,-134.89389038085938,4.317345142364502,36.27733612060547
0,141619,-12.751191139221191,-138.48837280273438,-22.861385345458984,-1.5655348300933838
0,141622,-22.74497413635254,48.2218132019043,-13.481949806213379,8.566192626953125
0,141623,1.8871349096298218,86.9595947265625,11.548680305480957,29.3482666015625
0,141626,5.134994983673096,11.901045799255371,0.5456641316413879,-29.060277938842773
0,141739,12.796562194824219,209.35894775390625,39.04160690307617,15.362534523010254
0,141739,4.70742654800415,79.12577819824219,-13.273455619812012,-30.568574905395508
0,141739,-12.735100746154785,-187.0977783203125,-23.059980392456055,-18.388723373413086
0,141739,-1.4158871173858643,-65.39543151855469,14.542991638183594,19.57659339904785
0,141739,9.309398651123047,66.68462371826172,2.36495304107666,2.9438607692718506
0,141739,4.627439022064209,19.06062126159668,-33.536869049072266,-23.53485870361328
0,141740,1.09494948387146,21.883193969726562,-2.914379358291626,-4.435065746307373
0,141740,-13.296928405761719,22.444557189941406,28.069250106811523,6.606185436248779
0,141740,-30.075645446777344,29.77547836303711,4.582898139953613,15.819050788879395
0,141740,-1.1575182676315308,-3.973567008972168,-11.897920608520508,5.828245639801025
0,141740,18.665969848632812,-52.821022033691406,-15.744344711303711,-24.359119415283203
0,141740,-3.4444613456726074,-46.49020004272461,12.854393005371094,-7.558508396148682
0,141741,7.033331871032715,-25.541885375976562,5.072556018829346,11.644536972045898
0,141741,18.15122413635254,-30.188474655151367,-13.727288246154785,4.320406913757324
0,141741,-4.793962478637695,-2.7497663497924805,-8.920328140258789,10.111172676086426
0,141741,-13.085858345031738,40.508697509765625,-3.598471164703369,5.420406341552734
0,141741,-5.891027927398682,48.975685119628906,26.926084518432617,0.45058974623680115
0,141741,12.151987075805664,33.286766052246094,2.6325249671936035,3.4602394104003906
0,141742,10.2659912109375,14.226130485534668,-10.396971702575684,7.122628211975098
0,141742,-4.024637699127197,10.540234565734863,21.31682777404785,-0.9617781639099121
0,141742,10.690729141235352,-12.052155494689941,5.89774227142334,-9.358864784240723
0,141742,1.3661726713180542,-20.391199111938477,-5.237766265869141,11.670228004455566
0,141742,-7.531045436859131,-1.7963258028030396,-11.396210670471191,5.3204545974731445
0,141744,-0.6657691597938538,18.425731658935547,-15.909280776977539,-7.114826202392578
0,141744,-26.014558792114258,-1.905347466468811,23.768884658813477,6.390332221984863
0,141744,2.8864223957061768,-19.234699249267578,16.50599479675293,-14.04033088684082
0,141745,26.43955421447754,11.002760887145996,-6.480836391448975,-23.551610946655273
0,141748,-11.2145414352417,-105.66433715820312,-17.812664031982422,2.545318126678467
0,141749,10.589849472045898,-131.23550415039062,-30.757312774658203,-16.66994857788086
0,141752,13.500514030456543,22.85802459716797,21.50353240966797,6.87330961227417
0,141753,-19.471994400024414,120.23785400390625,19.040695190429688,38.44670104980469
0,141756,-4.151819705963135,120.50621032714844,-29.350933074951172,-1.7743414640426636
0,141758,-4.930166244506836,-31.51167869567871,-9.653139114379883,-22.174434661865234
0,141759,0.2975476086139679,-65.69139862060547,31.373523712158203,-12.578771591186523
0,141762,5.79897928237915,-1.5958892107009888,9.845352172851562,7.200314998626709
0,141763,-13.621752738952637,55.326942443847656,-11.696432113647461,0.1744256317615509
0,141766,-4.086869716644287,97.45079040527344,10.30380916595459,3.216909408569336
0,141767,4.82731294631958,-55.048614501953125,-34.722537994384766,-1.672928810119629
0,141824,-13.387899398803711,-3.9019718170166016,5.261666774749756,14.37472152709961
0,141824,5.447585105895996,121.43254089355469,56.78413009643555,11.691213607788086
0,141824,28.157068252563477,-78.0824966430664,-31.821746826171875,-31.935258865356445
0,141825,-1.4201326370239258,-106.41600799560547,-27.48282241821289,14.301907539367676
0,141825,0.730276882648468,-16.702560424804688,29.93720054626465,24.743030548095703
0,141825,17.325956344604492,-19.97703742980957,-4.27424955368042,-29.834497451782227
0,141825,0.018675878643989563,12.298355102539062,-19.28605079650879,-15.376214981079102
0,141825,-8.672884941101074,6.590982437133789,14.53496265411377,21.11334991455078
0,141825,-17.391542434692383,9.160004615783691,9.881501197814941,20.296260833740234
0,141826,1.2435181140899658,39.570892333984375,-1.0244263410568237,-0.6040473580360413
0,141826,17.534690856933594,-0.6397348642349243,1.8341631889343262,-16.990995407104492
0,141826,-13.621336936950684,-55.86481857299805,-9.129242897033691,-0.5404949188232422
0,141826,-20.439674377441406,-30.30841064453125,-29.350996017456055,0.6909746527671814
0,141826,5.170932769775391,-25.268808364868164,-4.3794474601745605,-1.8407256603240967
0,141826,5.138950347900391,-13.136064529418945,16.591049194335938,10.659165382385254
0,141827,-0.8865301609039307,26.571969985961914,-1.4142165184020996,-4.639917850494385
0,141827,17.46885871887207,9.366430282592773,12.916241645812988,-7.168703556060791
0,141827,-7.842991828918457,6.486703872680664,1.6392589807510376,-0.8266070485115051
0,141827,-13.340557098388672,18.372787475585938,-19.236339569091797,-3.656085968017578
0,141827,12.207799911499023,12.916338920593262,2.9353129863739014,-0.7768814563751221
0,141828,-4.2161431312561035,23.932079315185547,11.701887130737305,-2.040595293045044
0,141828,-8.842965126037598,4.349065780639648,9.635478973388672,6.087212085723877
0,141828,3.6142706871032715,-16.331798553466797,7.486147403717041,-1.240291714668274
0,141828,2.5618276596069336,-15.210838317871094,-10.500197410583496,-16.764198303222656
0,141828,-3.7290730476379395,-20.695236206054688,-4.403376579284668,6.18482780456543
0,141828,6.366387844085693,-13.357746124267578,-3.1322875022888184,9.267400741577148
0,141829,7.4014482498168945,3.9981377124786377,-15.682276725769043,-8.43957805633545
0,141829,-6.262382984161377,10.385583877563477,16.233781814575195,24.706180572509766
0,141830,-2.4122822284698486,-21.54798698425293,12.367844581604004,15.231605529785156
0,141830,16.148574829101562,4.214623928070068,-26.082107543945312,-37.893516540527344
0,141830,2.6945066452026367,30.581472396850586,5.045405387878418,6.9411702156066895
0,141832,-17.211637496948242,13.816433906555176,7.178435325622559,28.719282150268555
0,141833,6.132458209991455,84.60179138183594,-7.478165626525879,-11.468766212463379
0,141836,11.271178245544434,134.02438354492188,44.6481819152832,-3.61775279045105
0,141837,-11.060060501098633,-18.034610748291016,4.660315036773682,-9.150053024291992
0,141840,-16.36565399169922,-118.27355194091797,-37.10499954223633,-11.208725929260254
0,141841,-8.510397911071777,-16.92922592163086,11.031511306762695,9.221373558044434
0,141844,8.682183265686035,94.24736022949219,3.774496555328369,2.7631514072418213
0,141845,21.525766372680664,45.98369598388672,1.080790400505066,21.902244567871094
0,141848,10.459195137023926,-191.85031127929688,-20.124900817871094,0.09836763143539429
0,141849,-24.132102966308594,-188.40072631835938,-26.725467681884766,-42.24513626098633
0,141852,-14.6201810836792,43.50300979614258,27.304113388061523,-8.359685897827148
0,141853,32.35346603393555,166.57400512695312,12.541398048400879,15.789615631103516
0,141856,-7.5964202880859375,76.38520050048828,-19.61555290222168,36.351661682128906
0,141857,-30.971200942993164,-88.18993377685547,1.5231900215148926,15.416237831115723
0,141860,16.067096710205078,-70.17671203613281,10.564065933227539,-34.73761749267578
0,141861,10.234756469726562,5.212669372558594,-1.6847515106201172,-23.206056594848633
0,141931,8.30820369720459,-65.05809783935547,-3.6554012298583984,-14.04825210571289
0,141931,5.211073398590088,-47.14620590209961,-5.034510612487793,-9.44896411895752
0,141931,-12.847533226013184,122.94026184082031,8.984158515930176,23.86266326904297
0,141931,1.2742072343826294,50.277503967285156,2.950228214263916,18.031673431396484
0,141932,-14.70661735534668,-26.348955154418945,10.361346244812012,-6.5386223793029785
0,141932,0.04712952673435211,20.417184829711914,7.432712078094482,2.0120925903320312
0,141932,30.193195343017578,-14.239245414733887,-24.578533172607422,18.540542602539062
0,141932,-6.451217174530029,8.367125511169434,-11.524592399597168,3.0892813205718994
0,141932,-9.700655937194824,38.91303634643555,-6.640817642211914,-21.893627166748047
0,141933,1.6313931941986084,12.30196475982666,6.345887660980225,4.726393222808838
0,141933,-2.0269792079925537,24.05270767211914,28.415014266967773,24.73179054260254
0,141933,17.36349105834961,50.50369644165039,-8.456866264343262,0.7140177488327026
0,141933,1.6670386791229248,21.631298065185547,-26.436405181884766,-28.03345489501953
0,141933,-21.525503158569336,-9.415024757385254,20.068628311157227,-6.06937837600708
0,141933,-2.4888603687286377,-18.99646759033203,22.059192657470703,17.143882751464844
0,141934,7.210521221160889,-49.50859451293945,-1.4377360343933105,-8.861085891723633
0,141934,0.18125776946544647,-67.48947143554688,-12.936477661132812,-9.391615867614746
0,141934,-10.07744026184082,-40.00119400024414,-14.514768600463867,10.501361846923828
0,141934,-2.5189146995544434,7.52863883972168,9.396909713745117,2.7581655979156494
0,141934,12.528934478759766,33.236907958984375,-6.234756946563721,-3.3243372440338135
0,141934,-10.759415626525879,24.56583023071289,2.650473117828369,12.223409652709961
0,141935,-24.302263259887695,25.793848037719727,13.153318405151367,4.857436656951904
0,141935,17.178573608398438,4.067009449005127,-4.542197227478027,-9.575765609741211
0,141935,26.923757553100586,-28.822059631347656,11.358748435974121,-8.230441093444824
0,141935,-12.4738130569458,-14.437427520751953,-14.337732315063477,-2.1622557640075684
0,141935,-17.23004913330078,-12.049805641174316,-26.38707733154297,2.4118642807006836
0,141936,2.872945547103882,-6.108950614929199,13.533246040344238,-2.5688295364379883
0,141936,12.378717422485352,-17.169227600097656,25.882522583007812,9.040436744689941
0,141936,3.8428938388824463,-19.305469512939453,2.5921785831451416,9.653604507446289
0,141936,-5.752140045166016,36.52793884277344,-12.669272422790527,-7.59099006652832
0,141936,-1.2932604551315308,21.265552520751953,-12.200956344604492,-19.050121307373047
0,141936,4.1032795906066895,1.140542984008789,2.1722655296325684,2.5674335956573486
0,141937,-4.469375133514404,22.01945686340332,20.919944763183594,26.738914489746094
0,141937,-10.685189247131348,-10.389434814453125,-7.6847429275512695,2.122633934020996
0,141937,-5.550673484802246,-30.263341903686523,-22.070459365844727,-17.754837036132812
0,141938,10.905389785766602,-13.702686309814453,-2.154165506362915,-18.196651458740234
0,141938,8.887909889221191,10.740052223205566,17.078510284423828,8.711008071899414
0,141938,-3.1579744815826416,5.308172225952148,29.97368812561035,3.006512403488159
0,141940,2.376171827316284,-28.607419967651367,-16.35295295715332,-11.528085708618164
0,141941,14.41645336151123,-3.5876362323760986,-16.895465850830078,8.450028419494629
0,141944,4.471982479095459,133.05442810058594,21.971837997436523,-2.3548507690429688
0,141945,-24.68024444580078,43.76176071166992,-17.298734664916992,16.385292053222656
0,141948,-12.321630477905273,-226.6971435546875,-20.217023849487305,-16.516176223754883
0,141949,19.79865264892578,-131.06898498535156,22.79043197631836,-47.13737487792969
0,141952,10.761933326721191,99.55120086669922,-11.751092910766602,50.45942306518555
0,141953,-4.101226329803467,158.5638885498047,-3.9190726280212402,16.088743209838867
0,141956,4.072317600250244,66.34130096435547,22.834516525268555,-56.73326873779297
0,141957,-12.964813232421875,-52.73515701293945,-37.521484375,60.32554626464844
0,141960,-10.481830596923828,-69.22205352783203,-5.414870738983154,64.51660919189453
0,141961,18.833444595336914,-17.558195114135742,34.052040100097656,-62.26128005981445
0,141964,14.211088180541992,148.18841552734375,23.957475662231445,-36.62028503417969
0,141965,-9.88869857788086,70.19036865234375,29.875181198120117,29.02342987060547
0,141968,-13.63873291015625,-238.06353759765625,-39.958038330078125,5.906665325164795
0,141969,3.8470122814178467,-158.0854034423828,-67.30217742919922,-18.423259735107422
0,142050,19.045635223388672,83.6680679321289,30.736881256103516,-21.473180770874023
0,142050,-1.8911020755767822,64.60265350341797,38.360145568847656,6.456818103790283
0,142050,-23.746204376220703,-10.450027465820312,-12.994170188903809,18.3115177154541
0,142050,14.267626762390137,-13.181221008300781,7.1699910163879395,-35.180057525634766
0,142051,16.1163387298584,-37.01783752441406,-6.606806755065918,-17.117061614990234
0,142051,-29.1756649017334,11.894042015075684,-20.570087432861328,28.81448745727539
0,142051,-2.4407248497009277,64.87652587890625,-0.017198819667100906,21.552640914916992
0,142051,18.85938835144043,48.23855972290039,16.247814178466797,9.742066383361816
0,142051,-13.895753860473633,55.92250061035156,11.905656814575195,-15.75196361541748
0,142051,-12.394319534301758,27.236610412597656,-6.7270026206970215,-5.0450944900512695
0,142052,9.73224925994873,8.92462158203125,0.5332694053649902,18.83357048034668
0,142052,12.438628196716309,0.09638042002916336,-6.562411785125732,17.78752326965332
0,142052,-4.899254322052002,-14.881782531738281,-4.850681304931641,-13.590289115905762
0,142052,-13.235854148864746,-24.96999168395996,8.19171142578125,-19.481483459472656
0,142052,4.044170379638672,-17.841938018798828,-16.216276168823242,9.520923614501953
0,142053,6.487940788269043,16.282516479492188,0.6769251823425293,7.438597202301025
0,142053,-14.805621147155762,2.2546157836914062,-0.15892979502677917,1.6735239028930664
0,142053,0.05810391530394554,-14.535767555236816,-22.59525489807129,-4.367320537567139
0,142053,6.050352096557617,11.650819778442383,16.844167709350586,16.388263702392578
0,142053,1.3026306629180908,14.074111938476562,22.475698471069336,9.846203804016113
0,142053,12.038676261901855,1.7853752374649048,1.2238749265670776,-17.0413818359375
0,142054,-10.96924877166748,1.4117246866226196,1.5730195045471191,5.709576606750488
0,142054,-2.218093156814575,-29.724536895751953,-18.01926612854004,3.840075969696045
0,142054,11.353988647460938,-49.315677642822266,-15.195785522460938,-10.255687713623047
0,142054,-22.07463836669922,-16.56983757019043,18.28734016418457,2.516575336456299
0,142054,-9.713891983032227,27.930849075317383,6.13877534866333,-0.18211612105369568
0,142054,22.057781219482422,8.150789260864258,-5.995212078094482,-19.01921844482422
0,142055,12.31943416595459,-22.932109832763672,-2.5446085929870605,-15.410687446594238
0,142055,-15.906575202941895,18.901578903198242,1.014108419418335,7.060336589813232
0,142055,-9.497883796691895,34.248321533203125,25.076995849609375,11.0419340133667
0,142055,20.5657958984375,-2.297395706176758,-6.332927703857422,-4.167842864990234
0,142055,-3.1217591762542725,-21.333343505859375,-29.46269416809082,-1.4482148885726929
0,142055,-21.23223876953125,-27.790573120117188,8.544242858886719,26.833389282226562
0,142056,15.172041893005371,-19.077980041503906,12.864733695983887,3.4906370639801025
0,142056,13.991362571716309,6.650709629058838,-5.619919776916504,-14.913666725158691
0,142056,-11.979610443115234,-6.657425403594971,2.3159406185150146,23.71384620666504
0,142056,7.801178455352783,10.8016939163208,-5.6743597984313965,-1.1920549869537354
0,142056,14.041243553161621,40.50514221191406,-1.0409616231918335,-5.280966281890869
0,142056,-3.4934873580932617,-1.7950255870819092,31.1157283782959,15.379800796508789
0,142057,-5.650418281555176,3.688990592956543,-0.7762044072151184,-9.041136741638184
0,142058,9.277681350708008,1.1480311155319214,-16.26218032836914,-5.508754253387451
0,142058,17.57699966430664,-23.97233009338379,7.091131210327148,-5.750127792358398
0,142058,5.566013336181641,8.041082382202148,-8.460116386413574,-16.763357162475586
0,142058,-18.831375122070312,-23.025997161865234,-10.418744087219238,-12.54220962524414
0,142060,-11.826759338378906,-23.390525817871094,19.55119514465332,-24.735685348510742
0,142061,-7.324364185333252,33.8171501159668,15.126917839050293,-13.289305686950684
0,142064,-16.932640075683594,78.86166381835938,-17.181066513061523,20.098506927490234
0,142065,16.63250732421875,27.884538650512695,-7.382081508636475,-9.301666259765625
0,142068,4.104865550994873,-188.84446716308594,-1.473227858543396,-46.86498260498047
0,142069,-2.0001204013824463,-144.4170684814453,-27.655048370361328,3.4688074588775635
0,142072,-3.4674925804138184,92.54914855957031,-14.308833122253418,78.230224609375
0,142073,-14.151060104370117,160.49169921875,22.264671325683594,24.114355087280273
0,142076,12.520045280456543,105.6749267578125,43.194034576416016,-35.28475570678711
0,142077,-19.519166946411133,-35.613162994384766,8.969193458557129,4.061188697814941
0,142080,-13.048271179199219,-75.3565444946289,-31.40715789794922,15.948236465454102
0,142081,38.91910934448242,-28.154354095458984,-10.91649341583252,12.519574165344238
0,142084,11.005833625793457,68.21286010742188,-2.897223472595215,5.920974254608154
0,142085,-18.642309188842773,67.10527038574219,6.798344135284424,-4.29072380065918
0,142088,1.7496260404586792,-155.2396240234375,2.2469921112060547,18.59550666809082
0,142089,9.395244598388672,-147.60333251953125,-17.935062408447266,-4.323050498962402
0,142092,0.6641349792480469,84.93959045410156,18.646080017089844,-74.51161193847656
0,142093,-3.019327163696289,165.45884704589844,14.570680618286133,-29.713281631469727
0,142185,-13.985283851623535,52.56068420410156,-39.233646392822266,71.68548583984375
0,142186,-9.897771835327148,-85.04198455810547,-13.392168045043945,53.78144073486328
0,142186,22.857444763183594,-77.46426391601562,30.844058990478516,-21.8088321685791
0,142186,15.866951942443848,-4.5826592445373535,2.2480499744415283,-54.235225677490234
0,142186,-3.6692891120910645,17.691619873046875,-19.214540481567383,-11.529777526855469
0,142186,-2.273939847946167,28.713703155517578,11.390437126159668,36.01089859008789
0,142186,-20.8117733001709,39.8701057434082,38.08604049682617,3.1821470260620117
0,142187,1.4902613162994385,13.866189002990723,-1.6526211500167847,-17.33124351501465
0,142187,23.711505889892578,-12.346147537231445,-28.05779457092285,0.09562958031892776
0,142187,-21.8876895904541,-15.236462593078613,8.929824829101562,-0.5227683782577515
0,142187,-4.665511608123779,-41.69841003417969,15.653007507324219,-12.990992546081543
0,142187,30.972177505493164,-70.08029174804688,-7.689747333526611,-4.751935958862305
0,142187,-11.044910430908203,-8.87031078338623,-7.736966133117676,-1.7005679607391357
0,142188,-20.46902084350586,26.124614715576172,-9.397075653076172,-2.5449280738830566
0,142188,8.62618350982666,-6.914323806762695,0.019814692437648773,37.20722579956055
0,142188,2.787808418273926,43.77336502075195,10.649301528930664,4.957694053649902
0,142188,-18.233264923095703,32.37349319458008,-13.862884521484375,-18.37034797668457
0,142188,-4.437432765960693,-35.46870422363281,2.266594171524048,36.0164680480957
0,142188,15.556954383850098,23.612470626831055,20.235387802124023,-5.285660266876221
0,142189,12.513631820678711,27.250871658325195,-0.661758542060852,-30.79861068725586
0,142189,-10.513076782226562,-58.059783935546875,-17.908771514892578,19.01100730895996
0,142189,-10.50642204284668,-23.507556915283203,5.936123371124268,-3.612557888031006
0,142189,15.376264572143555,17.64851951599121,11.289305686950684,-49.768741607666016
0,142189,3.7714059352874756,-8.090867042541504,-25.91495132446289,26.088603973388672
0,142189,-7.185000896453857,27.28369903564453,9.452425003051758,52.476566314697266
0,142190,12.579665184020996,40.06166458129883,12.634503364562988,-40.59132385253906
0,142190,-13.426600456237793,-16.153779983520508,-19.149837493896484,-16.150299072265625
0,142190,-25.985313415527344,-4.804165840148926,-9.520878791809082,13.606773376464844
0,142190,25.20643424987793,20.131153106689453,-7.81206750869751,-21.9785213470459
0,142190,11.9658203125,-22.111202239990234,8.767308235168457,5.064630508422852
0,142191,-23.684810638427734,-4.721601486206055,3.570974111557007,30.97470474243164
0,142191,-5.4560747146606445,20.48797035217285,15.407743453979492,-4.322412967681885
0,142191,12.448149681091309,-4.607368469238281,18.230146408081055,-14.347502708435059
0,142191,6.628930568695068,-6.98792839050293,-15.6442289352417,9.376835823059082
0,142191,1.4313154220581055,21.245574951171875,9.679961204528809,1.1275986433029175
0,142191,9.1906156539917,35.89916229248047,10.329912185668945,7.244937419891357
0,142192,4.782691478729248,-4.681377410888672,-39.04753875732422,24.964033126831055
0,142192,-1.398007869720459,11.90224838256836,-8.948665618896484,9.07314682006836
0,142192,-2.7280867099761963,29.693199157714844,31.717510223388672,-15.17187786102295
0,142192,-5.522304534912109,-17.63007354736328,-4.789063930511475,9.429750442504883
0,142192,-12.558943748474121,0.553337574005127,-3.5733296871185303,11.271050453186035
0,142192,12.750499725341797,-7.037703990936279,18.32137680053711,-38.17008590698242
0,142193,20.626808166503906,-37.43791198730469,-17.82880401611328,-5.3466362953186035
0,142193,-7.341525554656982,-1.0400092601776123,-21.961162567138672,23.147016525268555
0,142193,-4.705652236938477,22.04135513305664,30.572187423706055,-10.424562454223633
0,142193,-15.023716926574707,24.45465660095215,-5.122838020324707,-12.283751487731934
0,142194,-5.740559101104736,30.267948150634766,-17.6636962890625,5.401457786560059
0,142195,8.844954490661621,-10.362406730651855,47.260345458984375,-11.707537651062012
0,142195,-1.3214385509490967,-48.15194320678711,11.372488975524902,-17.180904388427734
0,142195,-6.198357105255127,-16.837358474731445,-40.77064895629883,0.4198392927646637
0,142196,-23.662925720214844,-20.685867309570312,-26.08006477355957,-39.074466705322266
0,142198,-1.0979334115982056,-22.372159957885742,28.941879272460938,-1.1632356643676758
0,142199,29.40387725830078,-5.429002285003662,-0.7801593542098999,50.4074592590332
0,142202,2.3867552280426025,3.8685905933380127,-20.511131286621094,-15.501523971557617
0,142203,-30.668794631958008,80.02020263671875,23.071609497070312,-15.225522994995117
0,142206,15.526140213012695,-7.663128852844238,-8.555294036865234,95.77710723876953
0,142207,57.91673278808594,-158.3602294921875,-21.120052337646484,46.531551361083984
0,142210,-17.1096248626709,-136.47750854492188,-7.608725070953369,-109.31022644042969
0,142211,-40.0589714050293,-12.49598217010498,19.25857925415039,-34.496986389160156
0,142214,16.73712921142578,265.2156982421875,13.606459617614746,33.18278884887695
0,142303,12.594347953796387,235.23464965820312,15.614729881286621,10.151017189025879
0,142304,-21.50290298461914,-90.96916961669922,13.390438079833984,11.061203956604004
0,142304,2.0974669456481934,-114.9362564086914,-34.25724411010742,-14.15545654296875
0,142304,-2.2221627235412598,-7.225404262542725,15.272353172302246,0.7292511463165283
0,142304,-19.93160057067871,17.032424926757812,27.586605072021484,-16.64227867126465
0,142304,16.33837890625,-0.12731526792049408,-35.47947311401367,-33.41434097290039
0,142304,4.73677921295166,-9.850690841674805,0.26477497816085815,12.735625267028809
0,142305,-7.617317199707031,-12.530173301696777,16.94556999206543,34.859745025634766
0,142305,-0.6901687979698181,-23.558637619018555,-20.112520217895508,15.806469917297363
0,142305,6.6081366539001465,-24.049541473388672,-2.632441282272339,2.9196550846099854
0,142305,17.410823822021484,-47.55885314941406,-12.326199531555176,7.0427680015563965
0,142305,-2.4191858768463135,-38.249595642089844,-19.998926162719727,10.187483787536621
0,142305,-6.672640323638916,16.959943771362305,9.32089614868164,-13.23946475982666
0,142306,7.466662883758545,24.501148223876953,13.584099769592285,-22.47799301147461
0,142306,12.384861946105957,1.8372855186462402,-1.339597463607788,11.818635940551758
0,142306,1.8168033361434937,33.22168731689453,-11.691916465759277,-13.216512680053711
0,142306,-7.95611047744751,40.446414947509766,8.258651733398438,-26.4352970123291
0,142306,-7.748520374298096,-2.3469767570495605,16.46292495727539,6.041001796722412
0,142307,-6.611067295074463,-17.67644691467285,-11.91152572631836,10.25919246673584
0,142307,1.525534987449646,-10.278002738952637,1.2094882726669312,12.752120971679688
0,142307,-8.503355979919434,-5.4995951652526855,8.772351264953613,-10.829395294189453
0,142307,6.44027853012085,-19.902986526489258,-25.02522850036621,-1.1113409996032715
0,142307,25.216259002685547,-15.553913116455078,13.434110641479492,14.336143493652344
0,142307,-9.291122436523438,15.813701629638672,22.00432014465332,-22.50783348083496
0,142308,-19.917621612548828,3.752795457839966,-15.620720863342285,-7.877960205078125
0,142308,-6.026032447814941,-3.9297935962677,6.498754501342773,33.782310485839844
0,142308,-12.888134956359863,23.799394607543945,-10.85374927520752,-14.752863883972168
0,142308,-2.4235055446624756,-6.244932651519775,-1.8254481554031372,-8.559366226196289
0,142308,13.947648048400879,-14.910168647766113,27.185102462768555,40.85957717895508
0,142308,10.42638111114502,-1.1290273666381836,-21.763729095458984,-8.119210243225098
0,142309,2.882103681564331,-5.096258640289307,-22.313379287719727,1.4076392650604248
0,142309,-9.088566780090332,33.127586364746094,18.085100173950195,17.432619094848633
0,142309,-14.222538948059082,-1.1921466588974,6.064164161682129,-15.440364837646484
0,142309,10.852590560913086,-39.16877365112305,-20.603254318237305,-12.858115196228027
0,142309,20.111446380615234,30.94366455078125,3.2125000953674316,7.188995361328125
0,142309,-21.900691986083984,26.722984313964844,28.234704971313477,7.572131633758545
0,142310,-17.54645347595215,-17.196321487426758,12.668010711669922,-4.7299909591674805
0,142310,14.656667709350586,31.499116897583008,3.6087357997894287,-16.536781311035156
0,142310,15.032296180725098,23.80519676208496,-12.626452445983887,-29.053823471069336
0,142310,-2.8329293727874756,-34.169158935546875,-3.2516467571258545,4.301501274108887
0,142310,-1.9934715032577515,-13.047602653503418,16.001237869262695,27.54009246826172
0,142311,15.814197540283203,8.829411506652832,-14.899181365966797,-6.35723352432251
0,142311,-5.329158306121826,-15.864136695861816,-5.118391990661621,-17.07269859313965
0,142311,-14.610502243041992,15.684710502624512,18.480613708496094,9.636357307434082
0,142311,5.846380710601807,25.92978286743164,-20.295305252075195,23.204792022705078
0,142312,12.453994750976562,55.77069091796875,-6.683372974395752,34.82358932495117
0,142312,0.1484631448984146,85.34467315673828,24.961095809936523,16.38582992553711
0,142313,-4.775835990905762,-41.28429412841797,-11.175812721252441,-20.640188217163086
0,142313,3.2023937702178955,-57.909576416015625,-7.498256206512451,-10.262889862060547
0,142314,4.525178909301758,34.027122497558594,15.674423217773438,-28.456979751586914
0,142315,-27.588796615600586,21.684070587158203,-0.17231334745883942,-45.680320739746094
0,142318,-17.208290100097656,-46.96548080444336,-21.881946563720703,14.506210327148438
0,142319,41.593650817871094,-54.56935119628906,5.749443531036377,56.490447998046875
0,142322,19.413211822509766,51.04402542114258,15.700823783874512,25.285722732543945
0,142324,-31.16210174560547,41.970645904541016,-30.913066864013672,-51.91318130493164
0,142325,-16.189937591552734,-117.49134826660156,-26.21412467956543,-53.037532806396484
0,142328,19.744709014892578,-147.92201232910156,13.936052322387695,25.01061248779297
0,142329,13.228254318237305,-86.45308685302734,6.911961555480957,21.310503005981445
0,142332,-2.1550822257995605,46.10871887207031,-10.670838356018066,-39.92566680908203
0,142333,8.115015029907227,178.23126220703125,43.56245422363281,-30.31757354736328
0,142336,-35.79613494873047,91.14462280273438,14.091973304748535,74.67223358154297
0,142337,-37.68996810913086,-33.852874755859375,-59.15742874145508,139.12652587890625
0,142340,73.94490051269531,-42.759239196777344,14.77263069152832,-32.7856559753418
0,142341,23.390642166137695,-6.620961666107178,56.04977798461914,-171.5197296142578
0,142436,-84.92333221435547,21.310617446899414,-4.078117847442627,-42.18826675415039
0,142437,-5.268774032592773,17.69046401977539,-23.966829299926758,51.698875427246094
0,142437,43.230220794677734,5.5361857414245605,-0.13039733469486237,30.167835235595703
0,142437,0.8521534204483032,0.6420425772666931,-1.5917549133300781,3.998981475830078
0,142437,-14.16130256652832,-8.500597953796387,-15.20148754119873,20.773818969726562
0,142437,-3.856306552886963,-33.23716354370117,-3.4879748821258545,13.921953201293945
0,142437,15.987669944763184,-16.41461944580078,9.54808521270752,-17.226409912109375
0,142438,7.210125923156738,-16.004295349121094,1.1262284517288208,8.876020431518555
0,142438,-10.372920989990234,-21.10400390625,-5.156476020812988,5.780004978179932
0,142438,-6.059267044067383,15.315773010253906,3.261526107788086,-5.539416790008545
0,142438,2.3414971828460693,7.4124274253845215,-1.7946807146072388,15.890316009521484
0,142438,6.555007457733154,19.446352005004883,-7.5684733390808105,20.59330177307129
0,142438,-0.5904138684272766,40.07160568237305,17.242271423339844,21.94510269165039
0,142439,8.597043991088867,18.858610153198242,14.304275512695312,-7.097408771514893
0,142439,5.322369575500488,-7.1361212730407715,-19.70505714416504,-8.193520545959473
0,142439,0.7214685678482056,-25.279369354248047,3.158243417739868,12.220423698425293
0,142439,23.74494171142578,-32.11647415161133,-6.537338733673096,-38.94904708862305
0,142439,-13.708970069885254,-22.983644485473633,-32.23433303833008,-23.912649154663086
0,142439,-25.179244995117188,-0.5708225965499878,29.611360549926758,3.838134527206421
0,142440,14.77137565612793,7.881835460662842,18.849931716918945,-25.630661010742188
0,142440,3.5603573322296143,26.604415893554688,-22.521419525146484,4.960452079772949
0,142440,-4.746953010559082,20.304391860961914,11.115872383117676,10.947307586669922
0,142440,0.0361381433904171,-16.576414108276367,1.7792699337005615,-19.738178253173828
0,142440,-2.82534122467041,10.102107048034668,-7.466623306274414,23.785913467407227
0,142441,-10.502573013305664,19.066743850708008,6.834875583648682,24.44498634338379
0,142441,5.338891983032227,-32.3790283203125,-11.13127326965332,-14.472176551818848
0,142441,16.1080322265625,-6.7612690925598145,-2.703057289123535,3.7180492877960205
0,142441,-12.10238265991211,36.69828796386719,12.775167465209961,21.59380340576172
0,142441,-10.909262657165527,12.877453804016113,-10.599588394165039,0.3524978458881378
0,142441,-1.6169514656066895,-5.771708965301514,-16.908720016479492,-13.520646095275879
0,142442,-10.591180801391602,-3.344996452331543,12.428949356079102,29.258190155029297
0,142442,9.41511058807373,18.13633918762207,10.4877347946167,8.502225875854492
0,142442,8.800827980041504,0.997992753982544,-6.98333215713501,-29.987321853637695
0,142442,-19.725679397583008,-18.805784225463867,11.285987854003906,-24.484838485717773
0,142442,2.54685378074646,11.7416410446167,3.412233829498291,-37.74179458618164
0,142442,22.385574340820312,2.130094051361084,-10.935967445373535,0.47212928533554077
0,142443,-9.871988296508789,-18.008832931518555,9.959866523742676,18.772079467773438
0,142443,-8.152846336364746,0.056519150733947754,22.178075790405273,-15.931052207946777
0,142443,21.476787567138672,-7.1025238037109375,-4.606262683868408,-10.783437728881836
0,142443,-6.565684795379639,-5.373585224151611,-6.2649312019348145,-2.2867681980133057
0,142443,-3.500608444213867,-2.205061912536621,-4.005847454071045,-0.8409028649330139
0,142443,7.845303058624268,-36.212867736816406,-27.229707717895508,10.248156547546387
0,142444,-18.291818618774414,-1.3036450147628784,2.4939026832580566,26.671810150146484
0,142444,20.332595825195312,30.273231506347656,13.713641166687012,4.982888698577881
0,142444,14.385611534118652,-9.027153968811035,4.8845438957214355,-9.636476516723633
0,142444,-19.139156341552734,-30.215211868286133,-8.431672096252441,2.8751392364501953
0,142444,-5.257551670074463,-16.58139419555664,-11.513833999633789,-17.117868423461914
0,142446,-10.023430824279785,-21.913585662841797,31.173683166503906,7.701860427856445
0,142446,7.914409637451172,-28.684293746948242,-2.8445775508880615,28.26764678955078
0,142446,9.525569915771484,5.004367351531982,-34.42243576049805,3.5056209564208984
0,142446,-5.095724582672119,24.23276710510254,29.481204986572266,-5.713515758514404
0,142446,-0.6860367655754089,18.48208999633789,13.526670455932617,-1.2367074489593506
0,142448,-1.2375974655151367,-46.487483978271484,-41.14139938354492,14.483601570129395
0,142449,1.9907959699630737,-98.42090606689453,9.610116004943848,-6.6979756355285645
0,142452,-16.609455108642578,85.10872650146484,23.364662170410156,-72.90503692626953
0,142453,-23.111719131469727,213.15695190429688,-35.942203521728516,3.3808658123016357
0,142456,22.005779266357422,34.22292709350586,-42.45595169067383,181.85809326171875
0,142457,46.515377044677734,-53.914520263671875,22.304933547973633,39.35703659057617
0,142460,-1.6012625694274902,-16.76089859008789,79.1443099975586,-246.07293701171875
0,142461,-53.27259826660156,-10.926186561584473,-0.9898428916931152,-91.97132873535156
0,142464,26.003450393676758,67.4718017578125,-44.23727035522461,292.181396484375
0,142465,57.838619232177734,11.326684951782227,27.19720458984375,140.32342529296875
0,142468,-32.50672912597656,-216.68797302246094,-8.909168243408203,-249.1791229248047
0,142469,-18.862327575683594,-146.4646453857422,-46.80820083618164,-110.7213134765625
0,142472,-22.403749465942383,147.0460662841797,16.32738494873047,43.847190856933594
0,142473,-12.740493774414062,180.99606323242188,21.915754318237305,5.898444652557373
0,142476,30.36248207092285,3.7962405681610107,5.448690414428711,63.29983139038086
0,142477,-7.317783832550049,-90.7947006225586,16.268712997436523,18.907930374145508
0,142480,-8.9222993850708,-29.486038208007812,-16.40416145324707,-47.82365036010742
0,142481,10.594234466552734,25.352413177490234,-44.36011505126953,-49.22112274169922
0,142484,-11.747577667236328,85.62364959716797,17.072519302368164,-11.317184448242188
0,142590,21.17133140563965,-83.90116119384766,57.58695602416992,56.72774124145508
0,142590,41.689884185791016,-219.75177001953125,-17.27263069152832,18.199607849121094
0,142590,-19.480642318725586,112.06635284423828,-17.32508087158203,-10.19273853302002
0,142590,-9.422239303588867,118.91441345214844,9.060863494873047,28.984439849853516
0,142590,-3.0808823108673096,-79.87809753417969,-12.209929466247559,5.7848615646362305
0,142591,-18.979188919067383,-23.302656173706055,16.272615432739258,-13.448683738708496
0,142591,3.3726346492767334,-4.536806106567383,-1.703594446182251,-8.532661437988281
0,142591,3.057353973388672,9.29560661315918,-32.393524169921875,2.9192054271698
0,142591,-15.136955261230469,54.11625671386719,18.30959701538086,14.647781372070312
0,142591,1.0532615184783936,60.17245101928711,17.54697036743164,-14.615394592285156
0,142591,9.871498107910156,62.09099197387695,-23.36553192138672,2.006350517272949
0,142592,-20.712427139282227,41.19910430908203,8.400863647460938,43.13411331176758
0,142592,2.4244911670684814,8.298065185546875,17.138286590576172,5.170317649841309
0,142592,21.17198944091797,4.339277267456055,-13.781636238098145,-8.988061904907227
0,142592,-0.948832631111145,-44.789337158203125,-14.484139442443848,2.9617810249328613
0,142592,1.4442280530929565,-64.58476257324219,-2.0671780109405518,-23.568761825561523
0,142592,0.9751078486442566,-38.5405158996582,-3.0892555713653564,-24.588903427124023
0,142593,-1.0057380199432373,-17.08356285095215,-13.926947593688965,-1.1397385597229004
0,142593,-7.067811012268066,8.640750885009766,0.6519618034362793,25.826875686645508
0,142593,-4.163865089416504,16.645158767700195,14.14005184173584,4.674428939819336
0,142593,-0.5690657496452332,24.615394592285156,-12.477004051208496,-19.10464096069336
0,142593,-7.134605884552002,19.265052795410156,4.642421722412109,9.463496208190918
0,142594,16.265066146850586,6.090116500854492,23.568662643432617,0.15351612865924835
0,142594,6.4877777099609375,-29.158262252807617,-10.727699279785156,2.7568860054016113
0,142594,-9.057146072387695,-44.721160888671875,-20.35664939880371,32.63015365600586
0,142594,26.9022159576416,-13.790726661682129,9.055977821350098,16.990432739257812
0,142594,11.404321670532227,-25.653940200805664,11.14409065246582,-10.380881309509277
0,142594,-15.397162437438965,-16.253660202026367,-7.265618324279785,-26.096641540527344
0,142595,0.8204413056373596,16.554492950439453,-11.598814964294434,-25.798078536987305
0,142595,-21.08380889892578,6.555810451507568,-4.523133277893066,-11.714110374450684
0,142595,-22.546056747436523,28.55694007873535,35.88203048706055,-7.10510778427124
0,142595,8.396336555480957,55.32783508300781,9.811104774475098,-19.72020721435547
0,142595,6.309219837188721,10.361696243286133,-12.35389232635498,-24.824954986572266
0,142595,9.9259033203125,-37.8246955871582,12.184930801391602,-2.969938039779663
0,142596,-5.535634517669678,-20.816808700561523,0.783233642578125,8.355570793151855
0,142596,-15.549999237060547,27.327054977416992,1.3346377611160278,0.04613345488905907
0,142596,6.822350978851318,15.056644439697266,-9.251869201660156,-14.213340759277344
0,142596,-0.6991630792617798,-36.24295425415039,2.0738768577575684,10.400930404663086
0,142596,-0.6400132775306702,7.620772361755371,4.784914970397949,26.022212982177734
0,142596,-8.32196044921875,31.881010055541992,-21.40193748474121,-0.28886881470680237
0,142597,-8.04910945892334,-12.399785995483398,1.4480352401733398,22.332244873046875
0,142597,15.767842292785645,2.6962971687316895,6.576056003570557,6.752839088439941
0,142597,-1.1485307216644287,-4.661330223083496,-5.016292572021484,-21.098310470581055
0,142597,-4.86781120300293,-28.56328010559082,5.356002330780029,15.211133003234863
0,142597,9.258647918701172,-22.932462692260742,-1.2898749113082886,8.397967338562012
0,142597,-14.639398574829102,-25.886194229125977,-0.9380184412002563,-17.64801597595215
0,142598,-6.408384323120117,-6.874563217163086,7.5273332595825195,-7.355434417724609
0,142598,23.246665954589844,16.46722984313965,-11.475079536437988,1.2503160238265991
0,142598,12.137858390808105,-3.702026844024658,-7.763767719268799,4.683970928192139
0,142598,6.66636848449707,-7.849564552307129,9.653234481811523,25.945837020874023
0,142598,-6.830097675323486,26.273706436157227,-1.1396647691726685,-4.942276477813721
0,142598,0.09194299578666687,17.908559799194336,3.840363025665283,-23.769142150878906
0,142599,18.92123794555664,3.3774898052215576,10.662109375,25.3493595123291
0,142600,-1.6530251502990723,69.39529418945312,18.006019592285156,36.98395538330078
0,142600,-7.033265113830566,42.33863830566406,9.385533332824707,11.344595909118652
0,142600,-6.595747947692871,-64.24980926513672,-14.352333068847656,-26.11304473876953
0,142600,-7.387145042419434,-18.601160049438477,-5.3891167640686035,-4.739202976226807
0,142601,15.862585067749023,27.77289581298828,-15.119384765625,17.515182495117188
0,142602,14.173961639404297,22.995899200439453,2.0427651405334473,-20.329877853393555
0,142603,-8.37101936340332,19.47134017944336,18.477214813232422,-35.82155227661133
0,142606,-47.647796630859375,-96.58692932128906,-10.726274490356445,-45.274166107177734
0,142607,-67.99983215332031,-122.46314239501953,-32.644474029541016,87.80864715576172
0,142610,102.50241088867188,-4.973325729370117,-22.10329246520996,117.76927947998047
0,142611,113.2121810913086,46.433570861816406,24.75145149230957,-132.72979736328125
0,142614,-75.03657531738281,142.669189453125,12.411677360534668,-90.2200927734375
0,142615,-34.55390548706055,33.59506607055664,-41.80646514892578,93.2027816772461
0,142618,-13.507346153259277,-129.62857055664062,-2.0599045753479004,-17.192581176757812
0,142619,-21.40533447265625,46.17530059814453,69.48323822021484,-41.95973587036133
0,142622,5.555657386779785,104.95271301269531,17.641958236694336,45.498809814453125
0,142623,-27.417396545410156,-5.111231803894043,-33.75777053833008,-44.749515533447266
0,142626,37.55951690673828,-82.72827911376953,13.128105163574219,39.46274185180664
0,142627,52.450008392333984,-126.40866088867188,-18.938213348388672,101.5032730102539
0,142630,-55.39153289794922,-86.0390625,-62.39712142944336,-100.67169952392578
0,142631,-28.263019561767578,104.26615905761719,38.85872268676758,-48.460418701171875
0,142634,43.32426071166992,209.03517150878906,62.443660736083984,34.93719482421875
0,142635,-12.206521034240723,-17.876201629638672,-3.291996955871582,-36.310001373291016
0,142638,-22.889036178588867,-125.2639389038086,-34.347259521484375,117.04222869873047
0,142640,30.1269474029541,-16.274730682373047,-5.3125224113464355,91.1177978515625
0,142641,46.83925247192383,23.895483016967773,26.000930786132812,-154.5617218017578
0,142758,5.6343817710876465,28.53204917907715,-37.13123321533203,50.057437896728516
0,142759,-42.886741638183594,4.9138617515563965,-20.733474731445312,149.7268829345703
0,142759,-10.15660285949707,36.784271240234375,34.48076629638672,-86.16797637939453
0,142759,1.813668966293335,20.912988662719727,-5.413748741149902,-83.15391540527344
0,142759,-9.538293838500977,-52.24000930786133,-7.919551372528076,-10.257089614868164
0,142759,-10.55282974243164,-34.32329177856445,29.235668182373047,5.3946428298950195
0,142759,-12.684829711914062,-20.44808578491211,-4.09413480758667,-34.58066940307617
0,142760,21.386014938354492,-18.350011825561523,-25.960025787353516,-62.65736389160156
0,142760,10.861041069030762,-9.337409973144531,14.008852005004883,9.044100761413574
0,142760,-9.064934730529785,24.758663177490234,-1.3405792713165283,-3.2478017807006836
0,142760,10.831890106201172,42.50725555419922,-1.4121336936950684,-38.44318389892578
0,142760,2.2504286766052246,26.580169677734375,20.796737670898438,2.704406261444092
0,142760,-15.40160083770752,14.018537521362305,-32.11223602294922,0.2862696945667267
0,142761,6.808221817016602,19.011438369750977,10.096786499023438,1.0362257957458496
0,142761,3.4692506790161133,20.190168380737305,56.132991790771484,35.29593276977539
0,142761,-6.782605171203613,-27.62674903869629,-29.093477249145508,27.581623077392578
0,142761,22.70722770690918,-30.019454956054688,-19.396631240844727,23.89495277404785
0,142761,5.458371162414551,-0.48760974407196045,26.00084686279297,23.11347770690918
0,142761,-17.37320899963379,6.174969673156738,-6.6699113845825195,8.513089179992676
0,142762,-0.7328019142150879,2.142025947570801,-12.117227554321289,3.375913381576538
0,142762,6.000171661376953,-1.2324081659317017,-3.6074140071868896,-14.049778938293457
0,142762,-8.194470405578613,-1.027022123336792,12.229222297668457,-6.370760440826416
0,142762,-4.638805866241455,-10.011724472045898,9.529446601867676,24.134355545043945
0,142762,6.365988731384277,1.1824182271957397,-25.449451446533203,2.1251332759857178
0,142763,-10.405296325683594,-7.014166355133057,-20.182340621948242,-23.72324562072754
0,142763,-4.0628132820129395,-37.58268356323242,2.298053741455078,-10.286836624145508
0,142763,13.503684043884277,-27.477975845336914,7.673796653747559,16.74382972717285
0,142763,-3.102231502532959,-9.616569519042969,-0.7628745436668396,4.435405731201172
0,142763,-15.36613655090332,-6.427608489990234,-15.177382469177246,-22.268213272094727
0,142763,-2.706012725830078,14.086438179016113,-1.3104952573776245,8.621201515197754
0,142764,18.98636817932129,27.342262268066406,18.49330711364746,-8.111068725585938
0,142764,9.61448860168457,23.71797752380371,7.266143798828125,-32.58042907714844
0,142764,-25.841716766357422,-10.36999797821045,2.9945967197418213,5.733543395996094
0,142764,3.4365811347961426,-24.737937927246094,3.3864364624023438,7.659212112426758
0,142764,24.0025691986084,9.379555702209473,-4.331943988800049,9.746582984924316
0,142764,-8.837687492370605,0.9202674627304077,4.106187343597412,23.69768714904785
0,142765,-6.927852153778076,-15.7181396484375,-4.632236480712891,7.429952144622803
0,142765,12.47900390625,-14.213544845581055,-19.995084762573242,-4.970737457275391
0,142765,6.230331897735596,1.7236071825027466,3.024055004119873,1.5352157354354858
0,142765,-13.40294075012207,19.25438690185547,18.12738037109375,3.9001481533050537
0,142765,-13.379276275634766,-6.605161190032959,3.0926170349121094,-1.7319176197052002
0,142765,7.467380046844482,13.816455841064453,-8.2217435836792,-15.336012840270996
0,142766,25.23674964904785,20.598196029663086,-0.8488485217094421,-10.35024356842041
0,142766,-3.6461544036865234,-26.203536987304688,4.410066604614258,8.949165344238281
0,142766,-19.447891235351562,3.854369640350342,2.429812431335449,10.035172462463379
0,142766,4.200270652770996,14.91728401184082,-8.116538047790527,-0.8654089570045471
0,142766,-12.510560989379883,-24.38930892944336,-15.719823837280273,-18.05384063720703
0,142766,-8.008482933044434,-8.097173690795898,3.779694080352783,21.434823989868164
0,142767,22.557092666625977,25.627399444580078,7.762346267700195,23.60283088684082
0,142767,13.742877006530762,1.4039483070373535,-2.608920097351074,-18.695215225219727
0,142767,-11.082140922546387,-39.13385009765625,-4.922151565551758,9.821768760681152
0,142767,-7.055278301239014,-6.120053768157959,-7.733611583709717,15.757390022277832
0,142767,-1.4723272323608398,23.557689666748047,1.7604169845581055,-9.995862007141113
0,142768,-6.697979927062988,5.375243663787842,17.25334358215332,-7.1552629470825195
0,142768,8.070064544677734,-16.141923904418945,14.908648490905762,6.559301853179932
0,142768,8.261585235595703,3.2840659618377686,1.240867018699646,3.055800199508667
0,142768,-5.59586763381958,11.40356731414795,-11.064579963684082,-3.333550214767456
0,142768,-7.991826057434082,-18.505090713500977,1.5076267719268799,-17.13672637939453
0,142770,28.831172943115234,-8.576278686523438,11.92230224609375,-4.474759101867676
0,142770,26.96424102783203,17.651458740234375,-2.366365909576416,12.24567699432373
0,142770,-20.37240982055664,41.864234924316406,-8.485828399658203,-24.284324645996094
0,142770,-11.287436485290527,5.283260822296143,1.500599980354309,-17.601673126220703
0,142770,-9.161968231201172,-7.889253616333008,8.409625053405762,19.976591110229492
0,142770,-6.181691646575928,16.943967819213867,-8.904906272888184,5.7243499755859375
0,142772,7.028841495513916,47.94891357421875,-7.900676727294922,2.405751943588257
0,142773,-18.06268882751465,71.64373016357422,4.541511535644531,-3.9259934425354004
0,142776,-15.74384593963623,41.653785705566406,17.21036148071289,-71.14388275146484
0,142777,11.509018898010254,-11.628830909729004,10.168363571166992,-26.00411605834961
0,142780,9.95861530303955,-77.48635864257812,-18.60739517211914,59.82203674316406
0,142781,-17.820920944213867,15.222312927246094,-1.2096309661865234,36.384212493896484
0,142784,-15.478663444519043,68.82029724121094,2.488027811050415,3.6714560985565186
0,142785,14.817909240722656,-91.67919921875,2.472726821899414,-17.89336585998535
0,142788,23.222084045410156,-196.02947998046875,-3.213184356689453,1.1369438171386719
0,142789,2.2956321239471436,-99.73725891113281,-23.05609893798828,10.741196632385254
0,142792,7.967325210571289,115.97451782226562,-3.097064971923828,1.2061984539031982
0,142793,13.338641166687012,176.9785919189453,16.529224395751953,31.666959762573242
0,142796,-21.389442443847656,-14.76124382019043,10.2210054397583,55.39112091064453
0,142797,-21.70431900024414,-135.0409698486328,-30.219707489013672,-5.271846294403076
0,142800,8.493769645690918,-18.851917266845703,-15.574227333068848,-120.41619873046875
0,142801,28.275678634643555,119.9354019165039,36.7049674987793,-46.710411071777344
0,142804,-7.825583457946777,100.17894744873047,28.09783935546875,83.57561492919922
0,142805,-31.289844512939453,-53.1361198425293,-20.479217529296875,21.30705451965332
0,142808,16.242420196533203,-179.10633850097656,-28.279781341552734,-32.10904312133789
0,142809,24.349218368530273,-102.31285095214844,1.0218448638916016,-27.43903160095215
0,142812,-12.305530548095703,160.42050170898438,21.114999771118164,-4.437430381774902
0,142813,-5.501269817352295,177.7483673095703,29.072778701782227,45.05610275268555
0,142941,-3.660905361175537,-25.539470672607422,-18.483963012695312,19.34102439880371
0,142941,-5.1932783126831055,-49.44185256958008,-25.289936065673828,-14.006114959716797
0,142942,5.098045825958252,-19.990699768066406,11.775508880615234,19.17388153076172
0,142942,-4.711151123046875,-7.332466125488281,-6.515846252441406,-9.356117248535156
0,142942,0.2784729599952698,27.7890625,-4.547019958496094,-32.403358459472656
0,142942,-0.9781991243362427,37.640811920166016,22.50414276123047,23.719703674316406
0,142942,-2.77821683883667,23.650840759277344,12.302583694458008,22.794940948486328
0,142942,2.9110145568847656,0.27818208932876587,-12.09572696685791,-17.412734985351562
0,142943,4.244322299957275,-14.117413520812988,-17.6468505859375,-32.37754440307617
0,142943,8.606024742126465,-75.1551284790039,-5.026974678039551,-6.209605693817139
0,142943,-7.3994011878967285,-105.1852035522461,-7.896664142608643,23.575498580932617
0,142943,-10.461478233337402,-30.59818458557129,5.878833770751953,10.5535249710083
0,142943,18.82676887512207,22.558202743530273,8.14516544342041,-1.310280203819275
0,142944,-1.5544469356536865,19.962839126586914,7.3123016357421875,4.029160976409912
0,142944,-11.340533256530762,27.99765968322754,16.001766204833984,2.7923965454101562
0,142944,16.129079818725586,29.80869483947754,-20.45246124267578,-10.948050498962402
0,142944,-8.21682357788086,-4.887559413909912,-7.228725910186768,-13.245433807373047
0,142944,-14.584226608276367,-13.95046615600586,12.235665321350098,13.959678649902344
0,142944,2.9754273891448975,-0.14927175641059875,4.8442816734313965,15.69633960723877
0,142945,0.4492766559123993,-15.130709648132324,10.787420272827148,-27.544225692749023
0,142945,8.358716011047363,-19.0307559967041,2.1590914726257324,-12.507293701171875
0,142945,19.789216995239258,-25.841142654418945,-21.554811477661133,29.03802490234375
0,142945,3.7415430545806885,-6.990228652954102,-20.729047775268555,9.83175277709961
0,142945,-22.24394416809082,40.74932098388672,14.196662902832031,0.6288658976554871
0,142945,3.3316733837127686,28.985607147216797,25.238407135009766,-16.309566497802734
0,142946,22.96719741821289,-5.458324909210205,-3.1758267879486084,-28.896697998046875
0,142946,-29.6207332611084,9.273283004760742,-25.693782806396484,22.62344741821289
0,142946,-24.89959144592285,27.932178497314453,-1.640737533569336,29.49468231201172
0,142946,28.129671096801758,-15.298649787902832,5.333152770996094,-18.611055374145508
0,142946,5.973162651062012,-30.20763397216797,-7.356919288635254,-21.96900749206543
0,142946,-20.503219604492188,1.0447155237197876,5.647420883178711,20.105247497558594
0,142947,-5.044516563415527,-13.609829902648926,6.283535480499268,12.895102500915527
0,142947,9.257796287536621,-34.615440368652344,-21.858816146850586,-19.915164947509766
0,142947,-6.528507709503174,8.532254219055176,-5.823642253875732,8.662670135498047
0,142947,1.8396388292312622,26.185192108154297,23.24631690979004,-6.036442756652832
0,142947,21.893253326416016,-12.836018562316895,0.5591109395027161,-24.181272506713867
0,142947,-2.4170846939086914,10.037971496582031,1.3479305505752563,33.20809555053711
0,142948,-5.46842622756958,49.7414436340332,6.588644027709961,-2.028766632080078
0,142948,19.068801879882812,2.710000514984131,-0.41847920417785645,-32.8500862121582
0,142948,2.1958389282226562,-38.97031021118164,8.57946491241455,25.840465545654297
0,142948,-5.545257091522217,9.64789867401123,-2.9191067218780518,-1.315690040588379
0,142948,10.43853759765625,38.07027053833008,-12.369470596313477,-21.67718505859375
0,142948,-16.660724639892578,2.99946928024292,-0.8710525631904602,13.772787094116211
0,142949,1.381706953048706,-6.668554306030273,20.194591522216797,4.769420623779297
0,142949,16.981658935546875,-3.417616844177246,-4.837760925292969,-7.825291633605957
0,142949,-25.507551193237305,12.296831130981445,-21.219837188720703,7.547419548034668
0,142949,-14.035744667053223,24.373210906982422,11.615899085998535,3.311844825744629
0,142949,5.245758056640625,-22.120532989501953,4.239131450653076,-3.4451091289520264
0,142949,2.382563829421997,-28.14552879333496,0.5236834287643433,7.381034851074219
0,142950,-6.4137282371521,11.66893482208252,11.619136810302734,8.52224063873291
0,142950,-9.696045875549316,5.599784851074219,-8.152029037475586,0.8843214511871338
0,142950,7.0119805335998535,-18.695634841918945,-22.485984802246094,-12.574295997619629
0,142950,13.558051109313965,5.42983865737915,8.492168426513672,-5.875938415527344
0,142950,6.735769271850586,20.325056076049805,19.880212783813477,19.402231216430664
0,142951,-8.81359577178955,10.25987720489502,8.01333236694336,19.879545211791992
0,142951,13.319367408752441,37.27414321899414,-9.79175853729248,-7.347661972045898
0,142951,12.82754898071289,16.92932891845703,-20.887617111206055,-2.512761354446411
0,142951,-14.90349292755127,-7.050142288208008,18.99329948425293,-9.047836303710938
0,142951,-4.162100315093994,6.356482982635498,22.95470428466797,-10.990378379821777
0,142951,-0.951147735118866,-11.235382080078125,-11.419811248779297,16.797527313232422
0,142952,7.234889507293701,1.3856308460235596,-16.864864349365234,-14.333487510681152
0,142952,1.325506567955017,-8.282974243164062,-14.269182205200195,-24.002033233642578
0,142952,-15.475968360900879,-28.794761657714844,21.4112548828125,20.19298553466797
0,142952,-2.044262409210205,9.511028289794922,19.653623580932617,0.5957602262496948
0,142953,3.117774248123169,22.921979904174805,-34.02540588378906,-12.712199211120605
0,142954,-5.474827766418457,6.832302093505859,-9.699983596801758,23.33750343322754
0,142954,-10.095226287841797,-32.52790069580078,2.054525852203369,5.2359299659729
0,142954,2.943657159805298,-33.63402557373047,5.349863529205322,-20.65727424621582
0,142954,24.893491744995117,9.569080352783203,19.18781089782715,-0.6455715894699097
0,142954,0.879847526550293,-20.33518409729004,-26.345352172851562,19.916248321533203
0,142955,-22.98109245300293,-21.947343826293945,-20.459009170532227,-19.161882400512695
0,142958,4.226213455200195,-5.256113052368164,25.172393798828125,-44.913578033447266
0,142959,2.294145107269287,-13.850627899169922,13.564279556274414,-14.732132911682129
0,142962,-14.10963249206543,91.44741821289062,-4.141666412353516,31.59779930114746
0,142964,13.029304504394531,56.007877349853516,3.2871546745300293,64.43045043945312
0,142965,22.554622650146484,-124.87138366699219,-3.9242451190948486,8.311368942260742
0,142968,-15.601993560791016,-167.49566650390625,-25.85359764099121,-116.08712768554688
0,142969,-9.898818016052246,-69.40219116210938,-18.68927764892578,-35.6987190246582
0,142972,11.596298217773438,179.12937927246094,43.699527740478516,146.63755798339844
0,142973,-12.9248046875,199.75721740722656,39.659996032714844,44.344608306884766
0,142976,6.176261901855469,-20.909324645996094,-14.00858211517334,-41.23414993286133
0,142977,24.04663848876953,-65.4442367553711,-14.121427536010742,-20.639575958251953
0,142980,-4.008639812469482,-31.790481567382812,-2.1498451232910156,-43.331295013427734
0,142981,-18.839996337890625,35.095672607421875,0.822490394115448,33.87125778198242
0,142984,-1.0925445556640625,48.577091217041016,-12.379561424255371,38.6135368347168
0,142985,4.904277324676514,-60.76872253417969,1.541711688041687,-53.31355667114258
0,142988,-14.226051330566406,-134.73382568359375,-1.4161219596862793,-51.083011627197266
0,142989,0.5309242606163025,-56.60986328125,-11.61246109008789,16.810468673706055
0,142992,34.045501708984375,177.58169555664062,6.449151992797852,84.11048126220703
0,142993,16.97035026550293,127.25031280517578,-11.579084396362305,-0.9466384053230286
0,142996,-41.61404037475586,-93.56663513183594,19.44236946105957,-70.16386413574219
0,142997,-17.537919998168945,-62.65065002441406,4.026629447937012,1.3316140174865723
0,143136,27.115917205810547,-17.454486846923828,-39.84540939331055,11.907536506652832
0,143136,2.0301992893218994,3.0748658180236816,26.332082748413086,12.502793312072754
0,143136,-8.630121231079102,46.102203369140625,19.523313522338867,12.6039457321167
0,143136,-7.561577796936035,42.25652313232422,-5.720191478729248,7.676552772521973
0,143136,10.139519691467285,11.642245292663574,9.267220497131348,-7.47797966003418
0,143137,7.2064971923828125,-20.363248825073242,-22.26996612548828,-15.20262336730957
0,143137,-23.557857513427734,-28.05265235900879,-3.4641799926757812,10.05910587310791
0,143137,0.9686785340309143,-28.7123966217041,20.579614639282227,-9.16032886505127
0,143137,11.60600757598877,-40.03740310668945,-7.4771342277526855,-18.655786514282227
0,143137,-7.672873497009277,-24.41866111755371,-10.915407180786133,5.859127044677734
0,143137,0.9381957054138184,20.49504852294922,4.267299652099609,4.190974712371826
0,143138,12.11842155456543,39.868247985839844,7.641452312469482,4.9499053955078125
0,143138,-3.261749744415283,15.029017448425293,6.279923439025879,-5.554202079772949
0,143138,-7.256988525390625,11.108952522277832,-6.256363391876221,-8.970611572265625
0,143138,0.29266637563705444,32.50231170654297,-6.762605667114258,10.815853118896484
0,143138,-13.56304931640625,15.364465713500977,17.24759292602539,-1.148827075958252
0,143138,11.454129219055176,-7.1484198570251465,2.4837164878845215,-8.043676376342773
0,143139,18.433879852294922,-26.941747665405273,-18.320066452026367,-0.18751217424869537
0,143139,-2.5750327110290527,-32.528770446777344,-0.9919060468673706,15.696908950805664
0,143139,-0.8273357152938843,-5.376150131225586,10.739331245422363,19.642175674438477
0,143139,-7.321694374084473,19.943435668945312,15.673301696777344,7.710481643676758
0,143139,7.187552452087402,5.441662311553955,-8.066413879394531,-13.257659912109375
0,143139,10.746696472167969,-8.970669746398926,-21.51831817626953,7.47393274307251
0,143140,-14.81952953338623,13.947342872619629,22.551746368408203,17.9212589263916
0,143140,-8.69888687133789,-6.656911849975586,-1.5656726360321045,-30.219532012939453
0,143140,10.938566207885742,-9.87790584564209,-33.779693603515625,-16.02154541015625
0,143140,-0.6472050547599792,36.66984176635742,4.821507930755615,0.41757673025131226
0,143140,-9.051922798156738,16.928386688232422,9.782430648803711,13.073997497558594
0,143141,1.475833535194397,-8.645438194274902,3.680246114730835,11.990923881530762
0,143141,13.972295761108398,-12.93195629119873,7.567882061004639,-23.157014846801758
0,143141,16.694150924682617,-16.22463607788086,4.367101669311523,-8.3639554977417
0,143141,-15.980758666992188,14.050662994384766,1.6300632953643799,12.090853691101074
0,143141,-23.26674461364746,25.470111846923828,-6.055423736572266,-5.052356243133545
0,143141,19.013059616088867,-11.063785552978516,-16.663429260253906,-8.516979217529297
0,143142,-2.8032097816467285,-16.665666580200195,10.88817024230957,22.740781784057617
0,143142,-20.11546516418457,14.572671890258789,27.94339942932129,4.10312557220459
0,143142,9.98105239868164,-5.631627082824707,-28.16022300720215,-19.065502166748047
0,143142,3.4216294288635254,-37.476707458496094,-14.710536003112793,11.413726806640625
0,143142,4.5340728759765625,-21.3513240814209,32.283660888671875,13.776735305786133
0,143142,0.3468102514743805,-5.285821914672852,-3.8300042152404785,-11.039207458496094
0,143143,-14.225650787353516,2.3327248096466064,-31.573633193969727,-11.05080795288086
0,143143,-5.943687915802002,3.1672592163085938,2.826314687728882,6.586811065673828
0,143143,24.682632446289062,10.095329284667969,16.60599708557129,11.927635192871094
0,143143,17.668764114379883,26.097248077392578,-6.816927433013916,-0.8112747669219971
0,143143,-24.099597930908203,-11.339263916015625,23.492740631103516,-13.070409774780273
0,143143,2.0686399936676025,-25.819292068481445,-4.3340559005737305,-2.383650064468384
0,143144,8.627946853637695,3.6422040462493896,-22.72864532470703,16.92772674560547
0,143144,-13.235889434814453,0.06550834327936172,8.294278144836426,5.537947654724121
0,143144,4.906051158905029,-16.780899047851562,-20.645423889160156,-25.32855987548828
0,143144,-5.414397716522217,-24.620800018310547,2.7793424129486084,4.553324222564697
0,143144,-9.346882820129395,-18.206260681152344,12.793991088867188,38.102325439453125
0,143144,16.164857864379883,3.862654209136963,-2.237122058868408,-14.417532920837402
0,143145,11.905537605285645,37.074771881103516,-8.870173454284668,-33.17708206176758
0,143145,-17.130168914794922,13.878684997558594,-4.517035961151123,9.148235321044922
0,143145,-2.1809887886047363,-25.853517532348633,32.35511016845703,18.170948028564453
0,143145,14.494174003601074,16.682817459106445,0.5065749287605286,-0.37471243739128113
0,143145,0.5351738929748535,30.103498458862305,-4.843504428863525,-27.397693634033203
0,143145,4.183384418487549,-28.9980525970459,11.884702682495117,-17.914222717285156
0,143146,-8.506002426147461,-8.819422721862793,-2.9083967208862305,15.49349594116211
0,143146,-9.368946075439453,30.463623046875,4.4563140869140625,8.567184448242188
0,143146,-0.26202917098999023,-5.3105692863464355,-0.6344462037086487,9.238096237182617
0,143146,7.215818881988525,10.963153839111328,-13.612870216369629,12.513154983520508
0,143146,14.584417343139648,2.3031811714172363,-30.615148544311523,-11.766249656677246
0,143146,-14.178581237792969,-42.753074645996094,3.090359926223755,-15.73349380493164
0,143147,-10.760071754455566,5.948956489562988,31.36661148071289,13.808656692504883
0,143147,7.065017223358154,22.585752487182617,-9.671198844909668,1.2357418537139893
0,143147,-1.800395131111145,-31.123703002929688,-34.889156341552734,-12.183406829833984
0,143147,-6.377349376678467,-19.525447845458984,-9.318107604980469,19.60921859741211
0,143147,3.092125177383423,36.33025360107422,30.381269454956055,-0.43829235434532166
0,143149,5.856468200683594,-28.269710540771484,5.541482925415039,-18.06537628173828
0,143149,-17.346071243286133,-62.94754409790039,-25.329408645629883,-12.424574851989746
0,143149,1.6338324546813965,49.5350341796875,12.407648086547852,2.0101003646850586
0,143149,13.098671913146973,52.75897979736328,20.767377853393555,5.072623252868652
0,143149,-2.088318347930908,2.222939968109131,-5.829430103302002,-8.216814041137695
0,143149,-0.8576420545578003,-1.8372269868850708,4.531306743621826,17.424612045288086
0,143151,-10.081998825073242,41.822269439697266,-6.1366286277771,4.41790246963501
0,143152,20.909351348876953,139.27935791015625,4.2013397216796875,-12.167140007019043
0,143153,22.795433044433594,92.98504638671875,39.30482482910156,23.71708106994629
0,143156,-31.39252471923828,-74.52757263183594,-6.501984119415283,20.595054626464844
0,143157,-9.119022369384766,-95.80128479003906,-13.077733039855957,-41.58659744262695
0,143160,11.364131927490234,-4.56428861618042,13.586625099182129,-12.310018539428711
0,143161,-13.827373504638672,83.21659088134766,4.875895977020264,42.96937561035156
0,143164,10.742220878601074,11.571202278137207,-7.585221290588379,-1.1038211584091187
0,143165,18.504638671875,-173.8683319091797,-24.014793395996094,-22.458925247192383
0,143168,-6.42402458190918,-178.39476013183594,-19.37563133239746,-26.099109649658203
0,143169,-6.790741443634033,-62.607975006103516,-5.430143356323242,-8.37192440032959
0,143172,-3.199225425720215,183.14125061035156,4.368595123291016,80.45673370361328
0,143173,-5.441488742828369,163.29547119140625,1.1080634593963623,57.13330078125
0,143176,-4.0251312255859375,-95.83931732177734,-1.4099881649017334,-115.63034057617188
0,143177,-9.685506820678711,-41.305381774902344,-0.671916127204895,-118.29071044921875
0,143180,9.611265182495117,25.972307205200195,4.778072357177734,86.70407104492188
0,143181,19.6317081451416,68.40026092529297,15.256128311157227,116.23690032958984
0,143184,-10.046300888061523,42.0675048828125,13.277164459228516,-13.917604446411133
0,143185,5.662208080291748,-113.69734954833984,13.407379150390625,-32.54810333251953
0,143188,10.087553024291992,-126.09920501708984,-16.857580184936523,-27.53582191467285
0,143189,-13.110547065734863,-43.605255126953125,-23.357622146606445,-8.062577247619629
0,143192,3.006601572036743,171.38333129882812,21.516517639160156,18.395978927612305
0,143193,0.19057296216487885,140.8769073486328,-12.282800674438477,-24.413192749023438
0,143343,-23.889110565185547,-50.149169921875,3.7523255348205566,-14.0482816696167
0,143343,9.036948204040527,-22.496549606323242,29.370201110839844,26.51651382446289
0,143343,26.961469650268555,-44.75689697265625,-20.395429611206055,4.754587650299072
0,143343,-8.751724243164062,14.468633651733398,-0.5074187517166138,-13.637367248535156
0,143343,-7.105156898498535,56.88294219970703,-14.020428657531738,15.085654258728027
0,143343,-16.25252914428711,-19.08211326599121,-12.895586013793945,18.895099639892578
0,143344,-9.648994445800781,-5.185387134552002,17.465484619140625,-29.056509017944336
0,143344,33.307838439941406,-3.6752748489379883,3.558570623397827,-18.497638702392578
0,143344,-7.329206943511963,-60.65233612060547,3.9140026569366455,25.514629364013672
0,143344,-18.081836700439453,-61.63336944580078,0.09062257409095764,16.650859832763672
0,143344,27.30280113220215,-40.56356430053711,-5.963191986083984,-3.63977313041687
0,143344,2.7208213806152344,-40.81678771972656,-16.147945404052734,-18.762544631958008
0,143345,-17.01808738708496,16.102792739868164,-4.871574878692627,-1.6642274856567383
0,143345,-4.001106262207031,59.43379592895508,7.8360466957092285,13.679906845092773
0,143345,0.869636058807373,37.13578414916992,-11.90191650390625,-17.565155029296875
0,143345,-1.7009596824645996,21.271581649780273,-0.711556077003479,-6.647915840148926
0,143345,-1.2082377672195435,28.3013973236084,35.585079193115234,13.486186981201172
0,143345,3.791156053543091,14.426956176757812,7.263435363769531,-14.597773551940918
0,143346,1.4036027193069458,-37.0118408203125,-28.156057357788086,-0.3441969156265259
0,143346,-0.23040299117565155,-44.06618881225586,-1.84739089012146,20.497018814086914
0,143346,1.2833459377288818,-3.871521472930908,3.8487393856048584,6.825129985809326
0,143346,11.88101863861084,-23.643827438354492,7.17587947845459,12.911489486694336
0,143346,-0.23575221002101898,-9.266372680664062,21.724763870239258,1.5292067527770996
0,143346,-4.182358264923096,45.99593734741211,-1.0182799100875854,-5.751358985900879
0,143347,9.259784698486328,18.72731590270996,-10.92056941986084,-2.8598403930664062
0,143347,-11.990069389343262,6.171875,-8.646944046020508,-4.786839008331299
0,143347,-11.262547492980957,-3.048781156539917,-15.364513397216797,17.182634353637695
0,143347,16.630260467529297,-19.572525024414062,-4.731502532958984,-7.159472942352295
0,143347,10.030330657958984,20.623926162719727,18.274267196655273,-9.779077529907227
0,143348,-18.935688018798828,-3.6827034950256348,20.82564353942871,12.174405097961426
0,143348,-2.2247352600097656,-43.76791763305664,-18.746322631835938,-21.640071868896484
0,143348,18.94154167175293,3.7354695796966553,-35.248992919921875,-0.13544012606143951
0,143348,0.13263532519340515,46.64936447143555,13.707931518554688,17.71419906616211
0,143348,-12.868218421936035,12.731465339660645,25.597553253173828,-15.57170295715332
0,143348,2.5016403198242188,-7.000095367431641,-9.24980640411377,-6.300029754638672
0,143349,12.532835960388184,23.166322708129883,-4.285372734069824,3.0545716285705566
0,143349,-7.672918796539307,1.6751313209533691,12.894112586975098,-5.407909870147705
0,143349,-11.156427383422852,-8.811884880065918,13.850706100463867,3.189575433731079
0,143349,3.1481306552886963,11.18164348602295,-3.913815498352051,7.875679969787598
0,143349,2.658677339553833,-22.125028610229492,-10.189092636108398,12.105109214782715
0,143349,1.2530475854873657,-11.491868019104004,-5.862682819366455,9.592798233032227
0,143350,-5.229487419128418,16.264911651611328,2.326249361038208,-20.865041732788086
0,143350,-2.492027521133423,-5.610395431518555,11.46178150177002,-10.22080135345459
0,143350,16.588275909423828,23.35265350341797,-2.996058702468872,16.77275276184082
0,143350,3.231743574142456,22.234333038330078,-5.163879871368408,-3.6019539833068848
0,143350,-14.727721214294434,9.176531791687012,-4.689912796020508,-15.070942878723145
0,143350,-18.621858596801758,40.12179946899414,7.755613327026367,-3.2060441970825195
0,143351,6.46330451965332,24.63084602355957,9.653831481933594,9.041885375976562
0,143351,20.112945556640625,-32.57065200805664,-21.202436447143555,10.687171936035156
0,143351,-12.145666122436523,-42.259765625,-15.382776260375977,-17.117576599121094
0,143351,-3.007783889770508,-1.2594643831253052,4.933928489685059,4.686311721801758
0,143351,1.600024700164795,-10.632396697998047,4.025488376617432,31.045827865600586
0,143351,-17.403034210205078,5.009052276611328,13.600348472595215,-19.318195343017578
0,143352,0.19371668994426727,6.4770379066467285,-8.414912223815918,-5.2432074546813965
0,143352,10.976968765258789,-36.27313232421875,-36.90185546875,19.959211349487305
0,143352,-14.093729019165039,5.643728733062744,28.17230224609375,1.0639766454696655
0,143352,-4.033977508544922,9.311304092407227,41.063480377197266,-13.69603157043457
0,143352,22.35444450378418,-27.42913055419922,-21.544227600097656,-2.555584192276001
0,143352,-0.8423417210578918,7.889290809631348,-2.0404019355773926,25.971803665161133
0,143353,6.018161296844482,18.101892471313477,12.15668773651123,-20.847110748291016
0,143353,12.344276428222656,-2.560945987701416,-13.149385452270508,-37.608070373535156
0,143353,-20.60835075378418,-8.977102279663086,-13.644410133361816,21.214242935180664
0,143353,-12.070538520812988,-9.421517372131348,-0.9056359529495239,19.111143112182617
0,143353,22.689485549926758,12.230259895324707,15.413021087646484,-16.75310707092285
0,143353,17.47527313232422,-2.692882537841797,13.197003364562988,-16.645126342773438
0,143354,-22.5264892578125,-33.15552520751953,-15.070262908935547,-1.47305166721344
0,143354,-5.693596839904785,9.255316734313965,1.6305427551269531,9.290472030639648
0,143354,31.700693130493164,26.691314697265625,27.293163299560547,4.181642055511475
0,143354,-7.108691692352295,-14.379347801208496,-21.654396057128906,4.4181647300720215
0,143354,-16.88399314880371,-6.359177112579346,-25.448381423950195,-4.113118648529053
0,143354,13.921188354492188,27.998828887939453,24.1268310546875,-3.1700966358184814
0,143355,0.029787138104438782,11.198689460754395,25.424772262573242,14.787134170532227
0,143355,-5.389298915863037,-28.097179412841797,-23.698993682861328,-2.3506293296813965
0,143355,-13.188953399658203,-3.832374334335327,-23.362167358398438,-11.201964378356934
0,143356,-13.34244155883789,23.10892677307129,28.804378509521484,-17.151443481445312
0,143356,24.590389251708984,-21.162141799926758,-19.85294532775879,-12.638795852661133
0,143357,0.49932193756103516,-33.83000946044922,-40.179161071777344,27.00436019897461
0,143357,-29.79880714416504,10.26240348815918,38.09410095214844,16.06525230407715
0,143357,5.280473232269287,3.2407031059265137,29.049680709838867,-12.038152694702148
0,143357,12.302165985107422,-7.142507076263428,-21.015380859375,-11.17603874206543
0,143357,8.199667930603027,13.095178604125977,-8.74514102935791,12.437736511230469
0,143359,11.206233978271484,15.372859001159668,4.596225261688232,14.946208000183105
0,143360,-17.68943214416504,24.432146072387695,-0.532584011554718,-13.122979164123535
0,143361,-13.594897270202637,48.44881820678711,20.722408294677734,12.387618064880371
0,143364,22.582637786865234,-21.43952178955078,2.8905348777770996,23.86504364013672
0,143365,2.798126697540283,-128.0797119140625,-40.500274658203125,-23.54482078552246
0,143368,-10.157233238220215,-102.67311096191406,-6.485010147094727,-19.864391326904297
0,143369,-1.2958029508590698,-0.22513288259506226,20.676462173461914,30.02275848388672
0,143372,0.8625339269638062,188.91175842285156,7.423993110656738,28.534391403198242
0,143373,14.411847114562988,145.27584838867188,1.204503059387207,-8.497435569763184
0,143376,-11.949018478393555,-98.64018249511719,-9.423478126525879,-68.9269027709961
0,143377,-13.455161094665527,-56.031402587890625,14.638200759887695,-17.255611419677734
0,143380,5.2243499755859375,27.75122833251953,13.64087963104248,74.7157211303711
0,143381,8.053442001342773,53.92857360839844,-14.876837730407715,-3.3066093921661377
0,143384,-1.346073865890503,21.799833297729492,2.6248297691345215,-54.457584381103516
0,143385,-0.2485712170600891,-121.16954803466797,4.955065727233887,3.6141915321350098
0,143388,32.25172424316406,-138.09922790527344,-9.822190284729004,36.89958190917969
0,143389,-6.090404987335205,-5.2865190505981445,-17.111494064331055,49.71507263183594
0,143392,-27.233867645263672,187.79576110839844,0.2302991896867752,-34.996761322021484
0,143393,-10.611274719238281,110.62512969970703,16.785627365112305,-97.47676086425781
0,143396,5.691995143890381,-101.59107971191406,7.166528701782227,25.346708297729492
0,143397,24.154876708984375,-68.40648651123047,-13.996662139892578,45.9586067199707
0,143400,-14.126809120178223,20.71065902709961,-26.636396408081055,0.48062586784362793
0,143401,-11.290690422058105,71.7099609375,9.783607482910156,11.723275184631348
0,143404,23.0368709564209,-5.286222457885742,31.284759521484375,-2.432461977005005
0,143562,-8.030282020568848,-2.6126925945281982,3.1220948696136475,-7.3733415603637695
0,143562,-25.411420822143555,92.18600463867188,14.392845153808594,7.865102291107178
0,143563,8.006431579589844,-11.720059394836426,8.542389869689941,5.304908752441406
0,143563,8.790085792541504,-67.36070251464844,-25.13897705078125,-14.831711769104004
0,143563,0.04694218188524246,-60.67400360107422,-1.2094732522964478,-4.066861629486084
0,143563,9.719165802001953,-67.1484603881836,-16.009790420532227,-1.0516886711120605
0,143563,-7.435060977935791,-23.809309005737305,-21.39790916442871,7.742221832275391
0,143563,0.1562643051147461,2.345724582672119,28.768728256225586,3.3559465408325195
0,143564,17.421003341674805,3.5516932010650635,6.109262466430664,-15.448945045471191
0,143564,-15.645424842834473,28.452167510986328,-13.2853364944458,10.760283470153809
0,143564,-18.11946678161621,42.603515625,17.959211349487305,17.685646057128906
0,143564,15.430492401123047,23.61014175415039,-3.8592782020568848,-19.678300857543945
0,143564,14.904784202575684,-12.594828605651855,-16.199983596801758,-24.23562240600586
0,143564,-13.785706520080566,-43.624351501464844,-8.522902488708496,21.702333450317383
0,143565,-13.434197425842285,0.6983298063278198,5.644437789916992,38.37710189819336
0,143565,9.01511001586914,14.142780303955078,28.0317325592041,-6.534558296203613
0,143565,-0.41716426610946655,-29.757904052734375,-17.95450782775879,-18.109954833984375
0,143565,-4.187778949737549,0.02715343050658703,-16.122390747070312,6.039633274078369
0,143565,25.916683197021484,23.863719940185547,5.220086097717285,-12.69890308380127
0,143565,3.3760030269622803,3.4955215454101562,-3.0596277713775635,-4.288359642028809
0,143566,-31.206100463867188,23.250682830810547,13.230698585510254,8.428324699401855
0,143566,7.444434642791748,4.893833637237549,-6.4880242347717285,-8.20224666595459
0,143566,7.350383758544922,-24.36585235595703,-12.230548858642578,-6.5393595695495605
0,143566,-23.775434494018555,3.0273685455322266,5.038425445556641,4.069206714630127
0,143566,3.1643753051757812,-9.46619701385498,4.209068775177002,3.028394937515259
0,143566,25.846160888671875,-24.76984214782715,9.365110397338867,-2.4361629486083984
0,143567,5.645697116851807,-16.097824096679688,-0.2696416676044464,-5.564179420471191
0,143567,-10.61067008972168,-22.729623794555664,-11.214141845703125,-8.013871192932129
0,143567,-3.3359341621398926,10.569592475891113,-12.563334465026855,7.833993434906006
0,143567,-5.745337009429932,27.160770416259766,-2.399186134338379,10.381963729858398
0,143567,-1.203927755355835,15.171442031860352,19.99798011779785,-0.37970489263534546
0,143568,14.459575653076172,29.871904373168945,2.304433822631836,-15.293392181396484
0,143568,-2.5450966358184814,16.309438705444336,3.7015278339385986,4.335484981536865
0,143568,-17.612634658813477,-3.247319459915161,4.072203636169434,21.057497024536133
0,143568,10.40375804901123,10.126431465148926,-4.852639198303223,1.6544870138168335
0,143568,20.93171501159668,-4.951087951660156,14.919229507446289,-2.980922222137451
0,143568,-10.669296264648438,4.755270957946777,-4.735525608062744,-1.3183554410934448
0,143569,-8.743176460266113,24.00692367553711,-12.387436866760254,1.443914771080017
0,143569,3.2903730869293213,-11.159285545349121,19.282604217529297,-15.150655746459961
0,143569,-5.383716106414795,-1.731109857559204,9.109469413757324,-1.097614049911499
0,143569,-3.088735580444336,18.801013946533203,-6.1276164054870605,22.25428009033203
0,143569,15.805717468261719,12.693058013916016,6.78761100769043,-8.796388626098633
0,143569,11.47500991821289,-2.831575632095337,-26.943708419799805,-23.218603134155273
0,143570,-20.69799041748047,-34.23575210571289,-11.55463981628418,-5.37034273147583
0,143570,-9.752463340759277,-6.088185787200928,37.6519889831543,1.7451879978179932
0,143570,4.3010993003845215,29.807374954223633,-0.965179443359375,8.523075103759766
0,143570,-2.134049654006958,-3.123260498046875,-14.286460876464844,34.08323287963867
0,143570,7.033164978027344,2.455089807510376,-6.195415496826172,-9.48492431640625
0,143570,4.397809982299805,15.934782028198242,-8.05374526977539,-29.707012176513672
0,143571,-15.35612678527832,-13.893781661987305,12.731107711791992,38.64036178588867
0,143571,-3.784126043319702,4.871027946472168,4.589912414550781,12.678770065307617
0,143571,19.052597045898438,26.04519271850586,-2.881364345550537,-41.79156494140625
0,143571,8.562235832214355,-25.956445693969727,-18.8267822265625,-10.539651870727539
0,143571,-10.96983528137207,-39.5599365234375,-10.78370189666748,28.25126075744629
0,143571,-3.634927272796631,16.13272476196289,39.333351135253906,7.89611291885376
0,143572,2.7429046630859375,12.34842300415039,-15.893365859985352,-18.9754638671875
0,143572,-14.796984672546387,-12.810691833496094,-29.962791442871094,1.8409942388534546
0,143572,5.866551399230957,-9.39663314819336,27.862411499023438,15.385220527648926
0,143572,4.75045108795166,-5.000797271728516,4.896378993988037,-7.953060150146484
0,143572,-7.1232733726501465,11.612878799438477,-2.5591883659362793,-15.97081184387207
0,143572,15.063769340515137,12.599912643432617,-16.863981246948242,-13.47616958618164
0,143573,-12.246737480163574,-5.328540802001953,-0.8093616962432861,11.005364418029785
0,143573,-10.35372257232666,-19.3742618560791,28.03981590270996,17.21499252319336
0,143573,23.031715393066406,-15.147870063781738,-8.199769020080566,-23.363426208496094
0,143573,1.0082578659057617,9.223467826843262,-6.534378528594971,16.09476661682129
0,143573,-18.48432159423828,2.36179518699646,6.472697734832764,13.988195419311523
0,143573,12.105271339416504,-21.097671508789062,-4.992824077606201,-35.21131896972656
0,143574,13.99694538116455,5.204498291015625,-0.25881388783454895,26.373788833618164
0,143574,-23.95534896850586,12.906881332397461,2.2221009731292725,24.124353408813477
0,143574,0.19749850034713745,-2.4213244915008545,-2.09209942817688,-40.279685974121094
0,143574,21.0872802734375,-5.65692138671875,-4.333961009979248,-3.760230541229248
0,143574,-11.860105514526367,-16.345441818237305,-10.311309814453125,15.852396011352539
0,143574,-18.191286087036133,5.56854248046875,10.682723999023438,-17.055152893066406
0,143575,16.713390350341797,17.627918243408203,24.86994171142578,6.802805423736572
0,143575,15.511474609375,3.0348143577575684,-18.651607513427734,22.452348709106445
0,143575,-18.621742248535156,-13.395121574401855,-22.782438278198242,-4.803860187530518
0,143575,-9.352483749389648,-5.929537773132324,24.252317428588867,-21.22336196899414
0,143575,15.749648094177246,10.904186248779297,5.95799446105957,-7.167898178100586
0,143575,7.316208839416504,12.196940422058105,-6.470853328704834,18.15925407409668
0,143577,-20.442846298217773,7.046274662017822,0.8030548095703125,-12.90196704864502
0,143577,-12.603384017944336,-24.009441375732422,1.7893809080123901,-12.777149200439453
0,143577,19.167367935180664,-5.987361907958984,11.188007354736328,30.73150634765625
0,143577,12.16525936126709,19.418413162231445,-19.245155334472656,13.03618335723877
0,143577,-3.386998176574707,7.415928363800049,-5.675825595855713,-28.076032638549805
0,143578,11.048754692077637,-0.3258082866668701,8.993104934692383,-6.732940196990967
0,143578,1.7129205465316772,-32.76200866699219,-8.98150634765625,43.35034942626953
0,143579,-7.08443021774292,-0.7637794613838196,17.126829147338867,5.984071254730225
0,143579,4.655876159667969,46.57534408569336,11.164482116699219,-29.47848129272461
0,143582,-11.995879173278809,78.56372833251953,-13.127704620361328,9.381791114807129
0,143583,-9.515520095825195,8.066410064697266,-22.47723960876465,3.20707631111145
0,143586,13.932178497314453,-210.62228393554688,-25.853132247924805,-5.070607662200928
0,143587,1.0976446866989136,-157.3788299560547,15.709707260131836,13.895634651184082
0,143590,-6.572147369384766,84.06715393066406,25.87187385559082,-8.716767311096191
0,143591,3.4408974647521973,179.9680938720703,-7.718509674072266,-10.156291007995605
0,143594,-9.966097831726074,126.02581787109375,-10.718521118164062,-13.291126251220703
0,143595,-8.464703559875488,-28.215999603271484,9.924145698547363,-27.391908645629883
0,143598,-4.700698375701904,-86.69345092773438,20.881210327148438,14.505773544311523
0,143599,-7.085138320922852,-28.49102783203125,15.841750144958496,58.92342758178711
0,143602,17.93049430847168,99.58940124511719,-0.10196296870708466,-48.17030334472656
0,143603,8.082704544067383,51.86928939819336,-9.312278747558594,-59.32148742675781
0,143606,9.574710845947266,-196.5447540283203,-31.088645935058594,134.5750732421875
0,143607,0.30605506896972656,-160.8155517578125,-36.08595657348633,37.70599365234375
0,143610,-19.879480361938477,85.34342193603516,17.262521743774414,-144.71963500976562
0,143611,37.329750061035156,205.65054321289062,51.490779876708984,-9.519885063171387
0,143614,-12.91196060180664,56.2204704284668,11.448409080505371,93.68606567382812
0,143615,-39.921897888183594,-107.4022216796875,-32.91874694824219,-28.574962615966797
0,143618,25.18047523498535,-59.49602508544922,3.031235694885254,-76.11414337158203
0,143619,-4.820452690124512,-16.78059196472168,11.801194190979004,37.344886779785156
0,143622,-8.228419303894043,82.91991424560547,-22.593759536743164,41.585609436035156
0,143623,14.06734561920166,93.56333923339844,-0.24908782541751862,-24.725351333618164
0,143626,8.85407829284668,-142.07553100585938,15.244245529174805,12.393649101257324
0,143627,-3.0030808448791504,-140.62425231933594,4.123012065887451,8.277368545532227
0,143796,-9.586187362670898,207.33815002441406,12.518616676330566,-20.029075622558594
0,143796,-5.283227443695068,171.5895233154297,-4.816900253295898,8.788151741027832
0,143796,-3.3941690921783447,-192.62551879882812,-33.58258056640625,6.83605432510376
0,143796,3.225343942642212,-112.33081817626953,6.9280781745910645,9.89355182647705
0,143796,11.555987358093262,58.07355880737305,15.306015014648438,4.6217827796936035
0,143796,14.683856964111328,-4.068991184234619,-18.10746955871582,-22.773597717285156
0,143797,-2.9339675903320312,5.195961952209473,-8.717376708984375,-21.027414321899414
0,143797,-23.032428741455078,60.72713851928711,9.779547691345215,7.187586784362793
0,143797,-1.9681484699249268,46.844547271728516,18.363548278808594,16.874536514282227
0,143797,-1.917008638381958,-5.8712077140808105,7.593437671661377,-3.8033008575439453
0,143797,-8.521044731140137,-29.88509750366211,-1.0334937572479248,4.491109371185303
0,143797,20.694416046142578,-23.885501861572266,-10.203726768493652,-2.966618537902832
0,143798,1.3493956327438354,-33.872398376464844,-11.467642784118652,-4.294277667999268
0,143798,-4.74251127243042,-51.14789962768555,-4.8494133949279785,9.856579780578613
0,143798,8.149848937988281,-20.987247467041016,-12.763093948364258,-4.966475009918213
0,143798,-8.742646217346191,12.32463550567627,15.088028907775879,1.4097647666931152
0,143798,10.312830924987793,19.214473724365234,31.173877716064453,-6.0826921463012695
0,143798,12.35484790802002,36.18714141845703,-16.02410888671875,-5.6511640548706055
0,143799,-16.72600746154785,47.160682678222656,-2.305945873260498,-0.9929384589195251
0,143799,-2.640915632247925,3.4435694217681885,12.625109672546387,-4.715288162231445
0,143799,-1.0353808403015137,-22.577417373657227,-29.08588409423828,7.209588527679443
0,143799,-12.273432731628418,0.8074169754981995,4.29313325881958,4.356579303741455
0,143799,19.171358108520508,-2.0440821647644043,30.52662467956543,13.680704116821289
0,143799,10.520389556884766,-10.42332649230957,-19.201200485229492,5.477392673492432
0,143800,-25.60062599182129,9.942652702331543,-25.258136749267578,-6.236947536468506
0,143800,-1.9134011268615723,37.413780212402344,15.474997520446777,-9.23475170135498
0,143800,5.634542942047119,6.070951461791992,16.278718948364258,-22.56497573852539
0,143800,-6.376902103424072,-18.345691680908203,-7.563586711883545,12.461677551269531
0,143800,18.336549758911133,33.488487243652344,6.105018138885498,26.123613357543945
0,143801,11.003730773925781,29.277252197265625,-1.7117408514022827,-1.7988371849060059
0,143801,-14.165035247802734,-27.06842041015625,-9.098360061645508,7.0866899490356445
0,143801,-9.679304122924805,-38.49765396118164,9.380523681640625,-5.839911460876465
0,143801,1.4694080352783203,-23.953601837158203,-9.584035873413086,-15.21297836303711
0,143801,2.5338778495788574,-5.92503547668457,-4.088904857635498,9.399888038635254
0,143801,-1.1017441749572754,-17.816240310668945,9.918764114379883,12.692178726196289
0,143802,7.132761001586914,-11.6359281539917,2.3938777446746826,-4.299892425537109
0,143802,5.6588568687438965,13.41460132598877,-13.163690567016602,-19.471832275390625
0,143802,-6.0235090255737305,-0.05871974676847458,-5.034706115722656,-1.5434869527816772
0,143802,-7.702707767486572,6.962437629699707,32.34656524658203,2.2280611991882324
0,143802,9.577637672424316,13.114869117736816,-8.702536582946777,-9.512702941894531
0,143802,1.493412733078003,-5.765471458435059,-31.765260696411133,4.029831409454346
0,143803,-12.06480884552002,-13.320490837097168,12.7025146484375,-0.5892513394355774
0,143803,0.9455422759056091,-16.27317237854004,23.303071975708008,-0.013275330886244774
0,143803,9.15046501159668,-2.929807662963867,10.773608207702637,17.96466636657715
0,143803,11.1625394821167,1.445022702217102,-22.82173728942871,-2.958165168762207
0,143803,-8.023958206176758,-18.05544662475586,-5.466907501220703,-5.281280517578125
0,143803,-16.5329532623291,-17.85016441345215,7.303622722625732,11.391243934631348
0,143804,0.8809295892715454,7.441709041595459,-21.569095611572266,3.7055366039276123
0,143804,5.6645894050598145,42.075164794921875,14.468000411987305,-13.569706916809082
0,143804,-4.524181842803955,-9.573944091796875,18.256187438964844,-25.22540855407715
0,143804,6.800002574920654,-29.798994064331055,-25.46523666381836,2.3377768993377686
0,143804,5.471502780914307,20.329221725463867,-12.893735885620117,11.314638137817383
0,143804,-18.114971160888672,-12.504743576049805,9.629422187805176,6.555433750152588
0,143805,-6.086493015289307,-13.731738090515137,11.60189151763916,11.281716346740723
0,143805,23.3297061920166,20.276365280151367,-1.00438392162323,-11.3690824508667
0,143805,6.119565010070801,26.10470962524414,-9.427103996276855,-11.649784088134766
0,143805,-23.74959945678711,16.606029510498047,-4.312675476074219,12.901826858520508
0,143805,0.292070209980011,-21.919200897216797,-2.5142621994018555,15.719696998596191
0,143805,15.522772789001465,-19.01795768737793,13.912529945373535,-3.125567674636841
0,143806,-4.098238468170166,15.261894226074219,9.092489242553711,-15.388218879699707
0,143806,5.353033542633057,13.420069694519043,-16.42047882080078,-6.5843729972839355
0,143806,12.071351051330566,-2.0962138175964355,-1.0736910104751587,-12.374994277954102
0,143806,-13.07426643371582,-30.57486915588379,12.30810260772705,5.063056468963623
0,143806,-10.631546974182129,-5.24359130859375,-0.5120444893836975,20.886669158935547
0,143806,15.33697509765625,15.429953575134277,19.380908966064453,-6.008469104766846
0,143807,17.0229549407959,-0.1059374287724495,7.059154510498047,-2.765845537185669
0,143807,-9.110722541809082,19.243057250976562,-21.21493911743164,-2.74768328666687
0,143807,-17.1713809967041,-5.358584880828857,-0.7005969882011414,-0.4489997625350952
0,143807,-2.985598087310791,-11.735269546508789,-4.835261344909668,19.668697357177734
0,143807,0.9293982982635498,32.03893280029297,-6.765392303466797,16.443065643310547
0,143807,-1.007254958152771,26.692001342773438,22.51708984375,-16.27820587158203
0,143808,-3.030216932296753,-28.642894744873047,-3.163320302963257,-29.02737808227539
0,143808,3.046130418777466,-21.994539260864258,-23.934629440307617,28.739723205566406
0,143808,14.051061630249023,24.85552406311035,5.805217266082764,7.557033538818359
0,143808,-14.80807113647461,3.4346108436584473,-3.266242504119873,-28.373456954956055
0,143808,-22.05400848388672,-9.44962215423584,-0.6353123784065247,25.047605514526367
0,143808,26.5338134765625,24.50340461730957,7.878538608551025,-2.083155393600464
0,143809,13.943463325500488,-3.2195255756378174,-1.9460763931274414,-35.17412567138672
0,143809,-22.38165855407715,-16.72295379638672,7.600532054901123,3.954695463180542
0,143809,-6.4542622566223145,21.119672775268555,5.653844356536865,30.272907257080078
0,143809,20.297229766845703,-2.9643194675445557,-3.7975375652313232,11.012067794799805
0,143809,11.775538444519043,-9.844856262207031,-0.5374480485916138,-29.41415023803711
0,143809,-23.351274490356445,2.881256341934204,1.6801682710647583,-0.49117496609687805
0,143810,6.294948101043701,19.190866470336914,-11.350895881652832,26.2906551361084
0,143811,24.056636810302734,104.8468017578125,10.925732612609863,-25.90335464477539
0,143811,-18.607934951782227,31.624277114868164,13.409261703491211,-21.62864112854004
0,143811,1.8791930675506592,-90.77812957763672,-26.208925247192383,20.143117904663086
0,143811,3.0080132484436035,-4.691369533538818,11.992176055908203,22.13738250732422
0,143812,-9.687721252441406,7.141412258148193,15.253565788269043,-3.75997257232666
0,143812,10.640497207641602,-29.472347259521484,-19.333425521850586,-10.20663833618164
0,143812,-9.333662033081055,-1.2573915719985962,11.297636985778809,0.9915589094161987
0,143812,-18.73862648010254,-14.11496639251709,-5.345303535461426,-15.828828811645508
0,143813,6.68827486038208,-9.985005378723145,-8.36140251159668,-11.334211349487305
0,143816,5.278254985809326,-18.039295196533203,20.61960792541504,5.622387886047363
0,143817,-26.652124404907227,-39.949363708496094,-11.241859436035156,6.423330783843994
0,143820,12.434409141540527,60.594913482666016,-4.259406089782715,16.97124671936035
0,143821,35.731746673583984,83.87107849121094,22.57691764831543,33.43299865722656
0,143824,-18.118091583251953,-137.81004333496094,-19.70813751220703,-8.484780311584473
0,143826,-5.649918556213379,-167.13783264160156,-20.3125,-43.53678512573242
0,143827,25.272857666015625,9.36742877960205,2.8889904022216797,-15.205095291137695
0,143830,5.8411078453063965,71.19633483886719,-15.907822608947754,19.05390167236328
0,143831,-11.669795036315918,116.2762451171875,4.899343967437744,7.507176876068115
0,143834,-9.996049880981445,92.39041900634766,17.078454971313477,3.5066335201263428
0,143835,6.5511298179626465,-37.115081787109375,13.82078742980957,18.471837997436523
0,143838,3.3952856063842773,-79.58454132080078,5.455558776855469,-11.972798347473145
0,143839,-25.048137664794922,-24.872669219970703,-29.73859977722168,-6.231778144836426
0,143842,-9.438518524169922,112.62679290771484,-2.4212286472320557,-27.82506561279297
0,143843,15.258421897888184,69.57279968261719,34.1734619140625,-18.502544403076172
0,143846,3.263643503189087,-177.89381408691406,17.276302337646484,79.72797393798828
0,143847,3.3494043350219727,-122.52439880371094,-33.1695556640625,40.40696716308594
0,143850,12.34389591217041,71.59650421142578,-29.372804641723633,-62.05332946777344
0,143851,-8.408098220825195,133.15438842773438,31.30366325378418,-59.75075149536133
0,143854,-31.55344009399414,79.86812591552734,3.901184320449829,16.807106018066406
0,143855,4.974643230438232,-63.837345123291016,-5.162356853485107,61.29239273071289
0,143858,40.659576416015625,-95.43014526367188,16.101716995239258,-3.0944507122039795
0,143859,5.012395858764648,-13.772247314453125,-5.270230770111084,-35.95273208618164
0,143862,-32.03466796875,107.45513153076172,-9.348699569702148,-9.92161750793457
0,144038,-2.45436692237854,43.251766204833984,-22.411333084106445,5.896938323974609
0,144038,4.208354949951172,-79.90263366699219,9.485919952392578,3.9940876960754395
0,144038,-2.5291292667388916,33.528892517089844,39.35069274902344,-5.949934959411621
0,144038,20.770877838134766,17.374507904052734,-17.073720932006836,18.48126983642578
0,144039,-8.84984302520752,-47.78034973144531,-12.501729011535645,7.071250915527344
0,144039,-14.874006271362305,-22.098039627075195,11.977810859680176,-1.110099196434021
0,144039,15.148271560668945,-41.60514450073242,-10.006133079528809,7.146944522857666
0,144039,2.5326600074768066,-3.9138059616088867,7.12127685546875,-18.496030807495117
0,144039,0.12762154638767242,18.28859519958496,-9.559849739074707,-2.6421632766723633
0,144039,-3.6864278316497803,28.53265953063965,-24.15131187438965,26.99582290649414
0,144040,-10.431543350219727,51.965492248535156,19.878271102905273,-0.7817267775535583
0,144040,10.979276657104492,30.373090744018555,13.90855598449707,-34.890926361083984
0,144040,0.33795198798179626,4.488999843597412,-11.019241333007812,-8.717181205749512
0,144040,2.368590831756592,-3.5625972747802734,15.172670364379883,21.848722457885742
0,144040,5.786812782287598,-27.640512466430664,-2.4354867935180664,9.899160385131836
0,144041,-11.427860260009766,-27.00298309326172,-20.206167221069336,-7.03363037109375
0,144041,10.61609172821045,-22.878631591796875,12.151354789733887,-17.07356834411621
0,144041,7.264709949493408,-13.795675277709961,6.571924686431885,-0.5085957050323486
0,144041,-20.879074096679688,7.0937042236328125,0.47637373208999634,8.246150970458984
0,144041,-10.532320976257324,-10.667665481567383,-8.98803997039795,-13.716559410095215
0,144041,16.325786590576172,-8.911247253417969,-13.910274505615234,1.8537653684616089
0,144042,-0.5771996378898621,12.998701095581055,14.644137382507324,31.710674285888672
0,144042,-9.561509132385254,31.18075180053711,14.031305313110352,-2.9807162284851074
0,144042,8.696375846862793,-0.1926058828830719,-5.465500831604004,-21.085243225097656
0,144042,-10.696675300598145,-42.22185516357422,-7.901616096496582,12.944930076599121
0,144042,-11.34372329711914,-19.798662185668945,2.68080997467041,3.820333480834961
0,144042,33.694332122802734,-1.6721909046173096,-2.0193896293640137,-4.142662048339844
0,144043,19.030630111694336,-15.948909759521484,-10.593758583068848,5.737706661224365
0,144043,-28.933937072753906,-8.324430465698242,5.88496208190918,1.3912594318389893
0,144043,-3.9896280765533447,15.379188537597656,7.334405422210693,-0.9977248907089233
0,144043,6.7344841957092285,18.386037826538086,-7.427629470825195,-11.574299812316895
0,144043,-5.6067214012146,6.098021984100342,-17.8278865814209,-2.3659744262695312
0,144043,11.5841703414917,-1.2476950883865356,11.554349899291992,7.42877721786499
0,144044,-9.111333847045898,-1.2148711681365967,20.975183486938477,-5.812180995941162
0,144044,-23.9516544342041,-4.6223602294921875,-18.168039321899414,0.6995242238044739
0,144044,17.538610458374023,4.481800079345703,2.361896276473999,7.101250648498535
0,144044,27.474815368652344,-4.2959771156311035,2.04836368560791,-16.09527015686035
0,144044,-18.168916702270508,-40.65153503417969,-16.142885208129883,6.673102855682373
0,144044,-11.806695938110352,-7.770861625671387,7.590290546417236,38.55020523071289
0,144045,20.992488861083984,40.428707122802734,15.665212631225586,-16.501005172729492
0,144045,2.2455456256866455,19.098060607910156,-6.889126300811768,-35.222015380859375
0,144045,-3.8442771434783936,8.94171142578125,-5.497972011566162,23.34406089782715
0,144045,-12.876798629760742,1.6779669523239136,32.580604553222656,34.310401916503906
0,144045,-6.297876358032227,-8.345643997192383,-7.990718364715576,-28.411514282226562
0,144045,25.61991310119629,-13.306497573852539,-32.60553741455078,-21.08190155029297
0,144046,-5.154697418212891,-11.214868545532227,6.040721893310547,33.59984588623047
0,144046,-25.453184127807617,16.73244285583496,0.2311868965625763,-9.813102722167969
0,144046,10.2034912109375,-16.982004165649414,-12.162166595458984,-29.140459060668945
0,144046,-0.0409901887178421,-20.922563552856445,8.238326072692871,13.099189758300781
0,144046,-8.246719360351562,28.176542282104492,7.190211296081543,12.195999145507812
0,144046,13.287110328674316,-6.146107196807861,-11.253124237060547,-17.201791763305664
0,144047,2.5888452529907227,6.483414173126221,11.603474617004395,-18.796987533569336
0,144047,-9.919748306274414,37.511741638183594,14.480073928833008,18.797016143798828
0,144047,-1.8148077726364136,-4.2894463539123535,-13.305792808532715,22.497194290161133
0,144047,9.077855110168457,-21.557559967041016,-22.88604164123535,-10.042590141296387
0,144047,-13.732142448425293,-14.895723342895508,8.19714641571045,-9.579293251037598
0,144047,-18.77831268310547,10.352729797363281,32.25532150268555,-12.077848434448242
0,144048,8.42883014678955,8.706551551818848,-13.063688278198242,2.6892459392547607
0,144048,13.01192569732666,-4.0014119148254395,-16.04354476928711,20.099586486816406
0,144048,6.318167209625244,30.09610366821289,17.195648193359375,-19.196069717407227
0,144048,8.868508338928223,12.095078468322754,-1.921373963356018,-11.436279296875
0,144048,-3.4960827827453613,-4.838201999664307,20.100507736206055,20.63719940185547
0,144049,3.612663984298706,40.708587646484375,19.201309204101562,-16.7852840423584
0,144049,22.807077407836914,-5.5738205909729,-25.565452575683594,-18.454261779785156
0,144049,3.4500348567962646,-22.355480194091797,-16.267133712768555,27.25631332397461
0,144049,-21.369810104370117,19.6911678314209,6.719367027282715,23.254613876342773
0,144049,-9.195941925048828,5.3517656326293945,21.794132232666016,-6.056081771850586
0,144049,16.854421615600586,12.570724487304688,-0.44445735216140747,-19.71558380126953
0,144050,-4.0596089363098145,-10.514657974243164,-19.88413429260254,6.335778713226318
0,144050,-4.136404037475586,-10.367012023925781,-15.438600540161133,25.378019332885742
0,144050,-4.839054107666016,12.82938003540039,2.140932559967041,-0.2755168378353119
0,144050,-23.637298583984375,3.1367037296295166,16.39871597290039,-7.850016117095947
0,144050,4.830599308013916,2.981119155883789,-10.462124824523926,10.112334251403809
0,144050,8.716553688049316,-8.976407051086426,-14.902981758117676,16.45586585998535
0,144051,-8.002705574035645,-3.889400005340576,4.529165744781494,-13.507315635681152
0,144051,-1.7266902923583984,3.182311773300171,20.930713653564453,-20.715946197509766
0,144051,-0.6776013970375061,-14.547795295715332,-4.474832534790039,13.023273468017578
0,144051,3.5551249980926514,5.414019584655762,-7.586328029632568,-4.165195941925049
0,144051,13.609342575073242,10.030620574951172,20.032207489013672,-8.92901611328125
0,144051,-8.340787887573242,-43.758235931396484,-19.182546615600586,17.049327850341797
0,144052,-16.244001388549805,-16.304832458496094,0.951465904712677,-15.131319046020508
0,144052,14.524724960327148,14.803108215332031,15.006973266601562,-12.902400970458984
0,144052,4.7476983070373535,-9.676122665405273,-21.65671157836914,23.854949951171875
0,144052,1.689841866493225,-1.8242334127426147,-3.4509449005126953,-12.146278381347656
0,144052,0.6427667140960693,6.85849666595459,1.8424289226531982,-11.670538902282715
0,144052,-8.678443908691406,9.799161911010742,0.4770507216453552,16.81450843811035
0,144053,20.562807083129883,-1.5121581554412842,5.375490188598633,-12.404000282287598
0,144053,-2.034310817718506,-13.225808143615723,11.528522491455078,-5.608374118804932
0,144054,-20.712080001831055,2.9767775535583496,16.034029006958008,17.346120834350586
0,144054,11.07723617553711,15.152268409729004,-0.15028780698776245,-9.13217830657959
0,144054,20.744869232177734,-1.6034756898880005,-9.002690315246582,-18.104360580444336
0,144055,10.870062828063965,-19.777009963989258,-9.423318862915039,10.570837020874023
0,144055,-19.982196807861328,-6.129932403564453,14.92821216583252,3.1909408569335938
0,144055,-14.803126335144043,11.755985260009766,-6.286591053009033,-5.370227336883545
0,144055,7.48118257522583,-0.11872011423110962,-21.27959632873535,7.244422912597656
0,144055,-6.324713706970215,-14.86432933807373,18.169330596923828,-5.828179836273193
0,144057,-2.9407029151916504,-9.743577003479004,-19.820600509643555,-5.095723628997803
0,144058,-3.796736717224121,5.694432258605957,-2.880624532699585,-1.5533902645111084
0,144059,1.048512578010559,19.509687423706055,14.13227367401123,-2.6931679248809814
0,144062,-0.727812647819519,48.44776916503906,-18.745237350463867,37.4411506652832
0,144063,-11.936756134033203,-18.228321075439453,17.176847457885742,19.7449893951416
0,144066,13.47537612915039,-165.38348388671875,6.387467861175537,-43.90720748901367
0,144067,20.472959518432617,-113.46731567382812,-29.930089950561523,-12.08448600769043
0,144070,-4.573480129241943,150.6352081298828,1.4349061250686646,24.079721450805664
0,144071,-17.623659133911133,186.30645751953125,39.58742141723633,1.2048547267913818
0,144074,8.25446891784668,-13.528545379638672,-5.429217338562012,4.784533977508545
0,144075,17.773841857910156,-36.14237976074219,-33.0058479309082,7.900393486022949
0,144078,-3.284555673599243,-35.395347595214844,10.914414405822754,-23.751768112182617
0,144079,-11.795037269592285,13.370889663696289,21.69136619567871,-37.06825256347656
0,144082,-15.465156555175781,93.9399642944336,7.520194053649902,21.84872055053711
0,144083,7.9080071449279785,-37.514102935791016,-12.525538444519043,49.14528274536133
0,144086,4.191074371337891,-194.5470733642578,-33.76416015625,-1.0032999515533447
0,144087,-13.569859504699707,-76.34629821777344,-1.3613824844360352,-16.46866226196289
0,144090,7.801017761230469,197.978759765625,38.21059036254883,-10.044337272644043
0,144091,6.361484527587891,111.3314208984375,12.717198371887207,3.1003198623657227
0,144094,20.23699951171875,-70.412353515625,1.1475297212600708,11.427974700927734
0,144095,4.128443241119385,-34.59280776977539,-3.4438531398773193,-0.9960475564002991
0,144098,-59.61088943481445,-23.09967041015625,-31.8980770111084,-7.852861404418945
0,144099,0.255754292011261,22.076873779296875,-2.8772406578063965,-8.346967697143555
0,144102,63.5751953125,66.01018524169922,26.324447631835938,-46.49766159057617
0,144103,-0.9832800626754761,-9.937936782836914,0.24919238686561584,-8.477094650268555
0,144106,-34.59797286987305,-134.67819213867188,-34.96916961669922,87.24244689941406
1,145632,4.023468971252441,44.29646301269531,8.145622253417969,18.15089225769043
1,145633,11.886529922485352,190.49212646484375,34.189491271972656,-60.337158203125
1,145636,-13.018763542175293,-116.77253723144531,-20.165212631225586,-34.11137390136719
1,145637,-7.851524829864502,-86.9560546875,-8.294453620910645,-13.494488716125488
1,145640,8.732065200805664,103.11431884765625,8.21065902709961,59.24673843383789
1,145641,14.319066047668457,-83.90772247314453,-4.2766265869140625,71.03873443603516
1,145644,-2.167271614074707,-200.8114471435547,-11.809974670410156,-49.37858200073242
1,145645,-6.849428176879883,-35.890079498291016,-3.5630810260772705,-48.718597412109375
1,145656,0.06901176273822784,260.3843994140625,35.13261795043945,25.325965881347656
1,145656,-6.308665752410889,201.30406188964844,14.274529457092285,6.524849891662598
1,145656,-2.3551383018493652,-114.95436096191406,-7.354839324951172,-12.46829891204834
1,145656,-12.150378227233887,-84.85155487060547,16.270946502685547,12.495481491088867
1,145656,-1.3798816204071045,11.060355186462402,-8.332005500793457,13.71386432647705
1,145658,42.53532409667969,28.899246215820312,-29.7233943939209,-8.336235046386719
1,145659,-2.6451969146728516,42.53874588012695,-8.196386337280273,-9.343179702758789
1,145662,-39.82459259033203,-101.22115325927734,1.2553095817565918,-3.6031248569488525
1,145663,23.176654815673828,-96.10308074951172,0.2847016751766205,3.93179988861084
1,145666,21.575204849243164,-37.86671829223633,-5.015376091003418,8.79588794708252
1,145667,-16.123294830322266,5.789937496185303,-15.852259635925293,7.668229103088379
1,145670,-9.318296432495117,221.78469848632812,11.763545989990234,-20.09579849243164
1,145671,0.9533780217170715,111.16329193115234,16.351806640625,-30.4185791015625
1,145674,-8.04360294342041,-163.44302368164062,-14.95052719116211,24.98575782775879
1,145675,-10.44189453125,-89.80612182617188,12.266036033630371,14.454227447509766
1,145678,20.122800827026367,95.19628143310547,16.984004974365234,-11.803743362426758
1,145679,13.388396263122559,113.8963394165039,-1.7574763298034668,10.158761024475098
1,145702,-14.983650207519531,-141.2799072265625,0.7107625007629395,-5.223511695861816
1,145703,9.117959022521973,-145.18124389648438,-16.0748348236084,-9.536797523498535
1,145703,0.08850759267807007,130.86537170410156,-4.940080165863037,-3.5425333976745605
1,145703,-16.701831817626953,35.441219329833984,1.469506025314331,0.8067635893821716
1,145703,13.58260440826416,-80.0726089477539,6.05510950088501,17.435365676879883
1,145703,-5.5313520431518555,-10.53126049041748,17.044296264648438,-4.445585250854492
1,145703,-14.398966789245605,-39.63664627075195,-17.83510971069336,-8.053580284118652
1,145704,11.571805000305176,-32.278968811035156,-9.185669898986816,0.5200777649879456
1,145704,6.518315315246582,23.34830093383789,-15.264758110046387,-9.469030380249023
1,145704,4.46969747543335,18.488391876220703,-22.763431549072266,10.946386337280273
1,145704,-6.673612594604492,38.75831604003906,43.67831802368164,5.77866792678833
1,145705,-6.900490760803223,48.544403076171875,19.448143005371094,6.501349449157715
1,145706,2.6829357147216797,18.386428833007812,-26.495807647705078,7.112334728240967
1,145707,-16.684612274169922,32.902645111083984,3.276655912399292,-15.60435962677002
1,145710,15.917919158935547,108.03287506103516,14.016809463500977,10.348644256591797
1,145711,23.058330535888672,63.97492218017578,10.275611877441406,19.457345962524414
1,145714,-16.662574768066406,-109.56563568115234,-8.426604270935059,-10.047222137451172
1,145715,-9.766372680664062,-89.32725524902344,0.0736675038933754,-12.091348648071289
1,145718,-3.3180320262908936,55.07489013671875,20.36918830871582,-28.683128356933594
1,145719,17.007583618164062,93.06697845458984,-7.977536678314209,-4.81727409362793
1,145722,-8.779060363769531,-81.07866668701172,-7.5283427238464355,49.26912307739258
1,145723,-14.506104469299316,-167.85206604003906,-10.394831657409668,-14.918109893798828
1,145726,22.34144401550293,-36.59669876098633,-5.524849891662598,-28.054542541503906
1,145727,-6.721655368804932,29.59383773803711,-2.593078136444092,19.675981521606445
1,145730,5.7202324867248535,132.07562255859375,2.6500978469848633,-0.4728275537490845
1,145766,11.56954288482666,-72.73599243164062,10.808856010437012,-11.988825798034668
1,145766,-18.382719039916992,-241.1844024658203,-35.201290130615234,-24.38423728942871
1,145766,-5.924201965332031,73.2936782836914,-8.036500930786133,17.610748291015625
1,145767,2.628035545349121,120.02555847167969,23.135587692260742,51.57673645019531
1,145767,10.02747631072998,26.034204483032227,0.4798509180545807,-16.648212432861328
1,145767,5.635354042053223,54.14252853393555,0.27131199836730957,-29.804492950439453
1,145767,-11.785375595092773,60.55911636352539,16.000642776489258,21.331825256347656
1,145767,-0.7549651861190796,43.86127853393555,15.105708122253418,13.961313247680664
1,145767,-3.4976346492767334,-15.706769943237305,-15.612738609313965,-15.398174285888672
1,145768,-8.59038257598877,-22.13374137878418,-4.437854766845703,-10.662940979003906
1,145768,11.512388229370117,-16.807300567626953,4.837677478790283,5.320873737335205
1,145768,9.55827808380127,-14.21682071685791,-17.676612854003906,21.391313552856445
1,145768,-11.001578330993652,-2.964468002319336,10.358041763305664,6.544293403625488
1,145768,-8.56204605102539,5.627425670623779,21.595064163208008,-13.457453727722168
1,145768,6.297867774963379,10.123161315917969,-17.606334686279297,-11.31304931640625
1,145769,13.639436721801758,12.341840744018555,-8.04813003540039,-0.9188178181648254
1,145769,-1.4203441143035889,7.659488677978516,18.62470054626465,17.04804229736328
1,145769,-13.534957885742188,-8.060723304748535,3.9514245986938477,-8.50827693939209
1,145770,4.539999485015869,8.174778938293457,-16.848011016845703,-24.85116195678711
1,145770,9.016454696655273,-9.384748458862305,-0.6656301021575928,11.369065284729004
1,145772,6.942377090454102,-44.85586166381836,38.261409759521484,28.18889808654785
1,145773,-2.713364362716675,-24.039915084838867,13.06583023071289,-21.99643325805664
1,145776,-13.608860969543457,-22.33039665222168,-38.55084991455078,-24.249420166015625
1,145777,-6.915000915527344,26.191877365112305,-8.912287712097168,14.1198091506958
1,145780,-4.109035015106201,71.76847839355469,-7.095953941345215,-12.38488483428955
1,145781,0.7302645444869995,-62.409584045410156,-55.440975189208984,5.6331048011779785
1,145784,14.074188232421875,-176.3841552734375,26.499290466308594,31.45978355407715
1,145785,5.019216060638428,-62.567413330078125,61.77537536621094,-21.173051834106445
1,145788,1.308336615562439,177.46202087402344,-35.6649169921875,-29.136985778808594
1,145789,5.973232746124268,177.1774139404297,-18.6901912689209,9.021259307861328
1,145792,-12.519881248474121,-46.4657096862793,28.786645889282227,31.079973220825195
1,145793,-13.741973876953125,-93.83988189697266,-0.7128651142120361,19.750246047973633
1,145796,5.7361063957214355,-3.1674044132232666,0.9064129590988159,-23.980159759521484
1,145797,11.600269317626953,80.52588653564453,30.396991729736328,-10.380975723266602
1,145847,2.716157913208008,-98.62268829345703,-7.118112564086914,11.641555786132812
1,145847,13.84045696258545,-135.78469848632812,-23.924497604370117,6.856144428253174
1,145847,0.7417913675308228,167.625,12.671979904174805,10.237863540649414
1,145847,-20.96240234375,85.74127960205078,-13.563152313232422,-2.143507480621338
1,145847,-20.492839813232422,-65.02534484863281,-18.87066078186035,-11.05417251586914
1,145847,-2.861908197402954,-10.557820320129395,10.596245765686035,3.0126636028289795
1,145848,19.238496780395508,-27.67762565612793,-14.881946563720703,-3.4207606315612793
1,145848,0.7200650572776794,-11.883808135986328,4.682332515716553,-6.139620780944824
1,145848,7.3202619552612305,32.21453857421875,26.080039978027344,14.029773712158203
1,145848,10.62894058227539,14.597979545593262,-17.107301712036133,-6.533700466156006
1,145848,-9.467429161071777,16.194602966308594,-8.827844619750977,-10.634798049926758
1,145848,-13.207219123840332,40.30371856689453,18.33052635192871,7.318690776824951
1,145849,-0.4132741391658783,16.104713439941406,11.163037300109863,-11.120078086853027
1,145849,25.334428787231445,-6.892726898193359,-8.165297508239746,-8.237990379333496
1,145849,-8.907525062561035,-26.752077102661133,-16.80863380432129,-10.452652931213379
1,145849,-21.77685546875,-34.077301025390625,8.399636268615723,-0.776000440120697
1,145849,15.056739807128906,-25.085376739501953,13.938520431518555,27.579364776611328
1,145849,10.052925109863281,-12.13217830657959,-3.890561103820801,-3.592853546142578
1,145850,1.4726533889770508,27.697589874267578,-6.181991100311279,-27.159364700317383
1,145850,-9.168500900268555,37.09698486328125,-1.8473681211471558,-0.9905779361724854
1,145850,-6.22295618057251,0.3160269260406494,-1.675818920135498,24.188817977905273
1,145850,-4.299947261810303,-10.950811386108398,-0.0978694036602974,10.449851036071777
1,145850,-12.435537338256836,13.628693580627441,22.606821060180664,-1.2219383716583252
1,145851,12.213886260986328,-4.9645867347717285,4.907907485961914,-5.561220645904541
1,145852,5.159241676330566,-39.53264617919922,-28.677722930908203,-0.5738081932067871
1,145852,-2.913848876953125,-30.463836669921875,2.1565184593200684,0.41592007875442505
1,145852,6.36651611328125,-14.698370933532715,17.733625411987305,-22.092050552368164
1,145854,-13.640483856201172,14.803423881530762,25.51314353942871,1.187169075012207
1,145855,-12.740906715393066,23.543306350708008,14.6299409866333,20.40604591369629
1,145858,15.286905288696289,37.131568908691406,-30.21707534790039,12.670144081115723
1,145859,4.872134685516357,53.88324737548828,8.380809783935547,35.88136672973633
1,145862,-6.51258659362793,-86.4974365234375,-37.20267868041992,-14.186660766601562
1,145863,20.094017028808594,-150.78977966308594,-140.4344940185547,-51.982391357421875
1,145866,22.183847427368164,-34.633731842041016,38.16807556152344,4.415205478668213
1,145867,21.163246154785156,87.45256042480469,161.53196716308594,27.085893630981445
1,145870,-10.44487190246582,186.23834228515625,-19.173452377319336,33.07999801635742
1,145871,-35.098880767822266,36.34817123413086,-73.09716796875,-4.831687927246094
1,145874,-23.115962982177734,-149.58807373046875,33.85686111450195,-63.097618103027344
1,145875,-16.412076950073242,-21.229549407958984,48.380577087402344,-43.98099136352539
1,145878,3.1192736625671387,155.07049560546875,15.964027404785156,38.8481330871582
1,145879,15.275177001953125,49.83541488647461,8.35729694366455,49.34653854370117
1,145882,-3.2199223041534424,-164.77005004882812,-77.04071807861328,-13.567490577697754
1,145943,-13.825323104858398,-131.7895965576172,-93.03182220458984,-22.9124698638916
1,145944,20.374610900878906,66.13777923583984,41.70576858520508,3.2361912727355957
1,145944,-11.05064868927002,58.77653884887695,49.74935531616211,8.337743759155273
1,145944,-35.16043472290039,-76.01021575927734,-21.08856964111328,7.632731914520264
1,145944,4.487511157989502,-30.9821720123291,-22.597822189331055,3.714263916015625
1,145944,21.774608612060547,26.979759216308594,-0.5930810570716858,-13.400331497192383
1,145944,8.893582344055176,-18.318622589111328,16.461349487304688,0.7924785017967224
1,145945,-32.93080520629883,10.32213020324707,26.012130737304688,19.43198585510254
1,145945,-13.845381736755371,63.001747131347656,26.17409324645996,-11.666640281677246
1,145945,32.559635162353516,38.7076530456543,32.07891082763672,-10.704849243164062
1,145945,-5.003086090087891,37.50192642211914,34.83930206298828,22.977556228637695
1,145945,-10.134465217590332,17.693872451782227,-22.49034309387207,-12.457056045532227
1,145946,33.8387565612793,-9.06845474243164,-15.98548698425293,-24.64048957824707
1,145946,22.187437057495117,7.980316162109375,19.007204055786133,9.424548149108887
1,145946,19.921781539916992,-24.108537673950195,-36.85589599609375,24.546194076538086
1,145946,12.809183120727539,-42.89631271362305,-43.4560546875,13.700153350830078
1,145946,3.5803401470184326,-21.70774269104004,-11.126190185546875,-19.48416519165039
