Aktueller Finger,timestamp_ms,sensor_0,sensor_1,sensor_2,sensor_3
0,760553,17.497753143310547,30.946495056152344,145.6501007080078,23.72816276550293
0,760555,11.935608863830566,33.09037780761719,24.130447387695312,6.112933158874512
0,760557,33.41769027709961,-63.257835388183594,-132.83749389648438,-5.747899532318115
0,760559,11.505729675292969,-2.509394884109497,9.347580909729004,-9.797212600708008
0,760561,-90.17594909667969,22.679012298583984,59.55471420288086,-30.583646774291992
0,760563,-1.353538990020752,-19.72623062133789,-36.2125244140625,16.34233856201172
0,760565,93.36779022216797,31.519725799560547,-27.610065460205078,30.096694946289062
0,760567,6.778182506561279,-4.042970180511475,21.503276824951172,6.226506233215332
0,760576,-50.90968704223633,-21.026500701904297,48.8939094543457,-15.280718803405762
0,760576,-0.3725615441799164,38.08815383911133,5.939894199371338,-9.44904899597168
0,760576,6.005308151245117,4.298620700836182,-35.782562255859375,-3.7989323139190674
0,760576,-21.99822235107422,-39.430362701416016,-19.672788619995117,-4.8177995681762695
0,760577,-8.997518539428711,-10.230175971984863,9.035089492797852,36.320396423339844
0,760579,3.5583367347717285,11.678488731384277,-2.002943515777588,-1.4299496412277222
0,760582,9.1453218460083,35.018333435058594,7.507490634918213,-55.60475540161133
0,760583,-0.4318557679653168,0.4945560693740845,21.291305541992188,12.440081596374512
0,760586,15.940649032592773,-39.660064697265625,-4.886706829071045,25.86410903930664
0,760587,6.526214122772217,3.9377009868621826,-16.137697219848633,-23.26265525817871
0,760590,-24.995203018188477,16.711498260498047,-10.313671112060547,-8.150154113769531
0,760591,6.5718278884887695,6.902431488037109,-3.973390579223633,11.802820205688477
0,760594,8.737165451049805,-20.099178314208984,21.217777252197266,-7.025345802307129
0,760595,-18.342336654663086,-16.01813507080078,19.58556365966797,14.144584655761719
0,760598,0.4024658501148224,16.968555450439453,-22.7275390625,16.494165420532227
0,760599,-9.280320167541504,12.389681816101074,-23.450721740722656,-28.20068359375
0,760621,6.38620138168335,20.706985473632812,19.578153610229492,-2.716815948486328
0,760621,7.8843302726745605,-20.364295959472656,41.833702087402344,21.04396629333496
0,760621,-17.882909774780273,-33.002235412597656,-6.246155738830566,6.042360782623291
0,760622,19.27058219909668,17.524707794189453,-37.27351760864258,-11.338512420654297
0,760622,14.967629432678223,18.420238494873047,-7.636112213134766,-7.2075018882751465
0,760622,-14.161535263061523,-5.175525188446045,2.566159248352051,14.428645133972168
0,760622,1.4771723747253418,-11.635022163391113,-5.656716823577881,-5.115589618682861
0,760622,2.750563621520996,-3.3442068099975586,-4.503134250640869,-17.18848419189453
0,760623,-9.627923011779785,9.226288795471191,-8.926597595214844,6.679469585418701
0,760623,1.6340606212615967,3.3751637935638428,8.162063598632812,14.079781532287598
0,760623,7.660336971282959,-5.182493686676025,10.192002296447754,4.734762191772461
0,760624,1.4857959747314453,3.854952812194824,-58.495399475097656,2.789522171020508
0,760625,-0.11391367018222809,-5.0314788818359375,-45.00314712524414,18.836124420166016
0,760627,26.728769302368164,15.16193675994873,55.266746520996094,-4.454006671905518
0,760630,12.076147079467773,1.56790030002594,76.18391418457031,-19.3714599609375
0,760631,-18.06411361694336,-33.21213912963867,48.7768440246582,7.614715576171875
0,760634,-13.520970344543457,36.54351806640625,96.21453094482422,-1.3616054058074951
0,760635,-26.629743576049805,28.28157615661621,41.05073165893555,-7.741809368133545
0,760638,-3.2166759967803955,-37.699073791503906,-217.49473571777344,-4.663623332977295
0,760639,9.825912475585938,-9.533907890319824,-177.6496124267578,10.782715797424316
0,760642,54.50116729736328,-20.140756607055664,77.4916000366211,-27.336198806762695
0,760643,21.268320083618164,-7.031064033508301,93.55332946777344,-35.68344497680664
0,760646,-74.81076049804688,31.536176681518555,54.611209869384766,51.31537628173828
0,760647,-16.564807891845703,15.322269439697266,15.953819274902344,8.882152557373047
0,760761,-27.095943450927734,0.35828107595443726,80.72527313232422,68.76034545898438
0,760761,-46.940914154052734,29.218599319458008,84.06924438476562,11.887838363647461
0,760761,17.113845825195312,-9.091506958007812,-66.09773254394531,-63.73255920410156
0,760761,6.156606674194336,-1.1137291193008423,-36.91864776611328,-31.93585777282715
0,760761,-4.791987419128418,-7.318131446838379,23.169069290161133,0.5579558610916138
0,760761,2.3152785301208496,-27.152385711669922,-21.240392684936523,12.168971061706543
0,760762,-21.254291534423828,19.485315322875977,0.7211667895317078,-7.512102127075195
0,760762,-10.317510604858398,28.402042388916016,21.996000289916992,-18.42763900756836
0,760762,23.6595401763916,-13.12854290008545,-19.309906005859375,-16.804065704345703
0,760762,15.374017715454102,-9.973064422607422,-22.20302963256836,-36.77235794067383
0,760762,-7.0674147605896,6.461721420288086,6.007223606109619,-1.6248568296432495
0,760763,2.9875786304473877,5.100821018218994,0.25998368859291077,-6.538167476654053
0,760763,5.226588726043701,3.0596845149993896,-1.4325580596923828,-22.0221004486084
0,760763,3.9730215072631836,-11.05420207977295,8.956148147583008,18.232282638549805
0,760763,7.078419208526611,-5.041693210601807,-4.177056312561035,15.599325180053711
0,760763,-12.78642749786377,-3.6796765327453613,-4.8062520027160645,-11.86793041229248
0,760763,-14.265253067016602,1.3880081176757812,8.784847259521484,13.218077659606934
0,760764,19.008930206298828,28.7460994720459,-12.285649299621582,21.729032516479492
0,760764,20.537769317626953,1.2471542358398438,-10.288138389587402,-2.6235430240631104
0,760764,5.003058910369873,-28.51860237121582,22.544551849365234,7.140367031097412
0,760764,-0.09662880748510361,-1.7527023553848267,14.087138175964355,3.995826005935669
0,760764,-20.603492736816406,12.393986701965332,-18.762163162231445,-20.60665512084961
0,760764,-3.9060370922088623,-3.0956332683563232,-8.834528923034668,-6.892003536224365
0,760765,12.920061111450195,-19.752954483032227,2.9777541160583496,5.62462043762207
0,760766,-38.376399993896484,-21.031465530395508,2.3043172359466553,-58.72960662841797
0,760766,-19.40313148498535,22.769275665283203,18.69294548034668,-37.3933219909668
0,760767,21.24527359008789,40.259395599365234,21.392728805541992,156.48126220703125
0,760769,-9.330351829528809,-29.373933792114258,5.644396781921387,126.39820861816406
0,760771,-4.926101207733154,-2.675719976425171,-19.476097106933594,-142.77890014648438
0,760773,-4.594919681549072,39.59132766723633,-0.9409853219985962,-23.075422286987305
0,760775,1.167546033859253,-27.230485916137695,5.118629455566406,194.455810546875
0,760777,18.967607498168945,-23.467735290527344,-33.585758209228516,-29.914138793945312
0,760779,14.580379486083984,25.899700164794922,-8.80569076538086,-104.27466583251953
0,760781,6.026545524597168,10.150468826293945,18.624359130859375,0.8783254623413086
0,760783,-18.236587524414062,-9.666142463684082,-9.524767875671387,-27.755765914916992
0,760785,18.314674377441406,-2.3877627849578857,20.508380889892578,-8.548991203308105
0,760787,18.33384132385254,-6.350467681884766,65.59014892578125,-4.677233695983887
0,760789,-41.33802032470703,1.8175212144851685,20.348012924194336,48.45163345336914
0,760846,13.49449634552002,-9.360612869262695,-70.00653839111328,-264.9153137207031
0,760846,46.9720573425293,-9.455045700073242,-48.897789001464844,-352.2198486328125
0,760847,-25.541427612304688,2.229201555252075,44.379032135009766,235.5174560546875
0,760847,-24.999631881713867,9.7669038772583,8.70747184753418,183.84469604492188
0,760847,7.64744758605957,22.686378479003906,-21.749427795410156,-51.533931732177734
0,760847,-5.210704326629639,-4.696227073669434,3.559911012649536,93.77715301513672
0,760847,-0.9367923736572266,-19.08140754699707,-23.11501121520996,138.97222900390625
0,760847,-0.9185818433761597,-2.2744996547698975,-5.458163738250732,84.03622436523438
0,760848,5.664908409118652,16.890230178833008,-5.160534858703613,23.2760009765625
0,760848,3.5491175651550293,-2.297553062438965,-23.819429397583008,51.028358459472656
0,760848,-2.717780113220215,-22.774084091186523,15.567953109741211,61.79316711425781
0,760848,-1.9908417463302612,21.274690628051758,22.95086097717285,9.063467979431152
0,760848,-22.37639808654785,9.171345710754395,0.7649872899055481,-6.669757843017578
0,760848,-25.31127166748047,-31.116870880126953,-11.414297103881836,-30.212623596191406
0,760849,-5.708977699279785,-3.6359591484069824,5.741892337799072,-55.14992141723633
0,760849,15.60901165008545,4.637555122375488,12.754926681518555,-39.67450714111328
0,760849,26.164823532104492,-1.7320789098739624,-12.127750396728516,-47.66893005371094
0,760849,9.593281745910645,-9.338987350463867,-8.142816543579102,-26.076417922973633
0,760849,-5.9392991065979,2.842212438583374,8.767529487609863,-16.5844669342041
0,760850,6.957191467285156,17.416118621826172,-12.967001914978027,0.36844050884246826
0,760850,7.3093767166137695,-7.475052356719971,-5.921358585357666,13.51950740814209
0,760850,-11.287111282348633,-8.30347728729248,32.590843200683594,-23.525196075439453
0,760850,5.483110427856445,22.748525619506836,12.2241849899292,-3.2300939559936523
0,760850,30.94473648071289,19.059221267700195,-14.99663257598877,-13.727865219116211
0,760850,-8.882122039794922,-10.164440155029297,13.367664337158203,-19.352962493896484
0,760850,-12.051182746887207,0.5191124677658081,20.651456832885742,10.653206825256348
0,760851,22.15841293334961,12.933462142944336,-0.5605920553207397,-22.12334632873535
0,760851,-12.263365745544434,13.757535934448242,-2.992541790008545,-22.31793975830078
0,760852,-9.947257041931152,14.542154312133789,0.0038154134526848793,-71.89463806152344
0,760852,26.316923141479492,-0.5955361723899841,1.946670651435852,-78.26300811767578
0,760852,1.5977072715759277,-21.645984649658203,-15.07107162475586,50.0203857421875
0,760854,-39.20654296875,-16.668672561645508,-7.822079658508301,-92.8187255859375
0,760855,-31.596370697021484,12.702774047851562,37.23963165283203,-85.22882080078125
0,760856,-4.0029520988464355,11.834502220153809,21.899768829345703,170.40306091308594
0,760859,-9.28136157989502,-18.122114181518555,-30.252185821533203,150.634033203125
0,760860,11.399757385253906,-16.722579956054688,-8.865166664123535,126.76912689208984
0,760863,34.84705352783203,17.260122299194336,-14.643733024597168,-84.19547271728516
0,760864,15.121034622192383,7.598730087280273,-29.701120376586914,-173.7961883544922
0,760867,-18.146915435791016,-33.8619499206543,24.424135208129883,86.06554412841797
0,760868,-24.876121520996094,-28.94664764404297,-2.957792282104492,90.13776397705078
0,760871,17.78730583190918,25.377328872680664,-33.005699157714844,16.071046829223633
0,760872,24.00269317626953,16.19279670715332,-5.211443901062012,23.31487464904785
0,760875,-16.564674377441406,-24.185819625854492,-15.109329223632812,-35.56462478637695
0,760876,9.12570571899414,26.80872344970703,35.411231994628906,-59.35728073120117
0,760879,11.416357040405273,31.83115577697754,122.20999145507812,59.134368896484375
0,760881,-41.93194580078125,-32.764713287353516,51.481082916259766,-3.069293260574341
0,760949,6.953089237213135,-19.178943634033203,-159.3240509033203,-30.943553924560547
0,760949,39.211944580078125,19.029747009277344,-125.85050964355469,124.96395111083984
0,760950,7.654916286468506,1.471794605255127,101.44697570800781,-13.402875900268555
0,760950,-18.816160202026367,-18.497276306152344,45.483028411865234,-53.79659652709961
0,760950,-21.426136016845703,5.4522247314453125,-32.347679138183594,55.87600326538086
0,760950,10.827468872070312,21.84014129638672,15.281156539916992,-9.930774688720703
0,760950,0.5867087244987488,-6.388524532318115,-26.690641403198242,-48.23124313354492
0,760950,-12.051131248474121,-33.209022521972656,-35.12932586669922,-40.799217224121094
0,760951,10.995476722717285,-8.496253967285156,-8.488396644592285,-36.02350616455078
0,760951,-4.1457719802856445,19.30390167236328,4.264970779418945,-15.803445816040039
0,760951,-14.506911277770996,10.009509086608887,25.720050811767578,-19.1092529296875
0,760951,4.556818962097168,-11.4760160446167,21.792463302612305,3.499180555343628
0,760951,-6.694077491760254,-0.45344632863998413,16.357887268066406,21.23842430114746
0,760952,10.363774299621582,23.18985366821289,25.880903244018555,-2.988358974456787
0,760952,15.656648635864258,10.762422561645508,-0.5918110609054565,-3.522080183029175
0,760952,-6.920675754547119,-11.98155689239502,-20.459300994873047,-1.5775538682937622
0,760952,0.8429564237594604,-20.933292388916016,12.335100173950195,6.096083641052246
0,760952,10.601814270019531,20.676130294799805,3.7369818687438965,-20.820552825927734
0,760952,16.603885650634766,18.390575408935547,-12.852503776550293,-33.897254943847656
0,760953,-9.662096977233887,-18.601259231567383,4.952917098999023,8.325908660888672
0,760953,-12.565443992614746,3.7959721088409424,-6.848155975341797,-24.33506202697754
0,760953,12.219017028808594,3.1676061153411865,-9.702631950378418,-34.29792404174805
0,760953,-13.333340644836426,-19.45246696472168,14.221651077270508,33.771644592285156
0,760953,-21.298812866210938,-1.4127737283706665,19.23329734802246,9.842803955078125
0,760953,11.690694808959961,31.052082061767578,-3.4522926807403564,-36.60139083862305
0,760954,19.636608123779297,-2.548828125,-1.8485379219055176,-20.374019622802734
0,760954,-2.076301097869873,-26.518640518188477,-1.2790346145629883,-15.220199584960938
0,760954,-10.249190330505371,10.047603607177734,-8.714921951293945,8.034980773925781
0,760954,5.48980188369751,8.439347267150879,12.646004676818848,16.853513717651367
0,760954,-1.5455092191696167,-9.825357437133789,8.473094940185547,-14.354462623596191
0,760954,-21.980928421020508,-3.406252384185791,-17.79037857055664,-11.816682815551758
0,760955,4.3091230392456055,-2.821234703063965,-13.626723289489746,-16.25023078918457
0,760955,-5.349174499511719,-22.548908233642578,6.645517826080322,-28.47522735595703
0,760955,-21.38587188720703,-13.524465560913086,-3.0974955558776855,-23.059316635131836
0,760956,-21.295759201049805,3.028562068939209,24.328227996826172,-146.2749481201172
0,760956,-19.945270538330078,12.019265174865723,35.000267028808594,-9.302852630615234
0,760957,41.1860237121582,25.206701278686523,-43.89091491699219,302.84521484375
0,760958,26.93036460876465,4.492497444152832,0.28668656945228577,584.5401000976562
0,760959,14.257493019104004,26.480579376220703,53.598018646240234,518.0765380859375
0,760961,35.05671310424805,44.952903747558594,-42.799652099609375,-296.0565490722656
0,760963,46.45166015625,-47.29920196533203,-142.11190795898438,-718.086669921875
0,760965,-14.69242000579834,-94.66641235351562,-41.84721755981445,-584.1474609375
0,760967,-109.04788970947266,4.247844696044922,164.18214416503906,167.7082977294922
0,760969,-5.456293106079102,50.1427116394043,54.10767364501953,931.6515502929688
0,760971,33.366790771484375,31.62212371826172,-142.85122680664062,201.88951110839844
0,760973,-33.25345230102539,9.934582710266113,-49.146095275878906,-593.4380493164062
0,760975,81.62751007080078,-12.167309761047363,95.05345153808594,-325.3851623535156
0,760977,102.43062591552734,11.488720893859863,62.38700485229492,-53.22602462768555
0,760979,-114.27802276611328,-25.22461700439453,-10.877445220947266,-39.72552490234375
0,760981,-96.3229751586914,-20.127796173095703,-0.49415332078933716,71.28514862060547
0,760983,47.86688232421875,29.265514373779297,-3.7470462322235107,377.36138916015625
0,760985,11.120388984680176,-24.999454498291016,-42.11658477783203,247.51763916015625
0,760987,8.633383750915527,-16.567138671875,11.955840110778809,-480.6865234375
0,760989,18.591602325439453,18.807371139526367,34.8040885925293,-389.93560791015625
0,761070,7.721319675445557,7.03767204284668,-28.0832576751709,455.8131408691406
0,761071,14.983034133911133,18.12051010131836,-2.763211250305176,280.4668273925781
0,761071,-19.1544246673584,-27.05372428894043,8.42834758758545,-413.6004333496094
0,761071,-31.08660316467285,-26.72975730895996,-30.539819717407227,-233.4916229248047
0,761071,-8.99136734008789,16.50031089782715,-6.3043742179870605,20.475847244262695
0,761071,-4.3828535079956055,12.73493766784668,39.87128829956055,-38.906158447265625
0,761071,16.48712158203125,19.416696548461914,28.77101707458496,15.19019603729248
0,761072,28.949193954467773,9.2744140625,-11.475194931030273,90.67496490478516
0,761072,-6.171123027801514,-18.67470359802246,3.4855244159698486,119.3405532836914
0,761072,-2.274620771408081,12.612407684326172,6.267327785491943,67.07642364501953
0,761072,15.232789039611816,28.11675453186035,-20.576459884643555,6.693199157714844
0,761072,-7.782896518707275,-46.2103271484375,3.474327564239502,-31.586929321289062
0,761072,-20.84283447265625,-39.663330078125,-8.013758659362793,-109.22724151611328
0,761073,-15.357063293457031,29.320430755615234,-32.32345199584961,-70.85343170166016
0,761073,-12.931387901306152,1.4953469038009644,0.46621567010879517,86.80345916748047
0,761073,-7.317979335784912,-18.577363967895508,21.796144485473633,128.29811096191406
0,761073,17.097103118896484,5.290250301361084,9.43481159210205,94.11483001708984
0,761073,3.7020721435546875,12.820036888122559,-10.04589557647705,108.4186782836914
0,761074,-1.477190375328064,26.96575355529785,1.0514938831329346,109.08726501464844
0,761074,18.01091957092285,12.866745948791504,16.383956909179688,111.75916290283203
0,761074,-3.209444761276245,-12.781817436218262,-2.3143317699432373,58.833702087402344
0,761074,-10.54423713684082,-28.75139617919922,-15.524184226989746,-39.462249755859375
0,761074,-3.7624456882476807,-20.680992126464844,-7.970039367675781,-26.841121673583984
0,761074,-9.459905624389648,14.628856658935547,1.0541318655014038,-2.8454761505126953
0,761075,-13.24639892578125,13.28640365600586,6.535603046417236,-25.67340660095215
0,761075,25.942609786987305,4.76628303527832,-6.85286283493042,-47.61733627319336
0,761075,19.38711929321289,13.789349555969238,1.8899720907211304,-64.25572204589844
0,761075,-27.4998836517334,1.0705149173736572,23.667722702026367,-95.61016845703125
0,761075,14.201651573181152,-4.889332294464111,-3.7769761085510254,-72.72297668457031
0,761075,15.687482833862305,1.7472699880599976,-5.9962029457092285,-27.965551376342773
0,761076,-7.7494378089904785,18.695852279663086,23.323240280151367,-42.58255386352539
0,761076,17.818315505981445,16.645137786865234,-2.55959153175354,-36.541542053222656
0,761076,6.903772830963135,-25.989253997802734,-28.173574447631836,1.2500758171081543
0,761076,-6.977144241333008,-11.165449142456055,13.495843887329102,29.463207244873047
0,761076,6.309391975402832,13.20792007446289,10.951416969299316,0.8746687173843384
0,761076,0.8099796175956726,-8.792844772338867,-12.301168441772461,-18.7726993560791
0,761077,-3.8379671573638916,1.7680981159210205,15.88517951965332,-1.7496237754821777
0,761077,2.336904525756836,13.53215503692627,-2.0803470611572266,0.8730590343475342
0,761077,-9.823365211486816,-18.581085205078125,-7.844185829162598,5.229732036590576
0,761077,-11.27341079711914,-19.621713638305664,3.923633098602295,27.809242248535156
0,761077,-0.9572760462760925,24.082656860351562,-15.730398178100586,26.009618759155273
0,761079,-22.54017448425293,8.11019515991211,2.5258045196533203,125.14599609375
0,761079,-20.904560089111328,-36.17967987060547,4.770956993103027,119.67676544189453
0,761079,11.851637840270996,-2.81245756149292,-13.092482566833496,-128.84410095214844
0,761079,24.693458557128906,26.042682647705078,8.700636863708496,-78.97261047363281
0,761080,33.555240631103516,14.966548919677734,14.78298282623291,-0.9567617177963257
0,761083,-1.2645057439804077,-5.614142417907715,-9.453916549682617,-92.03177642822266
0,761084,8.502120971679688,-10.738166809082031,-12.265737533569336,-16.80609130859375
0,761087,13.985551834106445,-0.48836565017700195,0.9604669809341431,103.31912231445312
0,761088,-52.79386901855469,-11.157652854919434,-28.304550170898438,28.01454734802246
0,761091,-29.72260093688965,-4.775094985961914,-24.395002365112305,-175.64315795898438
0,761093,22.650665283203125,-12.277868270874023,30.157207489013672,-96.16731262207031
0,761095,42.31775665283203,5.940708160400391,29.048538208007812,103.32450103759766
0,761097,10.842790603637695,28.959829330444336,-6.000113487243652,81.80302429199219
0,761099,-63.19240951538086,-21.247411727905273,-41.61174011230469,-17.311630249023438
0,761101,-30.729278564453125,-22.88619041442871,7.55057954788208,4.144114971160889
0,761103,44.412071228027344,23.866409301757812,51.57025909423828,104.40608215332031
0,761105,21.861438751220703,24.716222763061523,5.867565631866455,25.15837287902832
0,761107,-9.52808952331543,-6.878985404968262,11.414501190185547,-141.8960723876953
0,761109,-5.140539646148682,-31.556499481201172,-23.343381881713867,-34.606021881103516
0,761111,-1.386034607887268,3.554858446121216,-41.770606994628906,106.30595397949219
0,761113,16.602018356323242,31.71155548095703,28.578149795532227,24.19843292236328
0,761207,-27.064773559570312,3.0014405250549316,82.6395034790039,-33.688880920410156
0,761207,-37.20372772216797,-2.596421003341675,34.44126892089844,-34.67987060546875
0,761207,44.92142868041992,12.40336799621582,-74.6277847290039,4.899555683135986
0,761207,9.209104537963867,-9.755661010742188,-22.806352615356445,57.194515228271484
0,761208,-37.302555084228516,-22.03433609008789,24.8093204498291,37.12301254272461
0,761208,-5.395333290100098,20.951683044433594,-26.509008407592773,-3.8236243724823
0,761208,24.972129821777344,13.39243221282959,-21.516643524169922,-28.48683738708496
0,761208,39.49516296386719,2.2979016304016113,13.638179779052734,-19.81683921813965
0,761208,-15.595349311828613,-22.443885803222656,6.1893439292907715,-25.440383911132812
0,761208,-26.9536190032959,-34.4803466796875,-39.897830963134766,-39.50938034057617
0,761209,20.318937301635742,14.959183692932129,-15.17297649383545,-5.213521480560303
0,761209,11.522134780883789,6.837150573730469,26.935176849365234,24.375579833984375
0,761209,-4.3782243728637695,-7.222290992736816,-20.107624053955078,19.980941772460938
0,761209,-1.968268871307373,-5.784010410308838,-31.347095489501953,-9.986145973205566
0,761209,-6.307673931121826,20.55975914001465,31.820356369018555,-0.23702393472194672
0,761209,1.6157145500183105,-7.162212371826172,25.16609001159668,7.419469833374023
0,761210,-10.897323608398438,-23.13509750366211,-21.615991592407227,-11.623178482055664
0,761210,1.1375964879989624,19.41448402404785,-13.286462783813477,30.709680557250977
0,761210,31.639759063720703,7.314058780670166,31.80322265625,1.7360082864761353
0,761210,20.035873413085938,0.8739129304885864,12.778114318847656,-16.609405517578125
0,761210,16.50225830078125,1.819054365158081,-32.67517852783203,-3.8307952880859375
0,761210,7.0521240234375,18.244369506835938,15.192376136779785,-28.806285858154297
0,761211,-9.31041145324707,-15.200876235961914,-6.2376532554626465,32.117164611816406
0,761211,-18.997337341308594,-9.911197662353516,-16.297073364257812,51.94517135620117
0,761211,-7.2406415939331055,18.229188919067383,50.387577056884766,7.92062520980835
0,761211,11.013583183288574,-42.727264404296875,3.6546592712402344,-7.691142559051514
0,761211,-24.459922790527344,12.672392845153809,-19.617971420288086,-11.832536697387695
0,761212,-39.43123245239258,36.617095947265625,21.48912239074707,18.768146514892578
0,761212,30.749113082885742,-14.66698169708252,16.89726448059082,-31.541664123535156
0,761212,9.833246231079102,3.5120468139648438,-9.119705200195312,-62.63942337036133
0,761212,-72.68547058105469,-17.130298614501953,-24.788022994995117,41.761348724365234
0,761212,0.2231922745704651,-16.286296844482422,8.925801277160645,28.68755531311035
0,761212,38.53217315673828,22.770174026489258,7.026785850524902,-34.072509765625
0,761213,-53.173954010009766,-21.194551467895508,-35.81416320800781,-15.852741241455078
0,761213,-17.19579315185547,-17.57585906982422,3.2500357627868652,7.869477272033691
0,761213,61.59372329711914,57.71520233154297,25.324792861938477,21.804702758789062
0,761213,16.78616714477539,16.83879852294922,-32.21065902709961,-6.880262851715088
0,761213,-24.361093521118164,-38.67048263549805,13.508467674255371,-15.531237602233887
0,761213,0.19396309554576874,-1.1223900318145752,65.2231216430664,8.306035995483398
0,761214,37.572513580322266,22.902088165283203,-27.784488677978516,-34.84878158569336
0,761214,-7.270233631134033,-11.853218078613281,-38.12328338623047,-7.335851192474365
0,761214,-42.6198616027832,-33.237083435058594,21.452449798583984,47.764408111572266
0,761214,17.56355094909668,20.969921112060547,29.254751205444336,-8.118043899536133
0,761214,29.944183349609375,17.147811889648438,-23.207420349121094,-9.398856163024902
0,761214,1.4938528537750244,-22.195341110229492,-41.48668670654297,11.307242393493652
0,761215,-8.05041217803955,8.741631507873535,53.01862716674805,3.5286715030670166
0,761215,-13.254461288452148,-4.739306449890137,27.615903854370117,3.950227975845337
0,761216,-17.69444465637207,-1.5933425426483154,-73.01455688476562,1.4488582611083984
0,761216,-7.135152339935303,17.444705963134766,1.7201313972473145,17.631771087646484
0,761216,33.031375885009766,-5.58008337020874,37.36960220336914,17.128332138061523
0,761217,11.038516998291016,-12.035815238952637,-33.81938171386719,-14.569856643676758
0,761218,-6.646697044372559,-0.04514222964644432,-7.195521831512451,-46.011131286621094
0,761219,22.611642837524414,25.36175537109375,25.04081153869629,-13.142634391784668
0,761220,-15.679137229919434,-3.012479305267334,-43.850120544433594,21.44428062438965
0,761223,-12.528486251831055,-14.350393295288086,-67.2867431640625,9.87684440612793
0,761224,25.320817947387695,8.41174030303955,59.89311981201172,43.33265686035156
0,761227,4.103988170623779,6.341400146484375,169.7596435546875,-14.83488941192627
0,761228,-5.494189739227295,17.934728622436523,64.6075668334961,-76.30892181396484
0,761231,-20.806974411010742,-13.49988842010498,-141.3356475830078,42.07152557373047
0,761232,-25.302682876586914,-12.036910057067871,-125.68736267089844,41.60648727416992
0,761235,25.29564666748047,-17.967199325561523,-27.119060516357422,-14.870903015136719
0,761236,44.75033950805664,-26.53481674194336,23.285051345825195,5.913626670837402
0,761239,21.56771469116211,42.36375427246094,80.736083984375,-37.34661865234375
0,761240,-30.950170516967773,10.809918403625488,19.010313034057617,-22.732271194458008
0,761243,-76.84968566894531,-47.77106857299805,-14.276481628417969,19.745439529418945
0,761245,-11.857219696044922,10.783818244934082,23.063444137573242,35.13030242919922
0,761247,58.778865814208984,47.668025970458984,-18.971742630004883,30.344730377197266
0,761249,2.713327169418335,11.053391456604004,-52.88964080810547,-63.00574493408203
0,761251,-11.847983360290527,-35.06907653808594,32.10791015625,-35.54829788208008
0,761253,23.61724281311035,-18.67061996459961,47.50630187988281,31.704099655151367
0,761358,-21.637187957763672,30.24972152709961,-30.407699584960938,13.036287307739258
0,761358,-19.75035285949707,-15.733931541442871,5.658014297485352,42.71946334838867
0,761358,10.348858833312988,-12.410737037658691,27.40070915222168,-6.648070812225342
0,761358,-12.273778915405273,27.971538543701172,-19.592369079589844,-29.828754425048828
0,761358,-2.9396908283233643,-8.596396446228027,-23.341386795043945,-1.472458839416504
0,761358,21.277971267700195,-7.058652877807617,-5.323424339294434,-1.1278269290924072
0,761359,2.320462703704834,-9.668475151062012,4.965162754058838,25.561904907226562
0,761359,1.867875576019287,-3.3107144832611084,-3.311711549758911,-7.161482334136963
0,761359,12.194123268127441,5.286907196044922,-8.635904312133789,-18.832996368408203
0,761359,-9.429068565368652,-11.372556686401367,7.6999688148498535,7.4046711921691895
0,761359,-5.327789783477783,6.895910263061523,24.207595825195312,-3.033390522003174
0,761359,18.62021827697754,15.960692405700684,10.736200332641602,-11.169252395629883
0,761360,2.0649259090423584,-2.8311901092529297,-8.538863182067871,-0.9668740630149841
0,761360,-12.426118850708008,-10.606101036071777,-4.472486972808838,15.679550170898438
0,761360,13.831226348876953,20.008914947509766,-11.131058692932129,-2.4506757259368896
0,761360,12.3358793258667,5.161652088165283,-26.616558074951172,-6.328701496124268
0,761360,-10.74957275390625,-28.06188201904297,-11.772911071777344,17.50375747680664
0,761360,-4.731507301330566,9.346698760986328,19.1495418548584,-8.388382911682129
0,761361,0.6517652869224548,18.711206436157227,11.340632438659668,-27.290145874023438
0,761361,-10.725677490234375,1.5870057344436646,-3.528916358947754,-2.2050743103027344
0,761361,1.3950920104980469,2.135054588317871,10.312718391418457,8.786334037780762
0,761361,0.40852195024490356,-9.112003326416016,20.955368041992188,11.91300106048584
0,761361,-4.403152942657471,14.744131088256836,11.415416717529297,-4.9133100509643555
0,761362,4.5759077072143555,4.8987836837768555,-5.4210333824157715,-11.242493629455566
0,761362,-12.440755844116211,-26.97771644592285,-12.941954612731934,30.453582763671875
0,761362,13.038759231567383,-0.2675568759441376,2.323601484298706,9.25368881225586
0,761362,11.274145126342773,4.742272853851318,14.135087966918945,-28.276784896850586
0,761362,-28.190914154052734,-4.982827663421631,-23.275068283081055,3.674002170562744
0,761362,-5.753350734710693,9.271421432495117,-22.678916931152344,14.368804931640625
0,761363,5.856518745422363,4.151525974273682,24.65641975402832,8.88955020904541
0,761363,8.615303993225098,-10.3164644241333,17.313371658325195,-5.603662967681885
0,761363,6.924856185913086,14.193700790405273,0.8693578839302063,-28.775135040283203
0,761363,-15.797625541687012,-7.178985118865967,-8.799163818359375,-7.446919918060303
0,761363,-9.813821792602539,-36.622406005859375,-24.443588256835938,16.44793701171875
0,761363,-0.5508385896682739,21.339862823486328,1.647623062133789,3.99695086479187
0,761364,9.385595321655273,24.393688201904297,4.745545864105225,-3.1783621311187744
0,761364,22.088430404663086,-35.645591735839844,-27.3909854888916,14.699787139892578
0,761364,-3.978672504425049,-5.815668106079102,19.99807357788086,-0.09277518093585968
0,761364,-14.881440162658691,31.93817138671875,14.310264587402344,-1.173684000968933
0,761364,-9.655304908752441,-11.722335815429688,-25.507606506347656,-3.566535711288452
0,761364,-3.064490556716919,-9.589070320129395,17.83510398864746,2.332371950149536
0,761365,33.420867919921875,20.970779418945312,-7.6630377769470215,15.76145076751709
0,761365,0.4703950881958008,8.660333633422852,-10.096714973449707,-19.137514114379883
0,761365,-25.77874755859375,-2.211512327194214,9.730374336242676,-6.845766544342041
0,761365,18.804147720336914,-18.975543975830078,-9.213066101074219,-2.8465116024017334
0,761365,14.835334777832031,-5.572932720184326,3.736072301864624,-21.522756576538086
0,761365,-24.929401397705078,13.24217700958252,-5.608848571777344,-3.4880118370056152
0,761366,-27.19428062438965,-16.703954696655273,5.258519649505615,18.22446060180664
0,761366,23.3638858795166,-5.333500862121582,11.279850006103516,-2.6852028369903564
0,761366,19.72661018371582,17.38740348815918,-3.213564872741699,-3.934250831604004
0,761366,-20.780471801757812,-2.950521945953369,10.814963340759277,12.700613975524902
0,761366,2.143010139465332,-1.5207537412643433,-2.1768248081207275,-18.821552276611328
0,761368,14.012860298156738,13.28685188293457,-14.19709587097168,12.533256530761719
0,761368,0.845638632774353,-0.1086726114153862,10.148652076721191,35.3027229309082
0,761368,8.512957572937012,-18.092845916748047,12.383152961730957,2.0696680545806885
0,761368,-9.124839782714844,-8.867384910583496,-15.612071990966797,5.15431547164917
0,761368,-10.008025169372559,9.870089530944824,-12.345038414001465,-11.340590476989746
0,761370,26.704774856567383,19.741331100463867,16.667993545532227,0.21520277857780457
0,761371,2.1502134799957275,3.9781064987182617,24.49445343017578,36.58243179321289
0,761374,-38.31803512573242,-16.0517520904541,40.291259765625,-46.096900939941406
0,761375,7.511308670043945,14.415780067443848,65.39180755615234,-33.20487976074219
0,761378,3.828394889831543,19.913137435913086,-51.97723388671875,11.296283721923828
0,761379,-24.947023391723633,-14.634014129638672,-120.22569274902344,-19.368568420410156
0,761382,59.96714782714844,-37.07300567626953,-25.329132080078125,49.13345718383789
0,761383,8.13461971282959,-16.60746955871582,8.569907188415527,12.465978622436523
0,761386,-69.71029663085938,48.78825378417969,63.04133987426758,-34.4180793762207
0,761387,-6.183326721191406,21.4881534576416,49.068904876708984,-18.109973907470703
0,761390,26.246278762817383,-22.652957916259766,-42.56321334838867,-3.8638041019439697
0,761391,19.638946533203125,-17.405227661132812,-36.36711883544922,45.67229461669922
0,761394,-12.032903671264648,-11.945465087890625,-2.7123217582702637,-4.605058670043945
0,761395,2.381822347640991,9.356390953063965,3.9910783767700195,-18.31117820739746
0,761396,13.047255516052246,8.910646438598633,6.594223976135254,53.386783599853516
0,761399,-24.999740600585938,-16.9575138092041,6.442374229431152,-40.84303283691406
0,761400,2.6311123371124268,-9.621349334716797,28.132369995117188,-51.727638244628906
0,761403,10.571346282958984,31.614261627197266,30.771604537963867,35.603389739990234
0,761404,-21.59702491760254,5.216249465942383,-20.892749786376953,-1.6694345474243164
0,761520,7.6186017990112305,-26.621868133544922,-36.30226516723633,-17.248367309570312
0,761520,22.85651206970215,10.26628303527832,-30.539356231689453,-20.276050567626953
0,761520,1.9293187856674194,16.391578674316406,3.180483818054199,13.317543983459473
0,761520,-27.121747970581055,-17.27189064025879,39.4974479675293,11.023841857910156
0,761520,5.5036702156066895,-6.996367931365967,16.612573623657227,3.4531469345092773
0,761521,25.749725341796875,0.606877326965332,-10.654635429382324,15.910082817077637
0,761521,-17.763795852661133,6.834559917449951,-11.585532188415527,0.7682987451553345
0,761521,3.521328926086426,35.33955383300781,8.079666137695312,21.099637985229492
0,761521,18.374475479125977,0.2664138376712799,15.264840126037598,-3.9421937465667725
0,761521,-21.855823516845703,-37.802005767822266,-3.3477792739868164,-16.82332992553711
0,761521,-20.04477882385254,-3.0093557834625244,-10.549100875854492,15.205205917358398
0,761522,22.325143814086914,20.455150604248047,-12.740742683410645,2.0515940189361572
0,761522,2.210017442703247,-11.62057876586914,-20.592161178588867,-1.5433646440505981
0,761522,-8.937139511108398,-4.0110015869140625,-5.368744850158691,13.1829252243042
0,761522,15.095080375671387,3.351954460144043,27.447067260742188,-7.778561115264893
0,761522,-18.920406341552734,-11.623614311218262,10.059525489807129,-6.571187496185303
0,761523,-22.452762603759766,6.642293453216553,-6.89868688583374,13.80317211151123
0,761523,20.493867874145508,10.580185890197754,33.0858268737793,7.762055397033691
0,761523,22.9669132232666,10.264599800109863,5.027092933654785,-12.662267684936523
0,761523,-8.26681900024414,-0.5238879323005676,-25.645132064819336,-6.762112617492676
0,761523,-8.52367115020752,-12.826570510864258,-8.130352020263672,12.024755477905273
0,761523,15.77049732208252,-18.89560317993164,-18.190601348876953,-5.82834529876709
0,761524,-7.868383407592773,-10.38953971862793,1.251142978668213,5.817324638366699
0,761524,-10.286234855651855,29.775150299072266,13.704618453979492,-2.2543132305145264
0,761524,19.016530990600586,28.75751304626465,-12.872729301452637,-45.51673126220703
0,761524,-12.111591339111328,-21.695154190063477,-9.741928100585938,2.8332674503326416
0,761524,-22.578134536743164,-14.869007110595703,12.976128578186035,30.709897994995117
0,761524,17.54568099975586,7.620423793792725,12.31343936920166,-13.880866050720215
0,761525,1.0299787521362305,-5.226094722747803,-4.927093982696533,-9.144152641296387
0,761525,-7.747915744781494,7.604739189147949,-0.18204288184642792,-1.4091922044754028
0,761525,21.509098052978516,2.7593839168548584,15.804839134216309,-3.3351705074310303
0,761525,-8.218137741088867,-15.367827415466309,2.2305171489715576,3.5129497051239014
0,761525,-15.562779426574707,-0.8161211013793945,-8.466212272644043,-14.045539855957031
0,761525,9.086201667785645,23.466562271118164,-9.269927978515625,16.87255096435547
0,761526,1.1710131168365479,8.650196075439453,12.498455047607422,22.37082862854004
0,761526,8.092120170593262,-24.493520736694336,23.381534576416016,-20.27176856994629
0,761526,1.6447969675064087,-5.176270008087158,-7.723415374755859,4.52321195602417
0,761526,-1.0695029497146606,5.1468119621276855,-7.401706218719482,0.43970656394958496
0,761526,6.753546237945557,0.38654041290283203,-1.128907322883606,-13.110913276672363
0,761526,-15.055328369140625,16.55340003967285,7.833243370056152,14.166125297546387
0,761527,3.8206441402435303,-7.058271884918213,-2.2651867866516113,-8.01117992401123
0,761527,12.645143508911133,-7.3521318435668945,-20.592859268188477,-5.211976528167725
0,761527,-20.121562957763672,21.77455711364746,19.229267120361328,19.039785385131836
0,761527,5.28940486907959,-0.6416047811508179,11.857499122619629,-11.004853248596191
0,761527,8.564417839050293,-21.274566650390625,-22.71729278564453,-11.473420143127441
0,761528,-15.66752815246582,-0.4693310856819153,-11.478317260742188,6.586452960968018
0,761528,8.04335880279541,5.85491943359375,-16.479585647583008,11.75192928314209
0,761528,0.585595965385437,2.6700563430786133,9.848520278930664,12.817322731018066
0,761528,-3.011752128601074,-1.2283707857131958,8.812271118164062,-12.06440258026123
0,761528,10.652973175048828,-15.38659381866455,-22.81833267211914,-3.1005313396453857
0,761528,-18.54366683959961,13.328071594238281,25.88108253479004,15.027478218078613
0,761528,7.313647270202637,3.1893229484558105,6.986931800842285,-11.900293350219727
0,761529,22.691686630249023,-22.72473907470703,-18.883207321166992,-1.1274693012237549
0,761529,-26.47549057006836,4.37034273147583,19.76084327697754,16.301273345947266
0,761529,-0.024286525323987007,18.389698028564453,-6.61871337890625,-17.808582305908203
0,761529,10.206059455871582,5.970711708068848,-18.916841506958008,-2.906121015548706
0,761529,-15.619369506835938,-15.123504638671875,17.839717864990234,21.82912826538086
0,761531,2.7380082607269287,-2.482353687286377,12.908294677734375,-11.457975387573242
0,761531,3.8242597579956055,19.29322052001953,-12.41453742980957,-28.382694244384766
0,761531,-1.6749885082244873,0.5294653177261353,-15.949788093566895,-6.666428565979004
0,761531,-6.467250823974609,-24.438980102539062,-2.9489433765411377,22.72925567626953
0,761531,6.576052665710449,-0.29745936393737793,10.547511100769043,1.4074455499649048
0,761531,23.267501831054688,14.14603328704834,-2.307189464569092,3.4615068435668945
0,761533,-3.3060550689697266,-16.255069732666016,-21.173351287841797,30.042251586914062
0,761536,5.20083475112915,5.365325927734375,7.655829906463623,2.6867470741271973
0,761537,19.311830520629883,29.509260177612305,74.49683380126953,-19.938690185546875
0,761540,-35.48167419433594,-32.24519348144531,49.68479537963867,-14.708123207092285
0,761541,-24.309696197509766,-20.766605377197266,-51.66427230834961,4.043078899383545
0,761544,2.3255109786987305,11.791502952575684,-131.56678771972656,3.708242177963257
0,761545,-12.868072509765625,5.96319580078125,-56.41352844238281,7.282057285308838
0,761548,71.00333404541016,13.058062553405762,74.4568099975586,-4.011390209197998
0,761549,67.34678649902344,-5.5560832023620605,31.912492752075195,-1.1045938730239868
0,761552,-84.61820220947266,22.256208419799805,75.10848236083984,2.274224042892456
0,761553,-107.8245849609375,10.401894569396973,105.36978149414062,-19.602741241455078
0,761556,0.8076774477958679,-10.957574844360352,-87.33287048339844,-5.083564758300781
0,761557,59.929534912109375,-7.080301761627197,-123.50345611572266,1.9370810985565186
0,761560,69.86589813232422,-26.294485092163086,-0.8350743055343628,12.600218772888184
0,761561,12.53726577758789,24.725744247436523,54.880767822265625,1.310160517692566
0,761564,-64.23985290527344,24.251678466796875,34.944576263427734,-15.292339324951172
0,761565,-33.83441925048828,-50.389610290527344,-15.423216819763184,20.152727127075195
0,761568,23.747772216796875,-21.686748504638672,-13.136370658874512,19.76628303527832
0,761569,38.5585823059082,30.110830307006836,-2.2131991386413574,-23.942399978637695
0,761572,8.152359962463379,27.379831314086914,-4.545422077178955,-27.9742488861084
0,761696,-23.859825134277344,-11.665871620178223,-18.817785263061523,18.256771087646484
0,761696,-23.58271598815918,-37.36099624633789,-13.160889625549316,41.057552337646484
0,761696,11.879670143127441,6.083277225494385,21.51744842529297,-10.325302124023438
0,761697,20.21738624572754,25.019756317138672,12.683605194091797,-26.21172332763672
0,761697,-6.90625,4.992231369018555,16.82939910888672,3.2813377380371094
0,761697,-7.5110182762146,11.443500518798828,18.798049926757812,-5.991006851196289
0,761697,-2.5444817543029785,0.35505443811416626,-2.3296093940734863,2.5775856971740723
0,761697,-5.826101779937744,-18.45940399169922,7.466831207275391,15.764397621154785
0,761697,2.330860137939453,13.463578224182129,-3.4493601322174072,0.848879337310791
0,761698,23.179216384887695,12.199335098266602,-26.730716705322266,-21.760353088378906
0,761698,3.262188196182251,-34.41041564941406,-35.836021423339844,-15.634162902832031
0,761698,-30.573495864868164,-20.462665557861328,-14.24536418914795,22.113191604614258
0,761698,-6.439582347869873,31.516443252563477,24.227991104125977,14.225253105163574
0,761698,25.63016700744629,10.722650527954102,18.758825302124023,-2.7912068367004395
0,761698,-4.164024353027344,-22.4835262298584,1.131585717201233,-9.793785095214844
0,761699,-14.889113426208496,1.1474448442459106,-1.1159934997558594,-2.013840675354004
0,761699,14.304400444030762,10.79525089263916,7.386960983276367,28.541046142578125
0,761699,-0.4377332031726837,-1.9822843074798584,13.745893478393555,9.20959186553955
0,761699,-13.841571807861328,-1.489403247833252,-2.028111219406128,-34.62820053100586
0,761699,11.73536491394043,5.703704833984375,-29.69860076904297,-17.302156448364258
0,761699,11.514666557312012,-9.584982872009277,-20.170854568481445,25.09154510498047
0,761700,-18.836332321166992,-8.635930061340332,4.991650104522705,-1.6673153638839722
0,761700,-0.6010131239891052,1.6676174402236938,19.666576385498047,-14.753533363342285
0,761700,15.588777542114258,18.318540573120117,25.46276092529297,1.3198959827423096
0,761700,1.985337257385254,32.092201232910156,-8.00379467010498,-4.3647871017456055
0,761700,0.9928935170173645,-29.906696319580078,-6.6118011474609375,6.981039524078369
0,761701,-17.73849868774414,-29.45275115966797,6.277057647705078,-1.6384066343307495
0,761701,-6.449309825897217,30.153240203857422,-1.3747352361679077,-9.738325119018555
0,761701,21.822072982788086,9.40583610534668,13.745203971862793,-2.038973569869995
0,761701,7.617009162902832,-13.050446510314941,-11.617280960083008,3.3006386756896973
0,761701,-21.102327346801758,-0.005913064815104008,-16.128202438354492,13.488173484802246
0,761701,1.4100371599197388,0.7266432046890259,11.146821022033691,-8.812368392944336
0,761702,15.35007381439209,-6.819960117340088,-5.518569469451904,-8.148736953735352
0,761702,-13.951920509338379,0.5595541000366211,6.514962673187256,14.631983757019043
0,761702,2.616424798965454,10.054375648498535,7.371480464935303,4.3021440505981445
0,761702,4.018962860107422,-1.0968834161758423,-13.678398132324219,3.2617735862731934
0,761702,-16.57861328125,-25.958757400512695,4.231812477111816,-4.929162979125977
0,761702,5.170511245727539,3.5998880863189697,10.03343391418457,-1.536245584487915
0,761703,15.328275680541992,31.845924377441406,-7.8291730880737305,13.070659637451172
0,761703,-3.788547992706299,-19.593828201293945,-31.903141021728516,6.544022560119629
0,761703,-20.172657012939453,-17.08331871032715,-7.157524585723877,8.097846031188965
0,761703,-1.7871954441070557,28.478349685668945,28.769901275634766,-5.055375099182129
0,761703,14.872566223144531,-3.496974468231201,8.040443420410156,-3.105592966079712
0,761703,5.3506245613098145,-9.684000015258789,-23.20442008972168,-8.41716480255127
0,761704,8.701106071472168,5.5906171798706055,-3.3364391326904297,-10.073761940002441
0,761704,-6.9886274337768555,-3.007115364074707,22.877321243286133,7.317047119140625
0,761704,-11.92940616607666,12.69683837890625,-3.5368881225585938,-5.405177593231201
0,761704,-4.246362209320068,1.5628852844238281,2.284492015838623,19.996505737304688
0,761704,-1.1882822513580322,-9.494895935058594,21.845001220703125,1.7128947973251343
0,761704,10.12591552734375,-13.015861511230469,-11.07021427154541,-33.92100524902344
0,761705,-10.817020416259766,-11.251749038696289,-29.157318115234375,14.67724609375
0,761705,-1.1229255199432373,19.56186866760254,16.573928833007812,11.418279647827148
0,761705,33.428096771240234,21.950990676879883,10.704581260681152,-20.44000816345215
0,761705,-4.058163166046143,-22.821208953857422,-25.047061920166016,-3.025078296661377
0,761705,-26.9898738861084,-25.445158004760742,15.774364471435547,5.732932090759277
0,761705,11.383881568908691,12.631750106811523,13.166194915771484,11.168253898620605
0,761706,3.1456315517425537,7.953213691711426,-15.279200553894043,2.9441471099853516
0,761706,-6.330296516418457,23.83119010925293,10.56592845916748,-11.019743919372559
0,761706,11.24373722076416,15.715169906616211,19.672225952148438,8.589836120605469
0,761706,-2.8557307720184326,-30.547039031982422,-13.122177124023438,-12.202057838439941
0,761706,-0.7136840224266052,-3.565682888031006,-26.771257400512695,-19.223201751708984
0,761706,6.341617107391357,9.612043380737305,8.494575500488281,24.428123474121094
0,761708,-0.6674872040748596,-4.438348293304443,7.605926990509033,2.347763776779175
0,761708,3.9049980640411377,-8.23031997680664,-12.74808406829834,-11.594682693481445
0,761708,-6.61145544052124,-0.6838671565055847,4.142416000366211,-6.739129543304443
0,761708,-12.20913314819336,13.046095848083496,-13.167023658752441,-13.767782211303711
0,761708,-3.8699240684509277,-29.861297607421875,-13.14678955078125,17.145736694335938
0,761709,6.919552803039551,-12.48326301574707,17.447338104248047,11.401601791381836
0,761710,12.17876148223877,25.12189483642578,-6.530059814453125,-4.50024938583374
0,761711,-9.117484092712402,7.4892425537109375,10.759523391723633,3.311640977859497
0,761712,8.460247993469238,15.958075523376465,62.52574920654297,11.511972427368164
0,761715,-13.01476764678955,-1.5216525793075562,43.15142059326172,-11.841316223144531
0,761716,-28.240615844726562,-14.791390419006348,-24.674633026123047,-17.36627960205078
0,761719,9.472373008728027,10.416563034057617,-91.92728424072266,27.73923110961914
0,761721,-5.878721237182617,12.223490715026855,-30.406368255615234,14.659828186035156
0,761723,64.3790512084961,-7.333677291870117,53.589576721191406,-20.763994216918945
0,761725,55.24187469482422,10.799896240234375,3.594212293624878,4.982644081115723
0,761727,-69.65704345703125,-8.030031204223633,-70.8081283569336,12.784613609313965
0,761729,-54.32154846191406,-41.52897262573242,-83.8355712890625,-31.950244903564453
0,761731,-13.058768272399902,2.4401803016662598,80.06185150146484,13.46666145324707
0,761733,25.989696502685547,22.809059143066406,213.13119506835938,49.90093231201172
0,761735,-0.1343706250190735,13.954212188720703,117.14900207519531,-37.4066047668457
0,761737,-51.42632293701172,5.2487101554870605,-48.2462272644043,-58.73455810546875
0,761739,114.09898376464844,2.200566053390503,-273.5070495605469,36.662078857421875
0,761741,82.23550415039062,-5.571033000946045,-157.1829071044922,37.28433609008789
0,761743,-132.68115234375,-45.528533935546875,142.43203735351562,-55.57443618774414
0,761745,-51.62553787231445,-23.95869255065918,70.49724578857422,-30.98272705078125
0,761747,40.20706558227539,49.503448486328125,15.28946590423584,61.8475227355957
0,761749,2.571367025375366,29.7752685546875,7.251760482788086,34.09272384643555
0,761751,18.439504623413086,-44.419288635253906,-48.10125732421875,-41.14289474487305
0,761753,42.44111633300781,-0.7451660633087158,-27.74131202697754,-21.75814437866211
1,761889,-12.474783897399902,40.837646484375,-10.517890930175781,6.416086673736572
1,761889,-47.517093658447266,-35.42876052856445,20.280576705932617,7.36545991897583
1,761889,-15.7380952835083,-5.476250648498535,27.644506454467773,16.830028533935547
1,761889,12.243916511535645,35.097434997558594,49.931888580322266,15.9999418258667
1,761889,19.229822158813477,-8.305338859558105,55.827056884765625,-13.295755386352539
1,761889,-7.110203742980957,17.202253341674805,-20.956573486328125,-18.318286895751953
1,761890,-3.381767988204956,9.133734703063965,-35.77106857299805,11.008210182189941
1,761890,21.543840408325195,-15.24914264678955,-18.741710662841797,-0.3260105550289154
1,761890,10.551397323608398,-28.095966339111328,-40.38584899902344,-6.03582763671875
1,761890,-2.2791588306427,-17.381683349609375,-15.853575706481934,15.039508819580078
1,761890,-0.5321269035339355,48.549110412597656,11.681379318237305,-6.124397277832031
1,761890,2.7697536945343018,6.753093242645264,-3.3333539962768555,-9.289312362670898
1,761891,-19.219175338745117,-56.94849395751953,21.439178466796875,20.553861618041992
1,761891,-14.072428703308105,1.1011691093444824,31.802669525146484,-0.2121475487947464
1,761891,10.667851448059082,27.61675262451172,4.366147518157959,-9.62948226928711
1,761891,-15.186439514160156,2.803635358810425,27.165504455566406,14.43790340423584
1,761891,-6.29627799987793,16.63578224182129,-3.4608097076416016,-2.87853741645813
1,761892,33.13297653198242,-8.666589736938477,-48.849002838134766,-22.471162796020508
1,761892,5.352089881896973,-17.64069175720215,-14.117515563964844,4.334070205688477
1,761892,-12.548582077026367,4.692729473114014,-13.052933692932129,1.990824580192566
1,761892,-2.502323627471924,-1.2732824087142944,-4.795851707458496,-1.802478313446045
1,761892,-0.08349239081144333,-13.243245124816895,10.17316722869873,29.37525177001953
1,761892,8.61314582824707,5.581357479095459,11.088215827941895,-10.795459747314453
1,761893,-18.59879493713379,30.246919631958008,35.13692855834961,-29.528167724609375
1,761893,4.769853115081787,-7.41884708404541,1.473326325416565,-0.8241025805473328
1,761893,27.1026611328125,-15.573186874389648,-10.917747497558594,11.624211311340332
1,761893,-12.992613792419434,15.211259841918945,17.24045181274414,2.9459288120269775
1,761893,-0.8144017457962036,-14.149404525756836,-8.421963691711426,-23.47301483154297
1,761893,7.79167366027832,-23.228078842163086,-21.56246566772461,12.592167854309082
1,761894,-15.091265678405762,32.992855072021484,-11.083476066589355,5.798632621765137
1,761894,-10.971203804016113,11.088278770446777,-0.44955527782440186,-14.886808395385742
1,761894,-1.8536219596862793,-27.536334991455078,20.721899032592773,10.407780647277832
1,761894,-9.329516410827637,0.987745463848114,10.429250717163086,-6.348012447357178
1,761894,-0.3939909040927887,14.395893096923828,-1.0543304681777954,-6.371584415435791
1,761895,3.5736162662506104,-10.538361549377441,12.382874488830566,14.511331558227539
1,761895,-7.803814888000488,-25.318153381347656,10.609280586242676,-1.1970802545547485
1,761895,1.5597708225250244,12.338680267333984,-17.02721405029297,-6.9959588050842285
1,761895,6.324924945831299,24.491779327392578,-5.434328079223633,18.157943725585938
1,761895,10.584242820739746,-1.1635324954986572,8.025946617126465,4.106706142425537
1,761895,7.704699516296387,3.738142490386963,-27.388002395629883,-7.186886787414551
1,761896,-14.858660697937012,-0.997090220451355,-11.367881774902344,16.57560157775879
1,761896,10.839372634887695,-5.696133136749268,23.669620513916016,-11.891190528869629
1,761896,24.768566131591797,-8.328048706054688,9.006072998046875,-9.784542083740234
1,761896,-14.56482982635498,1.047932744026184,-2.3133397102355957,27.640836715698242
1,761896,-4.058254241943359,23.550500869750977,12.218156814575195,-13.279572486877441
1,761896,15.931123733520508,-15.719391822814941,13.148256301879883,-12.704998016357422
1,761897,-3.6392664909362793,-15.11313533782959,-25.632450103759766,21.3610897064209
1,761897,-14.923945426940918,28.738632202148438,-19.50194549560547,4.442440032958984
1,761897,8.789488792419434,0.37525925040245056,36.36575698852539,-24.65255355834961
1,761897,10.089900970458984,-15.791420936584473,-0.20699138939380646,-23.511571884155273
1,761897,-19.16095733642578,10.759737014770508,-33.078182220458984,11.248133659362793
1,761897,-4.6281352043151855,3.1788039207458496,6.622125625610352,17.00507354736328
1,761898,1.4389146566390991,-8.016474723815918,8.984136581420898,-5.678750514984131
1,761898,-3.936086416244507,8.880674362182617,-3.719919443130493,-3.21086049079895
1,761898,16.603424072265625,2.778210163116455,-7.799398899078369,2.3924458026885986
1,761898,-10.764915466308594,-19.373809814453125,-10.524036407470703,-1.0572673082351685
1,761898,-28.273548126220703,-3.499007225036621,-12.372315406799316,7.401569366455078
1,761898,7.983508586883545,14.779828071594238,7.212033271789551,3.8445780277252197
1,761899,28.568906784057617,-1.3309381008148193,15.885729789733887,7.077727317810059
1,761899,15.38473129272461,-18.78274917602539,-34.338134765625,-9.011664390563965
1,761899,-22.56021499633789,-9.097487449645996,-16.3135986328125,-20.4637393951416
1,761899,-25.909080505371094,3.6092123985290527,32.29047775268555,18.790054321289062
1,761899,-0.05900739133358002,19.257076263427734,-1.0488070249557495,17.596460342407227
1,761899,22.45296859741211,14.879349708557129,-8.104449272155762,-16.369028091430664
1,761900,4.456867218017578,-16.82660675048828,-4.765559673309326,-7.906215667724609
1,762155,9.914502143859863,-28.04340934753418,-48.79093933105469,1.5809208154678345
1,762157,14.099708557128906,13.92124080657959,60.18242263793945,-11.705960273742676
1,762159,-45.547752380371094,21.10702896118164,126.50101470947266,-6.787810802459717
1,762161,-2.9712860584259033,-20.886232376098633,-104.892822265625,18.13593101501465
1,762163,38.664222717285156,3.440082550048828,-138.52798461914062,32.62678527832031
1,762165,-1.293878436088562,2.571018695831299,53.7696418762207,-32.52780532836914
1,762167,-4.7506914138793945,5.340972423553467,106.38534545898438,-35.72503662109375
1,763346,3.7669785022735596,7.7688164710998535,31.409337997436523,38.73263931274414
1,763346,-3.134516954421997,-15.733246803283691,-43.033931732177734,6.146423816680908
1,763346,1.0688284635543823,6.160159587860107,-12.579684257507324,1.6955963373184204
1,763347,-0.5630592107772827,3.19435977935791,11.698335647583008,5.520469665527344
1,763347,-5.705442428588867,-0.3111020624637604,-14.367523193359375,-18.56076431274414
1,763347,4.915919780731201,4.0570197105407715,-9.156292915344238,3.003446578979492
1,763347,-9.866156578063965,7.317942142486572,17.06271743774414,1.8991824388504028
1,763347,-12.784480094909668,-11.88855266571045,6.59485387802124,2.229822874069214
1,763347,12.922075271606445,-14.172470092773438,2.644522190093994,9.440916061401367
1,763348,27.429014205932617,29.045778274536133,-3.7375614643096924,-11.345125198364258
1,763348,6.42622709274292,-3.812113046646118,-41.92642593383789,-24.456844329833984
1,763348,-23.663103103637695,-28.421796798706055,3.8700027465820312,15.348320007324219
1,763348,-15.648484230041504,23.074735641479492,43.56941223144531,26.563947677612305
1,763348,-5.234156131744385,23.898788452148438,-23.06337547302246,-19.663084030151367
1,763348,5.072158336639404,-13.82502555847168,-23.57417106628418,-13.349523544311523
1,763349,7.537700176239014,-22.60373878479004,18.058488845825195,11.081609725952148
1,763349,-5.359838962554932,-0.8816704154014587,13.599884986877441,6.293987274169922
1,763349,0.7745916247367859,19.27237892150879,0.7638782262802124,1.9269973039627075
1,763349,6.730443000793457,-12.296613693237305,-21.454944610595703,-5.908905506134033
1,763349,-8.752601623535156,-23.172605514526367,-11.40828800201416,1.2132433652877808
1,763350,-18.311809539794922,4.6159586906433105,3.252929449081421,9.115279197692871
1,763350,4.744222640991211,-0.8781312704086304,5.795269012451172,1.0214709043502808
1,763350,2.993574619293213,15.881786346435547,26.18622589111328,4.9595627784729
1,763350,-6.4917497634887695,26.345762252807617,-0.6796157956123352,-3.4468648433685303
1,763350,18.595800399780273,-9.704736709594727,-38.15988540649414,-32.30656433105469
1,763350,1.8020894527435303,-3.4610724449157715,15.37598991394043,-4.426080703735352
1,763351,-2.214752197265625,3.9581637382507324,34.10148620605469,26.872024536132812
1,763351,9.645328521728516,-15.742015838623047,-11.457184791564941,-3.710787057876587
1,763351,-16.040199279785156,4.098077297210693,-14.900166511535645,-7.7190728187561035
1,763351,-3.1603541374206543,3.4129035472869873,8.669748306274414,13.199792861938477
1,763351,11.846698760986328,-12.950766563415527,27.31096649169922,2.433211088180542
1,763351,0.30177080631256104,19.409250259399414,-13.498393058776855,-4.42273473739624
1,763352,0.7082622647285461,-0.46739113330841064,-13.486780166625977,6.764492511749268
1,763352,0.777891218662262,-30.00377082824707,33.20514678955078,-1.0079585313796997
1,763352,4.178346157073975,9.3867826461792,-9.5008544921875,-16.113414764404297
1,763352,7.32286262512207,11.91299819946289,-21.96059799194336,-2.236590623855591
1,763352,-5.865379333496094,6.486497402191162,22.304645538330078,25.48293113708496
1,763352,-10.435708999633789,-2.1518595218658447,-4.465127468109131,-0.22867003083229065
1,763353,-1.0806044340133667,-14.520963668823242,-15.040295600891113,-18.558513641357422
1,763353,1.198077917098999,19.69253921508789,22.303247451782227,13.5419282913208
1,763353,7.411675930023193,7.142948150634766,-3.164860486984253,-10.011775970458984
1,763353,5.995416641235352,-20.872398376464844,-27.70644187927246,-14.41469955444336
1,763353,-15.227337837219238,-12.284799575805664,-9.71049976348877,17.851516723632812
1,763353,-5.088479995727539,-1.64691960811615,15.308067321777344,-17.729516983032227
1,763354,17.187585830688477,11.361954689025879,5.794653415679932,9.727293014526367
1,763354,-11.106610298156738,-2.173037528991699,-1.8014047145843506,34.09505081176758
1,763354,-4.954489231109619,-3.0607120990753174,11.705592155456543,-16.295181274414062
1,763354,22.182003021240234,4.431484699249268,5.865780353546143,-17.583101272583008
1,763354,-3.247582197189331,-5.727786064147949,-9.114389419555664,-4.717617988586426
1,763354,-13.142136573791504,4.7661848068237305,-9.604296684265137,-1.9714558124542236
1,763355,7.455853462219238,6.215504169464111,22.247920989990234,-11.527774810791016
1,763355,8.079995155334473,11.45499038696289,4.002235412597656,24.715309143066406
1,763355,-12.98122501373291,6.766066551208496,-17.09126091003418,23.29958152770996
1,763355,-5.995512008666992,-12.789450645446777,-2.753822088241577,-39.27348709106445
1,763356,11.445793151855469,4.032487869262695,5.771031856536865,2.229642391204834
1,763357,9.683846473693848,-11.197592735290527,20.578584671020508,28.827537536621094
1,763357,-6.18333625793457,-10.223325729370117,8.476069450378418,-16.292564392089844
1,763357,-8.829376220703125,29.371612548828125,-11.171874046325684,-20.021398544311523
1,763357,18.762876510620117,-1.2453023195266724,-22.981874465942383,11.250508308410645
1,763357,-2.529165029525757,-10.321196556091309,-4.173684597015381,25.147008895874023
1,763359,-36.26835632324219,-2.9036736488342285,12.879239082336426,-5.943788528442383
1,763361,9.562779426574707,-16.090045928955078,-53.40400314331055,-3.307331085205078
1,763363,41.238037109375,11.410553932189941,-60.41607666015625,13.744600296020508
1,763365,-10.745494842529297,0.22318756580352783,20.514001846313477,-16.000093460083008
1,763367,0.49689650535583496,-3.754140615463257,61.952171325683594,-2.580723524093628
1,763369,4.529480934143066,-2.766268253326416,15.43935489654541,-23.34646987915039
1,763371,-83.12141418457031,-14.75769329071045,-72.24652099609375,-48.84714126586914
1,763373,-4.071905136108398,17.460113525390625,-42.60201644897461,73.26654052734375
1,763375,83.3045883178711,11.02639102935791,42.27241516113281,46.46202087402344
1,763377,8.340651512145996,-2.6341073513031006,127.88256072998047,-62.67428207397461
1,763379,-14.889222145080566,5.773404598236084,93.23223876953125,-3.154085397720337
1,763381,-35.42076110839844,10.00890827178955,-117.57572174072266,12.28233528137207
1,763383,28.899320602416992,1.074100375175476,-140.25990295410156,15.650854110717773
1,763385,49.366172790527344,-26.652257919311523,61.850257873535156,-17.264230728149414
1,763387,-85.37970733642578,-15.842533111572266,115.86917877197266,-30.27067756652832
1,763389,-1.0183658599853516,22.407649993896484,-29.14512062072754,52.865570068359375
1,763391,40.622039794921875,-3.157438039779663,-79.6089096069336,30.49028205871582
1,763393,-12.900666236877441,-17.40538787841797,3.471123695373535,-11.80549430847168
1,763395,39.328590393066406,25.181739807128906,50.09495544433594,-1.3949023485183716
1,763398,-14.411009788513184,13.54959774017334,2.359891891479492,-35.466304779052734
1,763518,-28.30388641357422,-12.61181354522705,-36.57602310180664,-14.398307800292969
1,763518,27.879016876220703,1.2187376022338867,11.321916580200195,54.07536697387695
1,763518,-4.717132568359375,9.236027717590332,38.316837310791016,-1.7826743125915527
1,763518,-17.578617095947266,4.732765197753906,2.7932024002075195,-31.001882553100586
1,763518,22.30413055419922,24.912822723388672,-11.938718795776367,-7.49327278137207
1,763519,23.472196578979492,-9.088948249816895,-5.330433368682861,-13.748671531677246
1,763519,-11.101658821105957,-41.170188903808594,-5.842274188995361,4.2764997482299805
1,763519,-14.288156509399414,6.605953216552734,-2.674481153488159,11.57981014251709
1,763519,-11.77916431427002,7.298398017883301,-0.9760152101516724,13.743186950683594
1,763519,-20.213211059570312,-11.8944673538208,-15.623403549194336,-2.7374582290649414
1,763520,8.152607917785645,-7.3376946449279785,-27.90913200378418,-23.230480194091797
1,763520,15.326071739196777,-12.591119766235352,7.818172454833984,0.48016104102134705
1,763520,-20.76472282409668,5.045129776000977,34.50485610961914,17.478036880493164
1,763520,-23.320409774780273,11.305547714233398,-3.217616558074951,-1.656847596168518
1,763520,14.01630687713623,-7.69420862197876,-13.420247077941895,0.7301045060157776
1,763520,23.1556453704834,-0.6079365611076355,12.2911958694458,-4.984471321105957
1,763521,-10.611186981201172,2.9581964015960693,-18.976531982421875,-24.270793914794922
1,763521,-20.975814819335938,-0.3504776358604431,-20.195627212524414,2.08272647857666
1,763521,7.627763271331787,-6.722174167633057,32.469451904296875,1.1895068883895874
1,763521,21.2712345123291,15.45793342590332,6.571331024169922,-16.759445190429688
1,763521,-7.805200576782227,7.999882221221924,-17.400251388549805,14.519283294677734
1,763521,-3.954383611679077,-30.60996437072754,20.503761291503906,11.295680046081543
1,763522,23.317533493041992,7.733338832855225,1.7127809524536133,-11.476036071777344
1,763522,-18.664348602294922,16.494245529174805,-12.352474212646484,3.953308582305908
1,763522,-12.06865119934082,7.878165245056152,18.998992919921875,9.170692443847656
1,763522,16.176626205444336,29.808305740356445,11.164345741271973,4.965435981750488
1,763522,-7.357500076293945,-1.8543550968170166,-10.076351165771484,-2.700343370437622
1,763522,4.557957172393799,-31.588130950927734,-25.168500900268555,-2.683131456375122
1,763523,2.814490795135498,-5.4816179275512695,-13.860194206237793,16.29914093017578
1,763523,2.473045825958252,17.357921600341797,25.331281661987305,-7.917024612426758
1,763523,13.436579704284668,-0.3132025897502899,8.044210433959961,-25.01297378540039
1,763523,-0.7354061007499695,-19.23711395263672,-12.183894157409668,5.781235218048096
1,763523,-1.6140198707580566,-7.916345119476318,-1.1142429113388062,7.588543891906738
1,763524,5.582180976867676,9.952469825744629,-8.803516387939453,0.41910320520401
1,763524,3.0193262100219727,8.053400993347168,10.830483436584473,5.012161731719971
1,763524,2.219710111618042,-5.136006832122803,14.927797317504883,10.748538970947266
1,763524,2.441819906234741,-11.015737533569336,-18.233774185180664,4.034657001495361
1,763524,-6.616451740264893,3.610879421234131,2.4475443363189697,-5.578293323516846
1,763524,-20.646154403686523,29.24913215637207,20.62851905822754,10.536222457885742
1,763525,-16.042543411254883,2.052882671356201,-33.10445785522461,6.558579921722412
1,763525,-0.7588890194892883,-20.850786209106445,-4.493310451507568,-6.476306438446045
1,763525,1.3643637895584106,7.980696201324463,39.61943054199219,-13.662348747253418
1,763525,-3.587411642074585,-8.96117115020752,-18.19608497619629,-10.457283973693848
1,763525,-2.5398871898651123,-12.045022964477539,-5.554520130157471,29.01963996887207
1,763525,2.956824541091919,17.65013885498047,21.3194580078125,23.04911994934082
1,763526,6.81190299987793,-10.057856559753418,-4.733415126800537,-9.957165718078613
1,763526,12.230412483215332,0.8256166577339172,-13.16350269317627,-16.34736442565918
1,763526,-1.2167472839355469,1.9126880168914795,-2.4627037048339844,-20.639629364013672
1,763526,4.096692085266113,-17.61907958984375,15.679675102233887,5.552979469299316
1,763526,4.78454065322876,9.249360084533691,-11.408751487731934,10.690801620483398
1,763526,-26.705629348754883,-25.885963439941406,-2.217315912246704,-13.984283447265625
1,763527,4.717001914978027,-4.386728286743164,1.7139580249786377,-13.662534713745117
1,763527,15.75074577331543,38.14999771118164,-6.575522422790527,12.421327590942383
1,763527,-18.60720443725586,-8.171716690063477,19.455699920654297,14.574241638183594
1,763527,5.703209400177002,-17.57258415222168,-4.419129371643066,-13.913727760314941
1,763527,20.241092681884766,-4.918424129486084,-14.432648658752441,-4.066752910614014
1,763527,-10.781132698059082,7.000906944274902,-5.8039445877075195,15.084476470947266
1,763528,-20.744182586669922,24.693681716918945,8.151748657226562,-1.9486057758331299
1,763528,14.313592910766602,26.23224449157715,0.3611058294773102,-4.3576579093933105
1,763528,19.375030517578125,8.015063285827637,-2.379183530807495,10.780350685119629
1,763529,-17.884056091308594,-12.229592323303223,17.3696231842041,-5.927909851074219
1,763529,-20.81409454345703,-14.253774642944336,-8.03469181060791,3.3195667266845703
1,763530,2.171811103820801,11.184101104736328,-10.055351257324219,7.713870048522949
1,763530,8.43759536743164,7.473696231842041,0.06280218809843063,-12.575944900512695
1,763530,14.9105806350708,-28.505882263183594,-8.618036270141602,-6.746580600738525
1,763530,-0.028826704248785973,-2.6860427856445312,3.298409938812256,8.25943374633789
1,763531,-17.998477935791016,32.75438690185547,17.391738891601562,23.07819366455078
1,763533,2.2980217933654785,13.083932876586914,7.855868816375732,-8.98369026184082
1,763535,37.24546813964844,-26.558277130126953,-10.089703559875488,-33.386226654052734
1,763537,25.052534103393555,-20.306163787841797,-15.618581771850586,7.349853038787842
1,763539,-15.434392929077148,25.286239624023438,21.959484100341797,-18.6855525970459
1,763541,-15.673500061035156,-4.8181986808776855,67.47817993164062,-6.642475605010986
1,763543,-31.102338790893555,-33.92230224609375,3.540837526321411,60.76053237915039
1,763545,-10.411763191223145,18.516530990600586,-73.68695068359375,-27.259742736816406
1,763548,106.5239486694336,-0.20215673744678497,-80.7357177734375,-2.6849982738494873
1,763549,40.14963150024414,-20.810344696044922,-10.882646560668945,11.146483421325684
1,763552,-141.5938262939453,10.10822582244873,80.68753814697266,-52.16741943359375
1,763553,-29.07818603515625,25.083223342895508,37.595306396484375,74.32306671142578
1,763556,61.232791900634766,-6.345192909240723,-39.13840866088867,13.564824104309082
1,763557,-2.8229191303253174,-63.5183219909668,-19.623689651489258,-81.5490951538086
1,763560,12.540453910827637,0.8031103610992432,19.51829719543457,29.993072509765625
1,763561,-2.1736562252044678,71.1631088256836,-1.2027511596679688,39.58251953125
1,763564,-35.11519241333008,27.380556106567383,8.947062492370605,-13.033073425292969
1,763565,-35.853458404541016,-10.128329277038574,5.088698387145996,-31.855323791503906
1,763568,28.536563873291016,-11.277190208435059,-13.626052856445312,-22.87179946899414
1,763569,72.19966125488281,5.874075889587402,14.39352035522461,1.1643489599227905
1,763700,-10.278202056884766,-17.670745849609375,-73.7136459350586,5.63582706451416
1,763700,-36.909706115722656,-66.57244110107422,-49.47431182861328,23.402257919311523
1,763700,10.539164543151855,-1.6916677951812744,78.52496337890625,29.773147583007812
1,763700,24.050630569458008,39.70156478881836,-4.680308818817139,-7.75781774520874
1,763701,2.5696446895599365,-10.406957626342773,-18.813982009887695,-2.1159114837646484
1,763701,-16.849346160888672,15.455968856811523,56.691925048828125,19.91279411315918
1,763701,15.344950675964355,16.572525024414062,-4.801212310791016,-20.78839683532715
1,763701,-0.2774580717086792,-48.51481246948242,-14.8580961227417,-0.5259575843811035
1,763701,-33.99439239501953,-0.0860099345445633,44.82513427734375,23.952993392944336
1,763701,3.726389169692993,44.27797317504883,33.08131790161133,-7.995061874389648
1,763702,3.2333359718322754,-2.5455992221832275,-0.16669149696826935,-3.910043239593506
1,763702,-12.45762825012207,-6.520687103271484,-1.1677014827728271,-2.089515447616577
1,763702,6.757553577423096,0.6137049794197083,5.780733585357666,-16.940555572509766
1,763702,-4.69285774230957,14.808268547058105,-14.992722511291504,-21.22482681274414
1,763702,-19.391176223754883,5.759338855743408,-21.112567901611328,15.001266479492188
1,763702,15.426493644714355,-6.777806758880615,-3.8968796730041504,8.33936882019043
1,763703,28.508798599243164,29.93817901611328,-14.94676399230957,-44.169734954833984
1,763703,-22.540815353393555,-13.935248374938965,4.398255825042725,11.2012939453125
1,763703,-15.145090103149414,-15.532037734985352,20.94782829284668,22.677608489990234
1,763703,22.223098754882812,29.338903427124023,3.3239994049072266,-18.476991653442383
1,763703,-17.168272018432617,-11.513692855834961,11.046545028686523,10.561602592468262
1,763703,-20.232101440429688,-3.4468343257904053,-0.6259430646896362,-6.961459636688232
1,763704,29.717958450317383,16.512062072753906,-12.119980812072754,-6.672355651855469
1,763704,8.457839012145996,2.314656972885132,-11.494115829467773,19.068828582763672
1,763704,-36.914649963378906,-4.820495128631592,-15.211848258972168,3.11445951461792
1,763704,-7.703348636627197,-12.065346717834473,-28.841325759887695,-11.162961959838867
1,763704,28.403371810913086,-4.786154747009277,-8.935251235961914,-3.977149248123169
1,763705,-4.6090407371521,7.96495246887207,46.359920501708984,20.101789474487305
1,763705,-14.483559608459473,4.558617115020752,10.945460319519043,19.683338165283203
1,763705,19.60816192626953,-20.790231704711914,-29.782533645629883,-13.442997932434082
1,763705,9.351346015930176,-7.768468856811523,-14.763683319091797,-12.964981079101562
1,763705,-16.35906410217285,13.361567497253418,14.676819801330566,20.45319938659668
1,763705,-1.8013232946395874,-21.35390281677246,23.24034309387207,-9.40343189239502
1,763706,12.443055152893066,-1.711719036102295,-16.602096557617188,-18.859434127807617
1,763706,1.87578284740448,20.50397300720215,-4.516722679138184,26.824052810668945
1,763706,5.005127906799316,-24.739208221435547,14.504525184631348,-7.0167741775512695
1,763706,7.805671691894531,-17.58088493347168,-4.474365234375,-22.50642967224121
1,763706,-6.761398792266846,17.358535766601562,3.1266560554504395,7.178229331970215
1,763706,-3.861055612564087,14.315853118896484,16.28485679626465,-4.552506923675537
1,763707,-2.7307236194610596,-5.833133697509766,-18.318910598754883,2.176462411880493
1,763707,-18.23869514465332,-1.460347294807434,-29.25663185119629,8.698427200317383
1,763707,-9.767251014709473,8.171353340148926,24.538644790649414,-6.142538070678711
1,763707,4.288787364959717,1.4673762321472168,12.01640510559082,0.7682002186775208
1,763707,21.126237869262695,4.752157688140869,-54.544830322265625,6.74033260345459
1,763707,10.117425918579102,-2.3783371448516846,-13.78327751159668,-4.626524925231934
1,763708,-29.736759185791016,-17.106586456298828,36.14445877075195,7.847488880157471
1,763708,-2.6127941608428955,-11.888667106628418,-17.18610954284668,-12.174736976623535
1,763708,26.084228515625,-23.118165969848633,-32.5482177734375,-18.294462203979492
1,763708,-2.406451940536499,-0.2587432265281677,18.718074798583984,30.962993621826172
1,763708,-6.047499179840088,20.962799072265625,28.338886260986328,7.613551616668701
1,763708,10.824872016906738,-0.7204668521881104,-4.87128210067749,-16.060108184814453
1,763709,13.59369945526123,20.27571678161621,7.4915452003479,1.1784160137176514
1,763709,21.635845184326172,3.54111647605896,15.109142303466797,-20.364145278930664
1,763709,-2.2076172828674316,-16.20560073852539,-16.817184448242188,-2.281449794769287
1,763709,-23.35802459716797,14.471979141235352,-13.462963104248047,28.78448486328125
1,763709,9.922225952148438,9.327774047851562,24.897293090820312,-5.525734901428223
1,763709,14.592812538146973,-14.892584800720215,27.71617889404297,-5.043996334075928
1,763710,-14.390036582946777,2.1987245082855225,9.259556770324707,34.633094787597656
1,763710,10.85261344909668,35.718624114990234,-8.201090812683105,4.071178436279297
1,763710,34.41511535644531,-7.244097709655762,-21.295692443847656,-30.413999557495117
1,763710,-19.522871017456055,-26.4905948638916,10.31417465209961,-2.7792980670928955
1,763710,-38.455081939697266,29.74675178527832,23.66090202331543,0.44967228174209595
1,763710,10.30838680267334,30.71809196472168,-4.054355621337891,12.922805786132812
1,763711,11.920307159423828,-30.938926696777344,-24.193260192871094,20.738130569458008
1,763711,-16.873050689697266,-30.924514770507812,15.596531867980957,-25.745649337768555
1,763712,-18.219541549682617,14.461258888244629,13.388140678405762,-15.149630546569824
1,763712,-10.50995922088623,3.4822921752929688,-38.09740447998047,11.708312034606934
1,763712,-6.278353691101074,-5.634077072143555,10.090085983276367,-10.899540901184082
1,763713,2.5962250232696533,-10.871654510498047,2.4668242931365967,-13.91483211517334
1,763713,7.254894256591797,3.992203712463379,-33.85924530029297,-13.982751846313477
1,763713,-8.085821151733398,5.87598991394043,19.459735870361328,23.244953155517578
1,763714,-1.1507303714752197,-10.376555442810059,14.5376558303833,28.5978946685791
1,763716,38.74537658691406,24.984413146972656,-17.16957664489746,-33.39672088623047
1,763717,25.43871307373047,-4.176405906677246,-20.942092895507812,-32.662715911865234
1,763720,-35.887290954589844,-35.65709686279297,-7.460165023803711,23.644643783569336
1,763721,-9.218141555786133,10.38101577758789,28.132122039794922,46.828792572021484
1,763724,23.269512176513672,-1.747341275215149,13.691976547241211,9.703486442565918
1,763725,-27.107229232788086,2.394157886505127,-12.286293029785156,-8.318694114685059
1,763728,-20.884309768676758,49.583465576171875,11.566088676452637,-32.61410140991211
1,763729,7.16568660736084,18.757173538208008,22.888416290283203,-4.082684516906738
1,763732,7.452442646026611,-47.902488708496094,-26.60358428955078,15.64035415649414
1,763733,28.098751068115234,-22.3909969329834,2.6289896965026855,-3.1274662017822266
1,763736,-3.178764820098877,-27.88004493713379,-9.228850364685059,7.586705684661865
1,763737,-23.53655242919922,-21.5147647857666,-64.31525421142578,4.248233795166016
1,763863,9.25835132598877,90.92249298095703,60.233245849609375,16.073129653930664
1,763864,-4.080482482910156,22.209394454956055,60.152992248535156,-30.97364616394043
1,763864,11.071730613708496,-30.427589416503906,-36.246402740478516,-32.175636291503906
1,763864,23.686208724975586,1.71993088722229,-15.828245162963867,20.111745834350586
1,763864,-17.31794548034668,-25.869400024414062,-6.098740100860596,19.375598907470703
1,763864,-9.296576499938965,8.025894165039062,-0.4453393816947937,-12.949248313903809
1,763864,3.847874164581299,6.054790496826172,15.921180725097656,-6.236062526702881
1,763865,-11.73261547088623,-27.370758056640625,-3.0611467361450195,28.043039321899414
1,763865,-4.62733268737793,21.204240798950195,-0.48241645097732544,1.6381584405899048
1,763865,11.004098892211914,29.99039077758789,16.952817916870117,-16.672931671142578
1,763865,-0.27445247769355774,-30.581174850463867,-0.9586775302886963,15.29874038696289
1,763865,-13.178781509399414,-6.728238105773926,-11.65636157989502,18.648679733276367
1,763865,14.23498821258545,23.407011032104492,-4.685179233551025,-20.219654083251953
1,763866,30.16140365600586,-5.698300838470459,-2.6984176635742188,-12.474777221679688
1,763866,-14.748682975769043,-16.98653793334961,-9.057769775390625,32.404052734375
1,763866,-18.746850967407227,4.830121994018555,7.61289119720459,-1.9742577075958252
1,763866,15.147601127624512,-1.1082007884979248,0.7716073989868164,-43.716854095458984
1,763866,2.956881523132324,-14.269582748413086,-7.530540466308594,9.228446006774902
1,763866,-22.52537727355957,-0.9593908786773682,3.787487506866455,20.923160552978516
1,763867,-31.668973922729492,2.1137468814849854,5.790863990783691,-14.01573371887207
1,763867,3.0112056732177734,9.72048568725586,7.3138909339904785,-20.983362197875977
1,763867,24.012582778930664,-21.63298988342285,-21.428531646728516,3.9815478324890137
1,763867,13.77849006652832,-28.012874603271484,-16.078636169433594,17.558095932006836
1,763867,-4.75543212890625,24.03171157836914,11.623074531555176,-19.97488784790039
1,763867,-12.279115676879883,9.595261573791504,16.149900436401367,-7.477529048919678
1,763868,14.8629732131958,-10.9251070022583,7.6953301429748535,25.195085525512695
1,763868,9.049748420715332,14.198938369750977,-3.888392210006714,3.531806468963623
1,763868,-3.9877779483795166,9.473369598388672,-9.296701431274414,-19.87145233154297
1,763868,6.058225631713867,-8.799633026123047,-7.688492298126221,-18.15448760986328
1,763868,-5.462701797485352,-20.038148880004883,14.94852352142334,18.956787109375
1,763869,-8.757152557373047,3.692530632019043,14.542802810668945,22.622278213500977
1,763869,15.231925964355469,31.519075393676758,-9.008378028869629,-8.7859468460083
1,763869,7.292596340179443,-0.404360830783844,-26.598453521728516,4.36937141418457
1,763869,-19.088605880737305,-18.433202743530273,-0.1551726907491684,15.064580917358398
1,763869,-12.988429069519043,23.65006446838379,35.42119216918945,7.9339118003845215
1,763869,11.634905815124512,29.816404342651367,-4.104872703552246,-2.645740032196045
1,763870,-2.204339027404785,-20.95656967163086,-17.968454360961914,-12.003816604614258
1,763870,-8.085142135620117,-18.41048812866211,-4.875901222229004,4.241922378540039
1,763870,11.224658966064453,11.487096786499023,-2.7943778038024902,9.39182186126709
1,763870,-5.691047668457031,18.826583862304688,19.634347915649414,-7.776760101318359
1,763870,-8.168879508972168,4.075340270996094,1.552945852279663,-7.359131813049316
1,763870,12.567262649536133,-28.418663024902344,-17.064130783081055,-0.20143485069274902
1,763871,15.527718544006348,-19.595178604125977,0.9014601111412048,4.674450874328613
1,763871,-2.8048911094665527,-1.623363971710205,0.4201512932777405,13.225054740905762
1,763871,-11.751060485839844,5.898951530456543,2.2264246940612793,-0.79397052526474
1,763871,3.996042251586914,26.832748413085938,21.251710891723633,-14.887600898742676
1,763871,12.983073234558105,1.0286064147949219,1.280181884765625,-7.5406293869018555
1,763871,8.007781982421875,-24.18165397644043,-11.77231502532959,1.2406530380249023
1,763872,8.943450927734375,14.390381813049316,-7.293660640716553,2.719935417175293
1,763872,-2.641003131866455,27.064546585083008,5.45460844039917,5.213749885559082
1,763872,-6.622223377227783,-14.520591735839844,12.788063049316406,-27.578697204589844
1,763872,1.4826573133468628,-14.355039596557617,-18.096284866333008,-14.354358673095703
1,763872,-14.968465805053711,21.690156936645508,-2.7795422077178955,32.5191535949707
1,763872,-16.030269622802734,-3.026014566421509,4.606492042541504,-15.244833946228027
1,763873,11.948806762695312,-30.160215377807617,-12.590619087219238,-19.583038330078125
1,763873,-3.7917044162750244,3.824780225753784,-14.04450798034668,5.14785623550415
1,763873,-29.065364837646484,7.100662708282471,5.4890522956848145,-0.5973899364471436
1,763873,7.894071578979492,-25.76217269897461,30.42361068725586,15.393088340759277
1,763873,10.876697540283203,-4.078241348266602,-14.080184936523438,16.531923294067383
1,763873,-14.874197006225586,34.27231979370117,-2.8600032329559326,0.2131710648536682
1,763874,13.706405639648438,-0.9926378130912781,19.967552185058594,-16.907499313354492
1,763874,20.335962295532227,-20.69679832458496,-27.815414428710938,-7.723985195159912
1,763874,0.4270956814289093,23.602052688598633,-14.41380500793457,10.891263008117676
1,763875,-9.288703918457031,12.790689468383789,31.25244903564453,11.59057331085205
1,763875,-17.277973175048828,-10.990801811218262,13.170743942260742,-0.9234749674797058
1,763876,19.496620178222656,2.3863301277160645,-22.31411361694336,-0.8881414532661438
1,763876,18.006298065185547,-14.221863746643066,2.233919143676758,14.38523006439209
1,763876,-19.63913917541504,-5.411763668060303,25.682689666748047,-0.5276917815208435
1,763876,-12.083755493164062,20.174833297729492,-2.8148701190948486,-21.82509994506836
1,763877,-1.853888988494873,-9.617086410522461,-26.362226486206055,-20.57931137084961
1,763879,-3.7775137424468994,-6.570343017578125,10.297316551208496,-10.62053108215332
1,763881,-0.8610073924064636,8.433778762817383,48.279476165771484,36.34281921386719
1,763883,21.776126861572266,-6.3136725425720215,-15.263642311096191,33.09659957885742
1,763885,11.12960433959961,-2.2414348125457764,-51.079917907714844,-22.583261489868164
1,763887,-10.552556991577148,-2.1583802700042725,-2.417998790740967,-13.281997680664062
1,763889,3.8016886711120605,4.39017391204834,-4.627524375915527,-11.758787155151367
1,763891,-6.432237148284912,15.904444694519043,28.9129695892334,8.403716087341309
1,763893,-8.82175064086914,-9.699228286743164,67.20347595214844,19.8116455078125
1,763895,-5.533008098602295,-15.64507007598877,-13.330667495727539,-17.367937088012695
1,763898,-2.3624138832092285,11.30066204071045,-94.58992767333984,9.845335006713867
1,763899,34.65535354614258,10.406139373779297,-48.61929702758789,6.8025617599487305
1,763902,2.813535690307617,-28.72854995727539,60.53784942626953,10.804741859436035
1,763903,-23.499786376953125,-15.701828002929688,49.4306526184082,6.109178066253662
1,763906,-0.19742372632026672,42.278953552246094,-10.690598487854004,-48.60124206542969
1,763907,-0.7439648509025574,5.818151473999023,3.887296438217163,19.332685470581055
1,763910,-11.714899063110352,-25.07724380493164,-24.971254348754883,15.341544151306152
1,763911,-21.249074935913086,-18.364591598510742,-48.39662551879883,-57.837669372558594
1,764041,6.808892250061035,10.45560073852539,34.88302230834961,32.84837341308594
1,764041,19.570396423339844,37.09452819824219,37.93431854248047,44.31094741821289
1,764041,9.469799041748047,-16.42929458618164,-36.989253997802734,-50.30897903442383
1,764042,-15.48414421081543,-22.138416290283203,6.939505577087402,-17.864444732666016
1,764042,-17.503549575805664,13.174886703491211,39.240234375,30.360387802124023
1,764042,16.716938018798828,14.80410099029541,-10.943269729614258,2.7081241607666016
1,764042,14.678650856018066,1.9263501167297363,-10.804862976074219,-23.134511947631836
1,764042,7.390225887298584,-23.610855102539062,11.00110149383545,18.4705810546875
1,764043,-1.781201958656311,-1.9279723167419434,-3.2436673641204834,39.099178314208984
1,764043,-5.143661022186279,9.465727806091309,-20.586074829101562,-12.788715362548828
1,764043,13.023137092590332,9.082200050354004,0.855098307132721,-23.91408920288086
1,764043,14.683883666992188,13.403536796569824,10.451688766479492,3.0302703380584717
1,764043,-12.508881568908691,-30.27397346496582,-3.6417171955108643,12.370443344116211
1,764043,-27.263338088989258,6.795835971832275,4.769099712371826,11.328089714050293
1,764044,2.3287460803985596,33.160247802734375,-3.742392063140869,9.046475410461426
1,764044,13.877423286437988,-16.418880462646484,-12.184897422790527,-21.097900390625
1,764044,-2.104930877685547,-8.999838829040527,7.034308910369873,-28.787992477416992
1,764044,11.347722053527832,2.603621482849121,-3.7980597019195557,3.5759050846099854
1,764044,5.199268817901611,-8.132404327392578,-3.866516590118408,10.868046760559082
1,764044,-24.40056610107422,8.470755577087402,20.90747833251953,-1.4448153972625732
1,764045,3.7259602546691895,19.640838623046875,-1.5375900268554688,2.0431835651397705
1,764045,9.13901138305664,-16.028892517089844,-15.670639038085938,4.683533191680908
1,764045,-15.81057071685791,-20.811586380004883,-0.20465023815631866,-6.198822498321533
1,764045,0.25639262795448303,8.211366653442383,17.577701568603516,-8.289274215698242
1,764045,16.184022903442383,13.364465713500977,3.5275938510894775,-5.014387130737305
1,764045,-4.537591457366943,1.3211125135421753,-15.977274894714355,14.819063186645508
1,764046,-26.29265785217285,-32.35920715332031,6.677121639251709,10.85374927520752
1,764046,12.182018280029297,-4.883513927459717,-8.228170394897461,-16.636844635009766
1,764046,13.940400123596191,38.50076675415039,-9.453191757202148,4.105154991149902
1,764046,-12.617169380187988,-9.191123008728027,-2.539944648742676,2.3434219360351562
1,764046,9.768685340881348,-24.544082641601562,-1.1991820335388184,-8.5697603225708
1,764046,5.973092555999756,19.39249038696289,24.650497436523438,15.443623542785645
1,764047,0.4240899085998535,16.115108489990234,4.705228328704834,0.30548667907714844
1,764047,4.292912483215332,-16.506486892700195,-6.941295623779297,2.532089948654175
1,764047,-7.197196006774902,-2.0256271362304688,2.029707670211792,0.9111104011535645
1,764047,7.027161121368408,16.11745262145996,-6.616137981414795,-29.20954132080078
1,764047,-6.96804141998291,-21.484909057617188,2.209226369857788,8.134350776672363
1,764048,-12.60528564453125,-1.5145901441574097,0.3641928434371948,12.089000701904297
1,764048,14.771687507629395,25.974613189697266,-7.992870807647705,-6.533356189727783
1,764048,-5.113137722015381,-16.551950454711914,24.380056381225586,10.065841674804688
1,764048,-17.395036697387695,-2.2378382682800293,8.318251609802246,-7.446229934692383
1,764048,1.0760953426361084,22.26139259338379,-21.993873596191406,-6.983485221862793
1,764048,6.636434078216553,-15.928967475891113,-2.8289554119110107,9.734002113342285
1,764049,3.5683164596557617,-12.05398941040039,-11.154443740844727,15.833805084228516
1,764049,0.4949040114879608,14.64042854309082,-6.087710857391357,14.920119285583496
1,764049,-3.9877450466156006,20.270355224609375,15.97293758392334,1.1919344663619995
1,764049,13.557065963745117,5.712414264678955,-5.811844348907471,-26.269075393676758
1,764049,13.228625297546387,-31.295166015625,-7.7177839279174805,-19.994094848632812
1,764049,-13.386469841003418,-18.700702667236328,5.753442764282227,35.669193267822266
1,764050,-17.50242805480957,19.09147834777832,-9.053869247436523,8.702962875366211
1,764050,1.6690386533737183,1.5021508932113647,0.3121681213378906,-28.82558822631836
1,764050,17.615751266479492,-12.870736122131348,12.999449729919434,19.227506637573242
1,764050,4.392733097076416,2.0862133502960205,1.1788558959960938,6.146008491516113
1,764050,-2.1878719329833984,0.3848229944705963,-1.6538821458816528,-26.76140022277832
1,764050,-5.852058410644531,20.606557846069336,-10.03812313079834,6.480916500091553
1,764051,-12.83842945098877,-2.4261651039123535,2.8623499870300293,14.242782592773438
1,764051,18.168720245361328,-23.786409378051758,25.485721588134766,-6.825071811676025
1,764051,11.446553230285645,8.713038444519043,-11.62445068359375,-11.04531192779541
1,764051,-20.05437469482422,9.97703742980957,-26.032215118408203,-0.33206719160079956
1,764051,2.0259833335876465,3.9470667839050293,18.664941787719727,3.5236988067626953
1,764051,9.673821449279785,7.359289169311523,25.768726348876953,-9.81262493133545
1,764052,-9.548131942749023,10.422409057617188,-29.9539852142334,-12.85330581665039
1,764052,-11.184887886047363,-15.736725807189941,-15.67565631866455,12.223641395568848
1,764052,4.6231889724731445,-26.992515563964844,31.7257022857666,-0.008711520582437515
1,764052,4.478919506072998,11.822813034057617,-15.801876068115234,-30.68231773376465
1,764053,-8.228044509887695,6.164148330688477,-18.533540725708008,10.384106636047363
1,764054,-14.9949369430542,-8.314691543579102,36.7969970703125,26.566864013671875
1,764054,10.58054256439209,14.637690544128418,7.995957374572754,8.719196319580078
1,764054,19.898441314697266,10.56844711303711,-19.347675323486328,2.302426815032959
1,764054,-5.643440246582031,-15.712599754333496,6.954860687255859,-13.997794151306152
1,764054,0.4082837998867035,-14.999319076538086,-2.9248759746551514,-15.510638236999512
1,764056,-5.665322780609131,21.93069839477539,13.738402366638184,-2.8249123096466064
1,764057,-6.722767353057861,20.730724334716797,6.4200944900512695,18.05224609375
1,764060,9.717734336853027,-34.258426666259766,-30.33330535888672,30.19957733154297
1,764061,-4.885036468505859,-13.429201126098633,50.49394226074219,11.769607543945312
1,764064,-20.99323081970215,27.05218505859375,79.01689910888672,-37.45123291015625
1,764065,-9.487826347351074,-2.4584970474243164,-54.844757080078125,-24.742650985717773
1,764068,93.25726318359375,6.670934677124023,-161.7247314453125,25.197154998779297
1,764069,50.596858978271484,-2.6781463623046875,-53.62718963623047,9.059318542480469
1,764072,-130.8831787109375,-31.50713539123535,131.0640869140625,-29.260223388671875
1,764073,-36.2574348449707,3.7590863704681396,69.59835815429688,17.825098037719727
1,764076,62.33453369140625,9.112861633300781,-62.10394287109375,37.02143478393555
1,764077,3.9098453521728516,11.031892776489258,-8.423575401306152,-45.591835021972656
1,764080,-10.215636253356934,-0.18287305533885956,17.0113582611084,-17.900659561157227
1,764081,0.951862633228302,-36.16570281982422,-35.54554748535156,27.260175704956055
1,764082,2.727367401123047,17.684951782226562,1.354790210723877,0.10282952338457108
1,764085,-13.95589542388916,30.52277374267578,56.919559478759766,-3.583874225616455
1,764086,16.116275787353516,-11.357193946838379,12.997915267944336,14.8530912399292
1,764089,-6.583984851837158,1.747022271156311,-39.65751647949219,5.236337184906006
1,764090,-35.19398498535156,1.065271019935608,-27.233139038085938,-36.07644271850586
1,764093,37.740116119384766,0.0639103576540947,41.06503677368164,5.186425685882568
1,764094,13.043521881103516,-11.630903244018555,65.32189178466797,18.792007446289062
1,764097,-7.355808734893799,0.8298435807228088,1.9466314315795898,-30.17315101623535
1,764099,23.377286911010742,30.502092361450195,-61.211360931396484,19.319948196411133
1,764240,-35.005889892578125,-20.37091636657715,-96.180908203125,9.41604995727539
1,764240,-13.973488807678223,-23.12978744506836,16.377344131469727,-45.99466323852539
1,764240,34.05666732788086,20.846012115478516,81.58712005615234,15.346461296081543
1,764240,-1.0064888000488281,13.931436538696289,-12.871444702148438,29.447587966918945
1,764240,-25.15696144104004,-6.120944023132324,-16.620113372802734,3.313401937484741
1,764241,-12.695429801940918,-13.414514541625977,9.691628456115723,8.51110553741455
1,764241,24.79336929321289,7.971243381500244,-9.064090728759766,-1.921142339706421
1,764241,35.65618896484375,-0.18789561092853546,-6.739907741546631,4.02540397644043
1,764241,-14.047974586486816,-11.373011589050293,5.8541951179504395,-6.5155348777771
1,764241,-13.758359909057617,2.9852969646453857,-0.3915967643260956,-1.2187001705169678
1,764241,7.735940456390381,-4.0780110359191895,7.341588973999023,21.249338150024414
1,764242,-16.722450256347656,6.261270523071289,28.928159713745117,-10.136092185974121
1,764242,7.060835361480713,7.358738422393799,-3.0466384887695312,-16.632287979125977
1,764242,4.146313667297363,-0.9085284471511841,-15.036455154418945,2.8633480072021484
1,764242,-19.684350967407227,-10.717226028442383,5.722718715667725,-16.710975646972656
1,764242,0.7728473544120789,-19.351295471191406,-7.311680316925049,-0.976351261138916
1,764242,7.7638654708862305,19.905044555664062,-0.6971167922019958,21.40671157836914
1,764243,-1.9218164682388306,26.901626586914062,-4.88530969619751,-12.528912544250488
1,764243,-5.933729648590088,-19.12274169921875,-14.632959365844727,4.071073532104492
1,764243,8.114882469177246,-8.560730934143066,4.335690021514893,23.491962432861328
1,764243,19.820064544677734,14.013540267944336,3.6048731803894043,-14.527973175048828
1,764243,-6.36255407333374,-4.550968170166016,10.635913848876953,-14.63198471069336
1,764244,-21.14934539794922,-0.6922293305397034,22.774154663085938,20.82151985168457
1,764244,-0.5700712203979492,6.415400505065918,-1.3214824199676514,15.733759880065918
1,764244,3.675753355026245,-2.8684356212615967,-18.266136169433594,-21.040584564208984
1,764244,0.9367551803588867,-14.836453437805176,7.498753070831299,-3.8881800174713135
1,764244,10.688578605651855,-19.135740280151367,4.082818984985352,17.097776412963867
1,764244,-1.4606553316116333,6.012697219848633,-18.970108032226562,-11.301116943359375
1,764245,-18.850860595703125,36.895668029785156,-7.800073146820068,-24.693384170532227
1,764245,-4.105382919311523,-8.71269702911377,-19.425844192504883,-14.879667282104492
1,764245,7.650322914123535,-34.849544525146484,-5.7652587890625,4.18670654296875
1,764245,-0.4991632401943207,32.4454345703125,32.547821044921875,0.9611908197402954
1,764245,1.4679709672927856,14.967550277709961,13.796224594116211,0.18078172206878662
1,764245,3.277421474456787,-43.17000198364258,-8.992188453674316,17.628490447998047
1,764246,-2.4428210258483887,0.4808255434036255,-3.574644088745117,8.24986743927002
1,764246,6.5388617515563965,35.836326599121094,-4.4229817390441895,-15.272250175476074
1,764246,6.153107643127441,-11.681828498840332,-1.2662429809570312,-4.397710800170898
1,764246,-4.921158790588379,-13.531241416931152,-0.34539085626602173,24.045318603515625
1,764246,5.366734981536865,24.472705841064453,1.2185226678848267,17.863740921020508
1,764246,4.892416477203369,-4.574792861938477,11.818319320678711,-2.915860176086426
1,764247,-8.854790687561035,-14.942187309265137,-4.564193248748779,-20.634613037109375
1,764247,3.937924861907959,-5.257089614868164,-9.619441986083984,-8.998809814453125
1,764247,6.518428325653076,3.7624661922454834,-3.6732544898986816,-1.3083972930908203
1,764247,-5.641157627105713,27.974842071533203,7.3829731941223145,-12.807080268859863
1,764247,-7.4450812339782715,-7.031207084655762,14.400208473205566,-5.355102062225342
1,764247,-2.101374864578247,-8.318115234375,-2.2908682823181152,14.197771072387695
1,764248,-5.324375152587891,9.27511978149414,-5.945307731628418,7.56606912612915
1,764248,-1.6990810632705688,-15.31572151184082,-6.6823201179504395,-8.028764724731445
1,764248,19.51114273071289,6.995366096496582,3.352905750274658,5.322884559631348
1,764248,1.6956512928009033,8.995997428894043,-4.012545108795166,14.33843994140625
1,764248,-26.003562927246094,-15.85893440246582,-1.599726915359497,14.89910888671875
1,764248,-6.09896183013916,2.7681756019592285,29.3174991607666,0.23295502364635468
1,764249,25.67154312133789,12.023309707641602,19.71206283569336,5.7394795417785645
1,764249,21.426651000976562,-0.7113798260688782,0.106547512114048,-3.086284637451172
1,764249,-5.184167861938477,0.6720013618469238,-11.851513862609863,-15.627755165100098
1,764249,-6.664722442626953,10.53476333618164,-16.53435707092285,4.927561283111572
1,764249,2.841160297393799,-5.784180641174316,-16.85141944885254,-17.924352645874023
1,764249,0.11099456995725632,-14.986222267150879,-12.241903305053711,-11.023139953613281
1,764250,4.915750503540039,1.6688462495803833,24.681108474731445,19.42974090576172
1,764250,-13.284527778625488,6.067354202270508,9.773641586303711,-9.697744369506836
1,764250,-11.620235443115234,-1.871519684791565,-21.462060928344727,-9.754886627197266
1,764250,13.295154571533203,-14.645556449890137,-5.9425201416015625,16.46090316772461
1,764250,-10.787869453430176,-8.94119644165039,-5.18198823928833,-2.8380675315856934
1,764250,-18.576210021972656,1.9492148160934448,-10.22407341003418,-2.42820405960083
1,764251,1.104814887046814,6.744703769683838,-0.3916863799095154,3.7818799018859863
1,764251,13.93695068359375,1.6031646728515625,19.111980438232422,-6.820718765258789
1,764251,1.4449515342712402,-2.2865066528320312,-3.495811939239502,13.048617362976074
1,764251,-26.64693260192871,-3.6865391731262207,-4.348013877868652,15.3467378616333
1,764251,1.7649239301681519,-0.4677913188934326,27.604860305786133,-23.1619873046875
1,764251,29.474681854248047,11.244783401489258,2.1003386974334717,-16.80950164794922
1,764253,-5.064293384552002,-3.418443202972412,-8.149269104003906,-2.117555856704712
1,764253,-7.317485332489014,-0.7241038680076599,-2.7968170642852783,-7.331323623657227
1,764253,8.793742179870605,3.17149019241333,-7.200273036956787,14.596423149108887
1,764253,4.40313196182251,-3.980604648590088,-8.63177490234375,6.502415657043457
1,764253,23.823577880859375,20.026430130004883,-2.0946998596191406,7.232220649719238
1,764254,8.083656311035156,-14.93692398071289,14.178762435913086,2.889888048171997
1,764254,-23.57461929321289,-19.33864402770996,1.6088167428970337,-4.811832427978516
1,764255,22.273046493530273,34.195838928222656,-24.477901458740234,-1.3338794708251953
1,764256,30.568510055541992,-2.6823740005493164,-18.675703048706055,-6.129530906677246
1,764259,-62.891273498535156,-23.42006492614746,14.896723747253418,-3.422396183013916
1,764260,-40.35624694824219,-0.13385649025440216,8.396507263183594,-7.220547676086426
1,764263,44.9918098449707,16.41692352294922,-5.805395603179932,26.933509826660156
1,764264,6.649162292480469,-1.4702314138412476,10.413617134094238,29.812074661254883
1,764267,-18.986148834228516,-23.125154495239258,8.32363510131836,-33.55079650878906
1,764268,16.900156021118164,32.121185302734375,9.437735557556152,-35.114479064941406
1,764271,-15.335265159606934,6.035605430603027,-17.34625816345215,24.066539764404297
1,764272,-30.542165756225586,-38.61996078491211,-8.049700736999512,15.136590003967285
1,764275,22.756637573242188,11.027510643005371,118.4544448852539,7.051586627960205
1,764276,0.294802188873291,22.237367630004883,35.465667724609375,9.444689750671387
1,764279,-12.070167541503906,-7.435119152069092,-149.9875030517578,-30.82921028137207
1,764280,54.71462631225586,-2.879131555557251,-82.78857421875,0.7903005480766296
1,764283,17.579708099365234,5.574878215789795,28.914175033569336,22.896575927734375
1,764284,-72.29663848876953,-18.29184341430664,75.87313842773438,-9.691837310791016
1,764287,-21.2042293548584,12.206850051879883,96.84795379638672,-21.73613739013672
1,764288,25.499061584472656,18.193714141845703,12.630156517028809,2.703294515609741
1,764291,40.34440612792969,-11.032565116882324,-142.6149139404297,22.92431640625
1,764292,78.55172729492188,-13.317111015319824,-116.65552520751953,-18.73117446899414
1,764295,-36.92107009887695,-10.630467414855957,75.04592895507812,-15.923812866210938
1,764296,-110.55424499511719,11.009108543395996,92.73662567138672,21.582305908203125
1,764299,14.319952011108398,-5.0812811851501465,-26.325973510742188,2.951988935470581
1,764450,50.888580322265625,15.458272933959961,-9.847105979919434,-12.529618263244629
1,764450,1.4518229961395264,30.99937629699707,26.042766571044922,4.703232288360596
1,764450,-6.8918561935424805,-31.772289276123047,-23.219579696655273,3.226871967315674
1,764450,-11.726231575012207,-18.817554473876953,-15.609370231628418,2.948594331741333
1,764450,-26.07387924194336,3.6901767253875732,12.697138786315918,15.68222713470459
1,764450,-9.467619895935059,-12.778037071228027,9.007956504821777,-3.7459981441497803
1,764451,22.046703338623047,20.242843627929688,0.1359979659318924,-23.899721145629883
1,764451,12.831088066101074,11.740409851074219,-4.153923988342285,1.0084763765335083
1,764451,-1.011722207069397,-10.549844741821289,11.371542930603027,13.860404968261719
1,764451,-1.7811715602874756,-0.37385842204093933,2.2622649669647217,-3.0298712253570557
1,764451,2.206869602203369,-15.508041381835938,-1.6156669855117798,-0.42093485593795776
1,764452,8.937875747680664,2.558406114578247,12.158676147460938,-12.203886032104492
1,764452,7.251237869262695,12.92681884765625,-13.866732597351074,-3.3832664489746094
1,764452,-11.770346641540527,-10.012106895446777,-8.706252098083496,14.692011833190918
1,764452,-17.209823608398438,2.346721887588501,13.17894458770752,6.783970355987549
1,764452,2.6715939044952393,12.894221305847168,8.169656753540039,8.74721622467041
1,764452,20.119779586791992,10.20569896697998,3.984321117401123,-6.739482879638672
1,764453,1.6406992673873901,-6.384760856628418,-4.77916145324707,-12.969533920288086
1,764453,-8.924605369567871,-2.30885648727417,10.322773933410645,23.459701538085938
1,764453,5.5249552726745605,26.657915115356445,14.707082748413086,19.28093910217285
1,764453,10.490352630615234,-19.046180725097656,-23.830421447753906,-22.59402084350586
1,764453,-0.723818838596344,-32.41857147216797,-7.318997859954834,-1.249407410621643
1,764453,-11.04003620147705,29.239709854125977,11.139554977416992,1.3151562213897705
1,764454,4.801294326782227,1.7849901914596558,-13.314544677734375,-11.181890487670898
1,764454,-9.090967178344727,-23.83731460571289,-11.191338539123535,11.12841796875
1,764454,-12.60127067565918,0.3314598500728607,1.3656104803085327,-7.514915466308594
1,764454,9.425154685974121,4.929103851318359,7.790980815887451,-5.637467384338379
1,764454,-6.210268974304199,14.491775512695312,-13.88232421875,-3.503633499145508
1,764454,-12.743385314941406,-7.3209919929504395,-4.975318431854248,-6.424954414367676
1,764455,9.396729469299316,-4.908884525299072,3.8433375358581543,5.687112331390381
1,764455,13.574390411376953,7.482649326324463,-17.659055709838867,-12.750558853149414
1,764455,7.656961917877197,1.3198636770248413,9.215707778930664,-0.49890631437301636
1,764455,-7.512534141540527,4.060216426849365,18.525007247924805,20.873756408691406
1,764455,-9.918086051940918,-19.944629669189453,-5.337113380432129,9.65009880065918
1,764456,4.609846115112305,-2.488658905029297,-1.94888174533844,0.642602801322937
1,764456,4.936243057250977,27.177536010742188,18.671356201171875,-15.3268404006958
1,764456,12.666199684143066,13.960790634155273,2.095808267593384,-19.01393699645996
1,764456,4.0156965255737305,-10.680538177490234,-16.51063346862793,4.424015045166016
1,764456,-9.43360710144043,-17.722105026245117,17.94687843322754,10.698932647705078
1,764456,-3.2336580753326416,-11.471555709838867,6.462912559509277,11.931258201599121
1,764457,4.476743221282959,8.276559829711914,-23.659046173095703,-14.284852027893066
1,764457,2.5547540187835693,19.05297088623047,-7.646130561828613,-15.05502700805664
1,764457,-1.370203971862793,-12.917881965637207,3.4719133377075195,24.204437255859375
1,764457,2.2663004398345947,2.79025936126709,16.84363555908203,2.835122585296631
1,764457,-0.9625685811042786,10.362959861755371,-10.9094820022583,-18.819488525390625
1,764457,-1.2242099046707153,-20.537134170532227,-23.73638343811035,0.13029587268829346
1,764458,18.784555435180664,4.537301063537598,6.332125663757324,4.213168621063232
1,764458,-9.554153442382812,-2.0234827995300293,1.369349479675293,-5.849369525909424
1,764458,-35.51633834838867,-2.8011560440063477,-0.03840750828385353,9.867952346801758
1,764458,22.22848129272461,29.998332977294922,16.189558029174805,17.1268253326416
1,764458,16.625988006591797,-21.48122215270996,11.174023628234863,-12.80622386932373
1,764458,-13.123550415039062,-21.116809844970703,-10.055447578430176,-4.02223539352417
1,764459,4.046933650970459,24.880107879638672,-3.8733139038085938,7.854516983032227
1,764459,1.544757604598999,-4.512592315673828,-0.1709950864315033,-15.52706241607666
1,764459,0.8907086253166199,-12.974492073059082,-4.9288129806518555,9.185944557189941
1,764459,0.23579934239387512,13.312994003295898,-6.655335426330566,15.658019065856934
1,764459,-3.889066219329834,1.9620252847671509,4.787208080291748,-4.244424343109131
1,764459,-0.9077216982841492,-16.33506202697754,4.186947345733643,-2.1061935424804688
1,764460,-3.1966497898101807,3.7477715015411377,-3.560558319091797,-14.953372955322266
1,764460,-16.330480575561523,-9.142961502075195,13.793133735656738,16.203969955444336
1,764460,-7.412773609161377,-10.82574462890625,-7.249081134796143,21.393310546875
1,764460,10.724907875061035,34.78838348388672,-10.118063926696777,-25.3548526763916
1,764460,2.5072927474975586,16.978960037231445,17.34361457824707,-18.49681854248047
1,764460,-9.333292961120605,-33.753517150878906,-11.654460906982422,11.93006706237793
1,764461,-12.783035278320312,2.010810136795044,-12.710236549377441,20.07466697692871
1,764461,-5.061070442199707,23.40515899658203,21.451078414916992,-13.486007690429688
1,764461,4.935728549957275,-38.945350646972656,1.0027941465377808,-27.73630142211914
1,764461,1.4429539442062378,-2.746044397354126,-18.48714828491211,14.681724548339844
1,764461,13.325420379638672,29.224470138549805,6.388420104980469,36.98357391357422
1,764461,12.140974998474121,-13.097806930541992,17.576313018798828,-3.414306163787842
1,764462,-8.767367362976074,11.21792984008789,-9.484878540039062,-32.60995864868164
1,764462,-14.877103805541992,8.617633819580078,-5.387232303619385,-1.0688608884811401
1,764462,9.231851577758789,-23.130428314208984,-0.7912546396255493,18.729469299316406
1,764462,23.156021118164062,-4.4499053955078125,-17.118764877319336,7.309121131896973
1,764462,-8.725272178649902,13.428291320800781,13.390491485595703,-13.30982494354248
1,764464,-13.963147163391113,13.093269348144531,11.827606201171875,-10.946008682250977
1,764464,1.571077585220337,5.396801471710205,-20.025455474853516,0.6818085312843323
1,764464,10.430821418762207,-8.18541431427002,4.091370582580566,2.6135621070861816
1,764464,7.9545369148254395,0.4125792384147644,16.320730209350586,9.239948272705078
1,764464,-5.5661234855651855,-2.6502861976623535,1.0284571647644043,-13.45295524597168
1,764464,4.372183799743652,-17.965362548828125,-2.7453927993774414,-5.511187553405762
1,764465,4.527469635009766,5.043079853057861,2.799027442932129,26.343196868896484
1,764466,-11.381881713867188,10.11993408203125,-15.65539836883545,-15.072503089904785
1,764467,11.508275032043457,9.556072235107422,2.276142120361328,-9.227083206176758
1,764468,13.900599479675293,19.710594177246094,39.53535461425781,25.46571159362793
1,764471,-30.193544387817383,-9.336509704589844,38.448360443115234,-17.213903427124023
1,764472,-20.718463897705078,-11.644861221313477,34.187374114990234,-6.145140171051025
1,764475,3.8482911586761475,20.69065284729004,-18.410207748413086,25.83119010925293
1,764476,3.61869478225708,-1.4157195091247559,-53.17345428466797,10.632404327392578
1,764479,86.99642944335938,-28.828571319580078,-78.72705841064453,-13.485950469970703
1,764481,12.460100173950195,-14.41819953918457,-13.878171920776367,-29.502269744873047
1,764483,-124.18737030029297,-0.5590932369232178,65.98040008544922,-3.7224950790405273
1,764485,-0.3269573152065277,7.99863862991333,-8.773764610290527,10.940150260925293
1,764487,37.705284118652344,-2.6709141731262207,-13.624753952026367,-5.510795593261719
1,764489,-5.182240962982178,3.1380720138549805,24.1281681060791,10.55086612701416
1,764491,6.7716064453125,7.153461456298828,-26.23116111755371,18.685876846313477
1,764493,-7.945653915405273,-31.67998695373535,-33.57567596435547,-30.39921760559082
1,764495,8.23409366607666,12.196001052856445,34.97626495361328,-21.900724411010742
1,764497,6.748045921325684,29.32853126525879,43.58334732055664,42.33663558959961
1,764499,2.753314733505249,-18.283218383789062,-22.629562377929688,28.195178985595703
1,764501,-1.3533073663711548,17.308780670166016,-34.40385055541992,-14.441812515258789
1,764503,-18.742788314819336,14.579901695251465,36.41713333129883,-34.71706771850586
1,764505,8.971014976501465,-18.858200073242188,58.144996643066406,-18.523778915405273
1,764507,20.709203720092773,-16.656967163085938,17.830183029174805,43.2457160949707
1,764509,-3.66442608833313,22.358659744262695,-14.42368221282959,28.44309425354004
1,764511,-14.127809524536133,21.95379066467285,-63.05255889892578,-15.000868797302246
1,764513,-22.614356994628906,-28.4915828704834,-69.08048248291016,0.34542185068130493
2,766248,20.636632919311523,-18.85281753540039,-26.622758865356445,-50.86096954345703
2,766249,40.740455627441406,-10.36210823059082,46.029170989990234,-31.174535751342773
2,766252,-36.94599914550781,14.87661075592041,103.72016143798828,49.70833206176758
2,766253,-28.068279266357422,17.84848976135254,-5.652403354644775,32.96068572998047
2,766256,45.03528594970703,-5.425189971923828,-102.07518768310547,40.27997589111328
2,766257,12.055190086364746,15.437926292419434,-23.0914363861084,2.3743724822998047
2,766260,-35.76701736450195,-33.615787506103516,23.047422409057617,-102.62065124511719
2,766261,0.11248768121004105,-14.217550277709961,55.372093200683594,-39.15968704223633
2,766262,20.241369247436523,62.91972351074219,113.9197769165039,69.49803924560547
2,766275,-8.217949867248535,-8.817852973937988,-42.10011291503906,32.18936538696289
2,766276,-5.230556964874268,-43.626956939697266,-117.6119613647461,6.779179573059082
2,766276,6.309213161468506,18.171554565429688,43.45286560058594,-32.93912124633789
2,766276,-9.749421119689941,28.491046905517578,48.38740158081055,-38.179656982421875
2,766276,-7.600462913513184,-16.39366340637207,-4.563756942749023,34.91368865966797
2,766276,3.071843385696411,-18.021100997924805,2.9008941650390625,28.9327335357666
2,766278,10.932936668395996,13.496930122375488,0.6734632849693298,-25.57097053527832
2,766279,10.639718055725098,-2.505579948425293,-15.177143096923828,-26.659006118774414
2,766282,-17.319149017333984,-25.711681365966797,-87.32891845703125,28.285842895507812
2,766283,-9.982256889343262,6.233864784240723,-75.22541046142578,25.959369659423828
2,766286,34.657562255859375,27.017160415649414,55.164337158203125,-26.827392578125
2,766287,-3.0714306831359863,-10.815204620361328,80.53981018066406,2.960988759994507
2,766290,-46.644474029541016,5.001178741455078,26.15471839904785,12.313714027404785
2,766291,16.025659561157227,17.39015007019043,11.321319580078125,-27.279712677001953
2,766294,64.18024444580078,-1.299771785736084,-34.236515045166016,-10.275411605834961
2,766295,-6.337691783905029,-6.268375396728516,-48.79255676269531,0.5442930459976196
2,766298,-83.0246810913086,-28.581695556640625,-18.17127799987793,6.44780158996582
2,766299,-2.067333936691284,-11.70528793334961,0.9127436280250549,15.10750675201416
2,766324,50.73419952392578,27.375680923461914,63.419559478759766,16.36800193786621
2,766324,-5.522068500518799,12.467784881591797,45.81898880004883,4.055688858032227
2,766324,-11.123781204223633,-25.9598331451416,-27.899526596069336,-20.622426986694336
2,766324,-2.6421055793762207,-6.8497419357299805,-23.4963436126709,-6.514713287353516
2,766324,-9.54837703704834,14.323875427246094,-9.226511001586914,17.812217712402344
2,766324,0.5743129253387451,7.7013750076293945,11.969172477722168,4.101048469543457
2,766325,3.10211443901062,-0.5628930330276489,22.83541488647461,-14.07815170288086
2,766325,11.724135398864746,-8.663922309875488,-16.070663452148438,8.883010864257812
2,766325,10.795992851257324,5.669851303100586,-6.4597601890563965,14.142476081848145
2,766325,-7.687141418457031,18.9249267578125,19.043184280395508,-13.377423286437988
2,766325,14.438030242919922,5.839305877685547,-13.25523853302002,-7.860539436340332
2,766326,19.07646942138672,-3.3234357833862305,-5.729362487792969,6.850383281707764
2,766327,-25.15811538696289,-25.325624465942383,14.095754623413086,-12.466737747192383
2,766327,-18.115619659423828,-16.3491153717041,1.6755255460739136,-10.267355918884277
2,766328,17.425003051757812,17.46672821044922,-25.508420944213867,17.370880126953125
2,766331,-7.996262550354004,-9.688289642333984,-35.09840393066406,-18.60820770263672
2,766332,-10.69426155090332,-11.235418319702148,-1.1648237705230713,-18.488136291503906
2,766335,18.29083251953125,21.855663299560547,35.332340240478516,42.52851104736328
2,766336,12.698674201965332,28.23879623413086,38.536827087402344,-8.487905502319336
2,766339,-18.007471084594727,-27.009376525878906,-35.56128692626953,-42.705047607421875
2,766340,-13.913153648376465,-26.199007034301758,-33.11360549926758,32.840885162353516
2,766343,34.3260498046875,35.046142578125,5.940665245056152,26.762691497802734
2,766344,6.786337852478027,3.15533447265625,-7.735933303833008,-16.170169830322266
2,766347,-40.447715759277344,-27.259578704833984,34.13372802734375,-11.808286666870117
2,766348,-3.4225480556488037,-5.634091854095459,22.02342987060547,8.594928741455078
2,766351,2.3644626140594482,36.974693298339844,48.037261962890625,30.212099075317383
2,766389,9.679854393005371,32.603702545166016,-12.59199333190918,-22.823787689208984
2,766389,44.86037826538086,-26.524091720581055,-113.97758483886719,-42.942970275878906
2,766389,-20.846698760986328,-32.399715423583984,26.357664108276367,34.14715576171875
2,766389,-38.648948669433594,0.1985781490802765,59.453163146972656,31.756942749023438
2,766389,14.446528434753418,9.973179817199707,-26.63140296936035,-30.778282165527344
2,766389,11.823009490966797,6.031230449676514,-10.039271354675293,-8.643757820129395
2,766390,-4.118642330169678,3.2617626190185547,20.698165893554688,26.03391456604004
2,766390,-11.063404083251953,-10.972428321838379,5.130340576171875,9.190437316894531
2,766390,-0.8531957864761353,-0.884324848651886,-15.788365364074707,-23.34920883178711
2,766390,-6.38157320022583,-5.448949813842773,-18.323633193969727,-6.823578357696533
2,766390,-11.675509452819824,-12.353166580200195,-3.0912389755249023,18.35984992980957
2,766391,-7.094679832458496,19.995439529418945,20.543733596801758,-7.73905611038208
2,766391,-0.08852069079875946,0.3047342002391815,23.344648361206055,-10.183246612548828
2,766391,21.49573516845703,5.3127264976501465,0.34493961930274963,-7.903474807739258
2,766391,5.689946174621582,4.554509162902832,-21.9289608001709,15.89313793182373
2,766391,-7.064688205718994,-16.75809097290039,1.4389910697937012,0.7109946012496948
2,766391,12.930728912353516,2.081968307495117,-3.6162712574005127,-31.779682159423828
2,766392,7.748198986053467,1.3736374378204346,-7.521989822387695,14.597916603088379
2,766392,-4.589203357696533,11.425981521606445,29.056503295898438,17.47346305847168
2,766393,14.28518295288086,-0.11217480897903442,7.923904895782471,0.6028509140014648
2,766393,7.517498970031738,-8.063273429870605,-30.61896324157715,-8.122081756591797
2,766395,-24.56920623779297,-7.30980110168457,4.253217697143555,-21.475976943969727
2,766397,-10.773124694824219,4.864259243011475,37.6064338684082,23.99263572692871
2,766399,11.63342571258545,17.260635375976562,-17.873910903930664,23.53908920288086
2,766401,1.299445390701294,-4.030736923217773,-54.17836380004883,-35.79738235473633
2,766403,-12.531011581420898,-8.35999584197998,3.521059036254883,-10.665473937988281
2,766405,14.448248863220215,-7.377477645874023,28.99102210998535,33.96177291870117
2,766407,17.712759017944336,22.791702270507812,11.264918327331543,5.148939609527588
2,766409,-5.931027889251709,8.60346794128418,8.20002269744873,-12.746748924255371
2,766411,-0.9954355955123901,-29.40962028503418,-28.483938217163086,-2.3699214458465576
2,766413,-17.25644874572754,1.3490830659866333,-17.700992584228516,3.188643455505371
2,766415,-20.96709442138672,-2.3886466026306152,23.8691463470459,26.900928497314453
2,766417,19.467430114746094,-18.52167510986328,5.524513244628906,0.48368752002716064
2,766419,39.88638687133789,22.924392700195312,-12.573393821716309,-47.72494888305664
2,766422,-37.964637756347656,24.41212272644043,4.833700180053711,-2.6556878089904785
2,766473,-23.839155197143555,-27.184329986572266,-15.27443790435791,44.219173431396484
2,766473,60.31081771850586,-17.66019630432129,-42.79978942871094,0.12570160627365112
2,766473,-6.385412693023682,12.177486419677734,17.159021377563477,-28.608150482177734
2,766474,-39.822959899902344,-1.8958375453948975,22.59501075744629,10.024283409118652
2,766474,-15.0372896194458,0.03599376603960991,-10.48277759552002,3.0069947242736816
2,766474,-4.949363708496094,2.5379080772399902,11.050061225891113,-9.612324714660645
2,766474,13.661396026611328,-4.675184726715088,4.5585150718688965,7.443017959594727
2,766474,7.305709362030029,-13.003321647644043,5.935052394866943,-3.087207794189453
2,766474,-11.879294395446777,-5.1356940269470215,11.455958366394043,3.8197078704833984
2,766475,-14.203947067260742,17.198974609375,-3.8549890518188477,-2.5504534244537354
2,766475,-1.9863516092300415,-5.200403213500977,13.25735092163086,-8.283963203430176
2,766475,6.718926906585693,-0.42033934593200684,13.810032844543457,-9.087384223937988
2,766475,20.048078536987305,15.834376335144043,-1.6105133295059204,-13.660821914672852
2,766475,0.8392678499221802,-5.618042945861816,-7.407067775726318,4.938551425933838
2,766475,-23.06563377380371,-16.138050079345703,-10.905695915222168,5.320367813110352
2,766476,-3.816528797149658,-11.228907585144043,14.497895240783691,12.171833992004395
2,766476,13.386894226074219,10.920123100280762,-5.713663578033447,-3.0891542434692383
2,766476,7.307681083679199,-0.18108399212360382,-15.664351463317871,-7.100709438323975
2,766476,5.834278583526611,-24.551998138427734,20.007526397705078,15.973122596740723
2,766476,21.7845458984375,17.28216552734375,14.420934677124023,-6.35625696182251
2,766476,3.075188159942627,38.57681655883789,-1.2017672061920166,-8.295892715454102
2,766477,-18.28940200805664,0.5063602924346924,-16.69415283203125,8.064810752868652
2,766477,8.618476867675781,-10.379927635192871,2.1441516876220703,-1.1875011920928955
2,766477,17.971399307250977,12.5210542678833,11.126577377319336,0.06017851084470749
2,766477,-1.761084794998169,20.25733184814453,-11.075030326843262,11.47927474975586
2,766477,4.621318817138672,3.7013204097747803,-6.38803243637085,8.31921672821045
2,766479,9.05552864074707,17.817516326904297,-2.1084511280059814,-17.168581008911133
2,766479,-5.879278659820557,9.432296752929688,3.8487675189971924,-5.676562786102295
2,766479,0.3747751712799072,-20.175155639648438,10.12055492401123,38.179931640625
2,766482,-0.500649631023407,0.37002429366111755,-1.698252558708191,19.551408767700195
2,766483,15.610636711120605,20.161502838134766,-9.896652221679688,-41.636924743652344
